3996.41167	0.0066
3994.4829	0.00678
3992.55413	0.00694
3990.62536	0.0071
3988.69659	0.00726
3986.76782	0.0074
3984.83905	0.00754
3982.91028	0.00768
3980.98151	0.0078
3979.05274	0.00792
3977.12397	0.00803
3975.1952	0.00813
3973.26643	0.00823
3971.33766	0.00824
3969.40889	0.00834
3967.48012	0.00855
3965.55135	0.00879
3963.62258	0.00905
3961.69381	0.00934
3959.76504	0.00957
3957.83627	0.00964
3955.9075	0.00957
3953.97873	0.00955
3952.04996	0.00968
3950.12119	0.00987
3948.19242	0.00999
3946.26365	0.01009
3944.33488	0.01017
3942.40611	0.01014
3940.47734	0.01003
3938.54857	0.01007
3936.6198	0.01032
3934.69103	0.01062
3932.76226	0.01075
3930.83349	0.01059
3928.90472	0.01002
3926.97595	0.0091
3925.04718	0.00822
3923.11841	0.00781
3921.18964	0.00787
3919.26087	0.00828
3917.3321	0.00882
3915.40333	0.00926
3913.47456	0.00953
3911.54579	0.00976
3909.61702	0.01
3907.68825	0.01022
3905.75948	0.01041
3903.83071	0.01054
3901.90194	0.01079
3899.97317	0.01132
3898.0444	0.01192
3896.11563	0.01224
3894.18686	0.01231
3892.25809	0.01238
3890.32932	0.01255
3888.40055	0.01264
3886.47178	0.01244
3884.54301	0.01198
3882.61424	0.01142
3880.68547	0.01108
3878.7567	0.01114
3876.82792	0.01133
3874.89915	0.0113
3872.97038	0.01115
3871.04161	0.01099
3869.11284	0.01081
3867.18407	0.01061
3865.2553	0.01032
3863.32653	0.00985
3861.39776	0.00928
3859.46899	0.00884
3857.54022	0.00863
3855.61145	0.00855
3853.68268	0.0084
3851.75391	0.00804
3849.82514	0.00752
3847.89637	0.0071
3845.9676	0.00692
3844.03883	0.00676
3842.11006	0.00644
3840.18129	0.00604
3838.25252	0.00579
3836.32375	0.00581
3834.39498	0.00597
3832.46621	0.00595
3830.53744	0.00556
3828.60867	0.00511
3826.6799	0.00497
3824.75113	0.0049
3822.82236	0.00456
3820.89359	0.004
3818.96482	0.00338
3817.03605	0.00282
3815.10728	0.00237
3813.17851	0.00206
3811.24974	0.00186
3809.32097	0.0017
3807.3922	0.00158
3805.46343	0.00148
3803.53466	0.00134
3801.60589	0.00111
3799.67712	7.96024E-4
3797.74835	4.75807E-4
3795.81958	2.801E-4
3793.89081	2.35154E-4
3791.96204	3.12258E-4
3790.03327	5.52708E-4
3788.1045	8.75854E-4
3786.17573	0.00116
3784.24696	0.00131
3782.31819	0.0013
3780.38942	0.00119
3778.46065	0.00105
3776.53188	9.43355E-4
3774.60311	7.6649E-4
3772.67434	4.37391E-4
3770.74557	1.70478E-4
3768.8168	2.16136E-6
3766.88803	0
3764.95926	5.11226E-4
3763.03049	0.00154
3761.10172	0.00271
3759.17295	0.00374
3757.24418	0.00474
3755.31541	0.00594
3753.38664	0.00732
3751.45787	0.0087
3749.5291	0.01007
3747.60033	0.01159
3745.67156	0.01346
3743.74279	0.01555
3741.81402	0.0177
3739.88525	0.01968
3737.95648	0.02136
3736.02771	0.02274
3734.09894	0.02355
3732.17017	0.02387
3730.2414	0.02386
3728.31263	0.02362
3726.38386	0.02323
3724.45509	0.02273
3722.52632	0.02208
3720.59755	0.02157
3718.66878	0.02141
3716.74001	0.02134
3714.81124	0.02111
3712.88247	0.02085
3710.9537	0.0208
3709.02493	0.02118
3707.09616	0.02198
3705.16739	0.0232
3703.23861	0.02487
3701.30984	0.02686
3699.38107	0.02887
3697.4523	0.0308
3695.52353	0.03292
3693.59476	0.03515
3691.66599	0.03737
3689.73722	0.03957
3687.80845	0.04161
3685.87968	0.04375
3683.95091	0.04603
3682.02214	0.04822
3680.09337	0.05005
3678.1646	0.05161
3676.23583	0.05324
3674.30706	0.05483
3672.37829	0.05591
3670.44952	0.05671
3668.52075	0.05769
3666.59198	0.05895
3664.66321	0.06037
3662.73444	0.062
3660.80567	0.06362
3658.8769	0.06496
3656.94813	0.06589
3655.01936	0.06641
3653.09059	0.0665
3651.16182	0.06649
3649.23305	0.06704
3647.30428	0.06812
3645.37551	0.06953
3643.44674	0.07102
3641.51797	0.07227
3639.5892	0.07333
3637.66043	0.07439
3635.73166	0.07559
3633.80289	0.07701
3631.87412	0.07853
3629.94535	0.08013
3628.01658	0.08187
3626.08781	0.08384
3624.15904	0.08643
3622.23027	0.08957
3620.3015	0.09278
3618.37273	0.09579
3616.44396	0.09884
3614.51519	0.102
3612.58642	0.10508
3610.65765	0.10789
3608.72888	0.11068
3606.80011	0.11383
3604.87134	0.11758
3602.94257	0.12195
3601.0138	0.12633
3599.08503	0.13027
3597.15626	0.13372
3595.22749	0.13691
3593.29872	0.14008
3591.36995	0.14307
3589.44118	0.14594
3587.51241	0.14918
3585.58364	0.15307
3583.65487	0.15765
3581.7261	0.16274
3579.79733	0.16786
3577.86856	0.17271
3575.93979	0.1773
3574.01102	0.18186
3572.08225	0.18653
3570.15348	0.1913
3568.22471	0.19613
3566.29594	0.2012
3564.36717	0.20674
3562.4384	0.21288
3560.50963	0.21927
3558.58086	0.22546
3556.65209	0.23139
3554.72332	0.2371
3552.79455	0.24252
3550.86578	0.24763
3548.93701	0.25253
3547.00824	0.2574
3545.07947	0.26248
3543.1507	0.26814
3541.22193	0.27456
3539.29316	0.28135
3537.36439	0.28812
3535.43562	0.29474
3533.50685	0.30113
3531.57807	0.3073
3529.6493	0.31343
3527.72053	0.31965
3525.79176	0.32609
3523.86299	0.33319
3521.93422	0.34149
3520.00545	0.35104
3518.07668	0.36134
3516.14791	0.37188
3514.21914	0.3824
3512.29037	0.3928
3510.3616	0.40297
3508.43283	0.4128
3506.50406	0.42211
3504.57529	0.43091
3502.64652	0.43938
3500.71775	0.44768
3498.78898	0.45563
3496.86021	0.46294
3494.93144	0.46948
3493.00267	0.47531
3491.0739	0.4805
3489.14513	0.48505
3487.21636	0.48905
3485.28759	0.4927
3483.35882	0.49626
3481.43005	0.50001
3479.50128	0.5043
3477.57251	0.50932
3475.64374	0.51492
3473.71497	0.5208
3471.7862	0.52672
3469.85743	0.53254
3467.92866	0.53833
3465.99989	0.54421
3464.07112	0.55017
3462.14235	0.55619
3460.21358	0.56226
3458.28481	0.5684
3456.35604	0.57476
3454.42727	0.58126
3452.4985	0.58779
3450.56973	0.59444
3448.64096	0.60137
3446.71219	0.60854
3444.78342	0.6158
3442.85465	0.62316
3440.92588	0.63082
3438.99711	0.63882
3437.06834	0.64711
3435.13957	0.65567
3433.2108	0.66432
3431.28203	0.6729
3429.35326	0.68135
3427.42449	0.68954
3425.49572	0.69733
3423.56695	0.70476
3421.63818	0.71185
3419.70941	0.71842
3417.78064	0.72426
3415.85187	0.72939
3413.9231	0.73391
3411.99433	0.73788
3410.06556	0.74121
3408.13679	0.74388
3406.20802	0.74605
3404.27925	0.74792
3402.35048	0.74956
3400.42171	0.75097
3398.49294	0.7523
3396.56417	0.75377
3394.6354	0.75554
3392.70663	0.75758
3390.77786	0.7599
3388.84909	0.76258
3386.92032	0.76557
3384.99155	0.76887
3383.06278	0.77253
3381.13401	0.77652
3379.20524	0.78077
3377.27647	0.78528
3375.3477	0.78996
3373.41893	0.79472
3371.49016	0.7995
3369.56139	0.80419
3367.63262	0.80871
3365.70385	0.81293
3363.77508	0.81675
3361.84631	0.82014
3359.91753	0.8231
3357.98876	0.82567
3356.05999	0.82788
3354.13122	0.82969
3352.20245	0.83109
3350.27368	0.83203
3348.34491	0.83252
3346.41614	0.8326
3344.48737	0.83227
3342.5586	0.83156
3340.62983	0.83061
3338.70106	0.8296
3336.77229	0.82863
3334.84352	0.82769
3332.91475	0.82686
3330.98598	0.82633
3329.05721	0.82628
3327.12844	0.82676
3325.19967	0.82773
3323.2709	0.82911
3321.34213	0.83082
3319.41336	0.8328
3317.48459	0.83491
3315.55582	0.837
3313.62705	0.839
3311.69828	0.84092
3309.76951	0.8427
3307.84074	0.84417
3305.91197	0.84525
3303.9832	0.84589
3302.05443	0.84613
3300.12566	0.84599
3298.19689	0.84547
3296.26812	0.84461
3294.33935	0.84347
3292.41058	0.84212
3290.48181	0.84052
3288.55304	0.83872
3286.62427	0.83687
3284.6955	0.83514
3282.76673	0.83349
3280.83796	0.83177
3278.90919	0.82989
3276.98042	0.82775
3275.05165	0.82522
3273.12288	0.82217
3271.19411	0.81855
3269.26534	0.81431
3267.33657	0.80946
3265.4078	0.80403
3263.47903	0.79811
3261.55026	0.79175
3259.62149	0.78502
3257.69272	0.77799
3255.76395	0.77071
3253.83518	0.7632
3251.90641	0.75553
3249.97764	0.74778
3248.04887	0.74001
3246.1201	0.73228
3244.19133	0.72464
3242.26256	0.71719
3240.33379	0.71011
3238.40502	0.70358
3236.47625	0.69763
3234.54748	0.69221
3232.61871	0.68722
3230.68994	0.68254
3228.76117	0.67803
3226.8324	0.67356
3224.90363	0.66904
3222.97486	0.66437
3221.04609	0.65953
3219.11732	0.65457
3217.18855	0.64953
3215.25978	0.64433
3213.33101	0.63887
3211.40224	0.63309
3209.47347	0.62693
3207.5447	0.62035
3205.61593	0.61339
3203.68716	0.6061
3201.75839	0.59853
3199.82962	0.59079
3197.90085	0.58296
3195.97208	0.57518
3194.04331	0.56765
3192.11454	0.56041
3190.18577	0.5533
3188.257	0.54616
3186.32822	0.53893
3184.39945	0.53159
3182.47068	0.52418
3180.54191	0.51673
3178.61314	0.5093
3176.68437	0.50197
3174.7556	0.49484
3172.82683	0.48798
3170.89806	0.48139
3168.96929	0.47498
3167.04052	0.4687
3165.11175	0.46253
3163.18298	0.45644
3161.25421	0.45043
3159.32544	0.44456
3157.39667	0.43882
3155.4679	0.4332
3153.53913	0.42766
3151.61036	0.42217
3149.68159	0.41675
3147.75282	0.41134
3145.82405	0.40588
3143.89528	0.40033
3141.96651	0.39479
3140.03774	0.38935
3138.10897	0.38404
3136.1802	0.3788
3134.25143	0.37359
3132.32266	0.36841
3130.39389	0.36325
3128.46512	0.35811
3126.53635	0.35295
3124.60758	0.3477
3122.67881	0.34237
3120.75004	0.33704
3118.82127	0.33173
3116.8925	0.32645
3114.96373	0.32125
3113.03496	0.31615
3111.10619	0.31112
3109.17742	0.30615
3107.24865	0.30128
3105.31988	0.2965
3103.39111	0.2918
3101.46234	0.2872
3099.53357	0.28279
3097.6048	0.27868
3095.67603	0.27483
3093.74726	0.27115
3091.81849	0.26753
3089.88972	0.26395
3087.96095	0.26048
3086.03218	0.25716
3084.10341	0.25396
3082.17464	0.25078
3080.24587	0.24759
3078.3171	0.24446
3076.38833	0.24144
3074.45956	0.23855
3072.53079	0.23578
3070.60202	0.23316
3068.67325	0.23069
3066.74448	0.22838
3064.81571	0.22622
3062.88694	0.22421
3060.95817	0.22233
3059.0294	0.22053
3057.10063	0.2188
3055.17186	0.21719
3053.24309	0.21567
3051.31432	0.21423
3049.38555	0.2128
3047.45678	0.2114
3045.52801	0.21009
3043.59924	0.20897
3041.67047	0.208
3039.7417	0.20714
3037.81293	0.20636
3035.88416	0.20574
3033.95539	0.2054
3032.02662	0.20546
3030.09785	0.20594
3028.16908	0.20684
3026.24031	0.20822
3024.31154	0.21013
3022.38277	0.21257
3020.454	0.21556
3018.52523	0.21911
3016.59646	0.22314
3014.66768	0.22737
3012.73891	0.23181
3010.81014	0.23691
3008.88137	0.24296
3006.9526	0.24987
3005.02383	0.25735
3003.09506	0.26518
3001.16629	0.2733
2999.23752	0.28166
2997.30875	0.29023
2995.37998	0.29905
2993.45121	0.30821
2991.52244	0.31772
2989.59367	0.32744
2987.6649	0.33705
2985.73613	0.3461
2983.80736	0.35424
2981.87859	0.36121
2979.94982	0.36688
2978.02105	0.37112
2976.09228	0.37393
2974.16351	0.37538
2972.23474	0.37557
2970.30597	0.37461
2968.3772	0.37285
2966.44843	0.371
2964.51966	0.36976
2962.59089	0.36932
2960.66212	0.36963
2958.73335	0.37083
2956.80458	0.37317
2954.87581	0.37683
2952.94704	0.38186
2951.01827	0.38833
2949.0895	0.39623
2947.16073	0.40533
2945.23196	0.41521
2943.30319	0.42536
2941.37442	0.43521
2939.44565	0.44431
2937.51688	0.4523
2935.58811	0.45893
2933.65934	0.46411
2931.73057	0.46781
2929.8018	0.47
2927.87303	0.47059
2925.94426	0.46966
2924.01549	0.46768
2922.08672	0.46527
2920.15795	0.46271
2918.22918	0.46
2916.30041	0.45714
2914.37164	0.45418
2912.44287	0.45114
2910.5141	0.44791
2908.58533	0.44444
2906.65656	0.44084
2904.72779	0.43723
2902.79902	0.43363
2900.87025	0.43002
2898.94148	0.42632
2897.01271	0.42243
2895.08394	0.41828
2893.15517	0.41381
2891.2264	0.40893
2889.29763	0.40366
2887.36886	0.39804
2885.44009	0.39198
2883.51132	0.38536
2881.58255	0.37821
2879.65378	0.3707
2877.72501	0.36305
2875.79624	0.35523
2873.86747	0.3469
2871.9387	0.33789
2870.00993	0.32835
2868.08116	0.31843
2866.15239	0.30814
2864.22362	0.29756
2862.29485	0.28692
2860.36608	0.27654
2858.43731	0.26657
2856.50854	0.25703
2854.57977	0.24798
2852.651	0.23945
2850.72223	0.23153
2848.79346	0.22423
2846.86469	0.21756
2844.93592	0.21156
2843.00714	0.20625
2841.07837	0.20157
2839.1496	0.19738
2837.22083	0.19357
2835.29206	0.19006
2833.36329	0.18682
2831.43452	0.18385
2829.50575	0.18112
2827.57698	0.17856
2825.64821	0.17611
2823.71944	0.17369
2821.79067	0.17128
2819.8619	0.16887
2817.93313	0.16652
2816.00436	0.16427
2814.07559	0.16209
2812.14682	0.15995
2810.21805	0.15788
2808.28928	0.15588
2806.36051	0.1539
2804.43174	0.15191
2802.50297	0.14992
2800.5742	0.14795
2798.64543	0.14607
2796.71666	0.14431
2794.78789	0.14267
2792.85912	0.14109
2790.93035	0.13957
2789.00158	0.13813
2787.07281	0.13681
2785.14404	0.13559
2783.21527	0.1344
2781.2865	0.13318
2779.35773	0.1319
2777.42896	0.13061
2775.50019	0.12933
2773.57142	0.12808
2771.64265	0.12686
2769.71388	0.12574
2767.78511	0.12474
2765.85634	0.12384
2763.92757	0.12297
2761.9988	0.12207
2760.07003	0.12115
2758.14126	0.12028
2756.21249	0.11944
2754.28372	0.1186
2752.35495	0.11777
2750.42618	0.11697
2748.49741	0.11623
2746.56864	0.11554
2744.63987	0.1149
2742.7111	0.11429
2740.78233	0.11369
2738.85356	0.11308
2736.92479	0.11245
2734.99602	0.11179
2733.06725	0.11112
2731.13848	0.11044
2729.20971	0.10974
2727.28094	0.10903
2725.35217	0.10835
2723.4234	0.1077
2721.49463	0.10701
2719.56586	0.10625
2717.63709	0.10543
2715.70832	0.10458
2713.77955	0.10376
2711.85078	0.10295
2709.92201	0.10208
2707.99324	0.10113
2706.06447	0.10014
2704.1357	0.09918
2702.20693	0.09834
2700.27816	0.09765
2698.34939	0.09704
2696.42062	0.09648
2694.49185	0.09594
2692.56308	0.09543
2690.63431	0.09493
2688.70554	0.09439
2686.77677	0.09384
2684.848	0.09328
2682.91923	0.09271
2680.99046	0.0921
2679.06169	0.09144
2677.13292	0.09075
2675.20415	0.09002
2673.27538	0.08924
2671.34661	0.08843
2669.41783	0.08761
2667.48906	0.08679
2665.56029	0.08594
2663.63152	0.08504
2661.70275	0.0841
2659.77398	0.08317
2657.84521	0.08231
2655.91644	0.08154
2653.98767	0.08084
2652.0589	0.08012
2650.13013	0.07937
2648.20136	0.07861
2646.27259	0.07789
2644.34382	0.07717
2642.41505	0.07644
2640.48628	0.07571
2638.55751	0.07498
2636.62874	0.07425
2634.69997	0.0735
2632.7712	0.07269
2630.84243	0.07181
2628.91366	0.07088
2626.98489	0.06997
2625.05612	0.06912
2623.12735	0.0683
2621.19858	0.06746
2619.26981	0.06661
2617.34104	0.06581
2615.41227	0.06505
2613.4835	0.06433
2611.55473	0.06366
2609.62596	0.06304
2607.69719	0.06243
2605.76842	0.06181
2603.83965	0.06124
2601.91088	0.06078
2599.98211	0.0604
2598.05334	0.06005
2596.12457	0.05971
2594.1958	0.05939
2592.26703	0.0591
2590.33826	0.05881
2588.40949	0.05849
2586.48072	0.05814
2584.55195	0.05781
2582.62318	0.05756
2580.69441	0.05737
2578.76564	0.05721
2576.83687	0.05706
2574.9081	0.05693
2572.97933	0.05682
2571.05056	0.05667
2569.12179	0.05646
2567.19302	0.05624
2565.26425	0.05604
2563.33548	0.05584
2561.40671	0.0556
2559.47794	0.05535
2557.54917	0.0551
2555.6204	0.05483
2553.69163	0.05454
2551.76286	0.05427
2549.83409	0.054
2547.90532	0.05373
2545.97655	0.05341
2544.04778	0.05307
2542.11901	0.05275
2540.19024	0.05253
2538.26147	0.05242
2536.3327	0.05236
2534.40393	0.05231
2532.47516	0.05227
2530.54639	0.05223
2528.61762	0.05217
2526.68885	0.05205
2524.76008	0.05188
2522.83131	0.05172
2520.90254	0.05156
2518.97377	0.05138
2517.045	0.05117
2515.11623	0.05092
2513.18746	0.05063
2511.25869	0.05027
2509.32992	0.0499
2507.40115	0.04958
2505.47238	0.04928
2503.54361	0.04893
2501.61484	0.04855
2499.68607	0.04816
2497.75729	0.04779
2495.82852	0.04746
2493.89975	0.04721
2491.97098	0.04701
2490.04221	0.04682
2488.11344	0.04663
2486.18467	0.04644
2484.2559	0.04625
2482.32713	0.0461
2480.39836	0.046
2478.46959	0.04592
2476.54082	0.04586
2474.61205	0.04581
2472.68328	0.04575
2470.75451	0.04567
2468.82574	0.04557
2466.89697	0.04545
2464.9682	0.04534
2463.03943	0.04523
2461.11066	0.04507
2459.18189	0.0448
2457.25312	0.04445
2455.32435	0.04406
2453.39558	0.04365
2451.46681	0.04322
2449.53804	0.04279
2447.60927	0.04236
2445.6805	0.04194
2443.75173	0.04154
2441.82296	0.04117
2439.89419	0.04085
2437.96542	0.04062
2436.03665	0.04048
2434.10788	0.0404
2432.17911	0.04038
2430.25034	0.04041
2428.32157	0.04047
2426.3928	0.04054
2424.46403	0.04063
2422.53526	0.04075
2420.60649	0.0409
2418.67772	0.04103
2416.74895	0.04112
2414.82018	0.04116
2412.89141	0.04119
2410.96264	0.04122
2409.03387	0.04126
2407.1051	0.04128
2405.17633	0.04129
2403.24756	0.04128
2401.31879	0.04125
2399.39002	0.04123
2397.46125	0.04124
2395.53248	0.04125
2393.60371	0.04125
2391.67494	0.04127
2389.74617	0.04128
2387.8174	0.04129
2385.88863	0.04129
2383.95986	0.0413
2382.03109	0.04131
2380.10232	0.04132
2378.17355	0.04132
2376.24478	0.04133
2374.31601	0.04134
2372.38724	0.04135
2370.45847	0.04135
2368.5297	0.04136
2366.60093	0.04137
2364.67216	0.04138
2362.74339	0.04139
2360.81462	0.04139
2358.88585	0.0414
2356.95708	0.04141
2355.02831	0.04142
2353.09954	0.04142
2351.17077	0.04143
2349.242	0.04144
2347.31323	0.04145
2345.38446	0.04146
2343.45569	0.04146
2341.52692	0.04147
2339.59815	0.04148
2337.66938	0.04149
2335.74061	0.04149
2333.81184	0.0415
2331.88307	0.04151
2329.9543	0.04152
2328.02553	0.04153
2326.09675	0.04153
2324.16798	0.04154
2322.23921	0.04155
2320.31044	0.04156
2318.38167	0.04156
2316.4529	0.04157
2314.52413	0.04158
2312.59536	0.04159
2310.66659	0.0416
2308.73782	0.0416
2306.80905	0.04161
2304.88028	0.04162
2302.95151	0.04163
2301.02274	0.04163
2299.09397	0.04164
2297.1652	0.04165
2295.23643	0.04166
2293.30766	0.04166
2291.37889	0.04167
2289.45012	0.04168
2287.52135	0.04169
2285.59258	0.0417
2283.66381	0.0417
2281.73504	0.04171
2279.80627	0.04172
2277.8775	0.04173
2275.94873	0.04173
2274.01996	0.04174
2272.09119	0.04203
2270.16242	0.04221
2268.23365	0.0423
2266.30488	0.04229
2264.37611	0.04216
2262.44734	0.04193
2260.51857	0.04162
2258.5898	0.04124
2256.66103	0.04082
2254.73226	0.04032
2252.80349	0.03972
2250.87472	0.03902
2248.94595	0.03822
2247.01718	0.03732
2245.08841	0.03635
2243.15964	0.03536
2241.23087	0.03437
2239.3021	0.03339
2237.37333	0.03242
2235.44456	0.03153
2233.51579	0.03073
2231.58702	0.03003
2229.65825	0.02944
2227.72948	0.02903
2225.80071	0.02891
2223.87194	0.02867
2221.94317	0.02852
2220.0144	0.02843
2218.08563	0.0284
2216.15686	0.02848
2214.22809	0.02869
2212.29932	0.02891
2210.37055	0.02903
2208.44178	0.02908
2206.51301	0.02912
2204.58424	0.02918
2202.65547	0.02919
2200.7267	0.02921
2198.79793	0.02934
2196.86916	0.02957
2194.94039	0.02975
2193.01162	0.02983
2191.08285	0.0299
2189.15408	0.02999
2187.22531	0.03011
2185.29654	0.03025
2183.36777	0.0304
2181.439	0.03054
2179.51023	0.03055
2177.58146	0.03032
2175.65269	0.02987
2173.72392	0.0292
2171.79515	0.02834
2169.86638	0.02742
2167.93761	0.02649
2166.00884	0.02552
2164.08007	0.02457
2162.1513	0.02373
2160.22253	0.02308
2158.29376	0.02263
2156.36499	0.02237
2154.43622	0.02235
2152.50744	0.02251
2150.57867	0.02277
2148.6499	0.02312
2146.72113	0.02364
2144.79236	0.02437
2142.86359	0.02526
2140.93482	0.02629
2139.00605	0.02742
2137.07728	0.02854
2135.14851	0.02953
2133.21974	0.03031
2131.29097	0.03099
2129.3622	0.0316
2127.43343	0.03209
2125.50466	0.03248
2123.57589	0.03286
2121.64712	0.03325
2119.71835	0.03356
2117.78958	0.03377
2115.86081	0.03386
2113.93204	0.03387
2112.00327	0.03384
2110.0745	0.03379
2108.14573	0.03368
2106.21696	0.0335
2104.28819	0.03327
2102.35942	0.03301
2100.43065	0.03273
2098.50188	0.03242
2096.57311	0.03217
2094.64434	0.03203
2092.71557	0.03198
2090.7868	0.03193
2088.85803	0.03181
2086.92926	0.03167
2085.00049	0.03158
2083.07172	0.0315
2081.14295	0.03141
2079.21418	0.03129
2077.28541	0.03112
2075.35664	0.03085
2073.42787	0.03054
2071.4991	0.03017
2069.57033	0.02974
2067.64156	0.0293
2065.71279	0.0289
2063.78402	0.02851
2061.85525	0.0281
2059.92648	0.02769
2057.99771	0.02729
2056.06894	0.02682
2054.14017	0.02616
2052.2114	0.02528
2050.28263	0.02431
2048.35386	0.02331
2046.42509	0.02221
2044.49632	0.02097
2042.56755	0.01965
2040.63878	0.01838
2038.71001	0.01719
2036.78124	0.01607
2034.85247	0.01494
2032.9237	0.01377
2030.99493	0.01259
2029.06616	0.01148
2027.13739	0.01046
2025.20862	0.00957
2023.27985	0.00887
2021.35108	0.00841
2019.42231	0.00812
2017.49354	0.00802
2015.56477	0.00815
2013.636	0.00845
2011.70723	0.00879
2009.77846	0.00906
2007.84969	0.00925
2005.92092	0.00954
2003.99215	0.01007
2002.06338	0.01076
2000.13461	0.01139
1998.20584	0.01178
1996.27707	0.01196
1994.3483	0.01196
1992.41953	0.01176
1990.49076	0.01135
1988.56199	0.0108
1986.63322	0.01026
1984.70445	0.00976
1982.77568	0.00923
1980.8469	0.00868
1978.91813	0.00827
1976.98936	0.00807
1975.06059	0.00803
1973.13182	0.00809
1971.20305	0.00826
1969.27428	0.0086
1967.34551	0.0091
1965.41674	0.00972
1963.48797	0.01042
1961.5592	0.01126
1959.63043	0.01223
1957.70166	0.01328
1955.77289	0.01425
1953.84412	0.015
1951.91535	0.01553
1949.98658	0.01593
1948.05781	0.01627
1946.12904	0.01656
1944.20027	0.01687
1942.2715	0.01725
1940.34273	0.01764
1938.41396	0.018
1936.48519	0.01829
1934.55642	0.01859
1932.62765	0.01897
1930.69888	0.01939
1928.77011	0.01978
1926.84134	0.02006
1924.91257	0.0202
1922.9838	0.02024
1921.05503	0.02015
1919.12626	0.01992
1917.19749	0.01961
1915.26872	0.01928
1913.33995	0.01894
1911.41118	0.01857
1909.48241	0.01822
1907.55364	0.01788
1905.62487	0.01758
1903.6961	0.01732
1901.76733	0.01709
1899.83856	0.01689
1897.90979	0.01674
1895.98102	0.01664
1894.05225	0.01657
1892.12348	0.01655
1890.19471	0.01658
1888.26594	0.01669
1886.33717	0.01686
1884.4084	0.01706
1882.47963	0.01721
1880.55086	0.01726
1878.62209	0.01723
1876.69332	0.01715
1874.76455	0.01702
1872.83578	0.01687
1870.90701	0.01671
1868.97824	0.01655
1867.04947	0.01635
1865.1207	0.01617
1863.19193	0.01607
1861.26316	0.01604
1859.33439	0.01602
1857.40562	0.016
1855.47685	0.01599
1853.54808	0.01601
1851.61931	0.01603
1849.69054	0.01606
1847.76177	0.01613
1845.833	0.01625
1843.90423	0.01649
1841.97546	0.01683
1840.04669	0.01723
1838.11792	0.01766
1836.18915	0.01812
1834.26038	0.01861
1832.33161	0.01915
1830.40284	0.01984
1828.47407	0.02076
1826.5453	0.02193
1824.61653	0.02337
1822.68776	0.02517
1820.75899	0.0275
1818.83022	0.0305
1816.90145	0.03405
1814.97268	0.03794
1813.04391	0.04242
1811.11514	0.04788
1809.18636	0.0543
1807.25759	0.06165
1805.32882	0.07028
1803.40005	0.08091
1801.47128	0.09433
1799.54251	0.11098
1797.61374	0.13038
1795.68497	0.15152
1793.7562	0.17377
1791.82743	0.19691
1789.89866	0.22027
1787.96989	0.24274
1786.04112	0.2632
1784.11235	0.28079
1782.18358	0.29481
1780.25481	0.30479
1778.32604	0.31057
1776.39727	0.31228
1774.4685	0.31019
1772.53973	0.3052
1770.61096	0.29874
1768.68219	0.29187
1766.75342	0.28498
1764.82465	0.27788
1762.89588	0.2703
1760.96711	0.26261
1759.03834	0.25556
1757.10957	0.24974
1755.1808	0.24546
1753.25203	0.24252
1751.32326	0.24026
1749.39449	0.2383
1747.46572	0.23679
1745.53695	0.23577
1743.60818	0.23457
1741.67941	0.23209
1739.75064	0.22785
1737.82187	0.223
1735.8931	0.21916
1733.96433	0.2174
1732.03556	0.2185
1730.10679	0.22314
1728.17802	0.23164
1726.24925	0.24381
1724.32048	0.25875
1722.39171	0.27454
1720.46294	0.289
1718.53417	0.30071
1716.6054	0.30906
1714.67663	0.31381
1712.74786	0.31493
1710.81909	0.31259
1708.89032	0.30704
1706.96155	0.29834
1705.03278	0.28685
1703.10401	0.27325
1701.17524	0.25817
1699.24647	0.24203
1697.3177	0.2252
1695.38893	0.2082
1693.46016	0.19228
1691.53139	0.17926
1689.60262	0.1701
1687.67385	0.16463
1685.74508	0.16237
1683.81631	0.16308
1681.88754	0.16655
1679.95877	0.17222
1678.03	0.17966
1676.10123	0.18851
1674.17246	0.19833
1672.24369	0.20896
1670.31492	0.22018
1668.38615	0.23118
1666.45738	0.24099
1664.52861	0.2491
1662.59984	0.25523
1660.67107	0.25917
1658.7423	0.26102
1656.81353	0.26084
1654.88476	0.25852
1652.95599	0.25393
1651.02722	0.24712
1649.09845	0.23846
1647.16968	0.22842
1645.24091	0.21754
1643.31214	0.20619
1641.38337	0.1943
1639.4546	0.18213
1637.52583	0.17091
1635.59705	0.16185
1633.66828	0.15537
1631.73951	0.15147
1629.81074	0.14992
1627.88197	0.1501
1625.9532	0.15114
1624.02443	0.15214
1622.09566	0.15223
1620.16689	0.15112
1618.23812	0.14899
1616.30935	0.14592
1614.38058	0.14189
1612.45181	0.13699
1610.52304	0.13149
1608.59427	0.1256
1606.6655	0.11939
1604.73673	0.11303
1602.80796	0.1068
1600.87919	0.10067
1598.95042	0.09434
1597.02165	0.0876
1595.09288	0.0806
1593.16411	0.07376
1591.23534	0.06776
1589.30657	0.06298
1587.3778	0.05939
1585.44903	0.05675
1583.52026	0.05466
1581.59149	0.05268
1579.66272	0.05087
1577.73395	0.04961
1575.80518	0.04902
1573.87641	0.04908
1571.94764	0.04968
1570.01887	0.05073
1568.0901	0.05214
1566.16133	0.05373
1564.23256	0.05518
1562.30379	0.0564
1560.37502	0.05795
1558.44625	0.06017
1556.51748	0.06289
1554.58871	0.06607
1552.65994	0.06992
1550.73117	0.07457
1548.8024	0.08001
1546.87363	0.08615
1544.94486	0.09282
1543.01609	0.09974
1541.08732	0.10648
1539.15855	0.11268
1537.22978	0.11798
1535.30101	0.12216
1533.37224	0.12538
1531.44347	0.12765
1529.5147	0.12865
1527.58593	0.12803
1525.65716	0.12569
1523.72839	0.12167
1521.79962	0.11599
1519.87085	0.10872
1517.94208	0.10018
1516.01331	0.09106
1514.08454	0.08201
1512.15577	0.07293
1510.227	0.06403
1508.29823	0.05615
1506.36946	0.05006
1504.44069	0.04606
1502.51192	0.0442
1500.58315	0.04419
1498.65438	0.04541
1496.72561	0.04719
1494.79684	0.04934
1492.86807	0.05218
1490.9393	0.05591
1489.01053	0.06041
1487.08176	0.06565
1485.15299	0.07178
1483.22422	0.07866
1481.29545	0.0858
1479.36668	0.09289
1477.43791	0.1001
1475.50914	0.10748
1473.58037	0.11487
1471.6516	0.12209
1469.72283	0.12893
1467.79406	0.13514
1465.86529	0.14068
1463.93651	0.14587
1462.00774	0.15089
1460.07897	0.1556
1458.1502	0.15977
1456.22143	0.16315
1454.29266	0.16536
1452.36389	0.16615
1450.43512	0.16566
1448.50635	0.16432
1446.57758	0.16263
1444.64881	0.16088
1442.72004	0.15941
1440.79127	0.15888
1438.8625	0.15992
1436.93373	0.16237
1435.00496	0.16579
1433.07619	0.17022
1431.14742	0.17606
1429.21865	0.18324
1427.28988	0.19153
1425.36111	0.20066
1423.43234	0.21023
1421.50357	0.21969
1419.5748	0.22869
1417.64603	0.23709
1415.71726	0.24489
1413.78849	0.25198
1411.85972	0.25826
1409.93095	0.26371
1408.00218	0.2685
1406.07341	0.27272
1404.14464	0.27628
1402.21587	0.27899
1400.2871	0.28085
1398.35833	0.28213
1396.42956	0.28326
1394.50079	0.28471
1392.57202	0.28653
1390.64325	0.28806
1388.71448	0.28878
1386.78571	0.2886
1384.85694	0.28769
1382.92817	0.28612
1380.9994	0.28377
1379.07063	0.28041
1377.14186	0.2758
1375.21309	0.26997
1373.28432	0.26324
1371.35555	0.25599
1369.42678	0.24851
1367.49801	0.24093
1365.56924	0.23341
1363.64047	0.22633
1361.7117	0.22036
1359.78293	0.21631
1357.85416	0.21481
1355.92539	0.21614
1353.99662	0.2204
1352.06785	0.22758
1350.13908	0.23749
1348.21031	0.24955
1346.28154	0.26273
1344.35277	0.27595
1342.424	0.2884
1340.49523	0.29958
1338.56646	0.30902
1336.63769	0.31622
1334.70892	0.3207
1332.78015	0.32219
1330.85138	0.32075
1328.92261	0.31671
1326.99384	0.31053
1325.06507	0.30272
1323.1363	0.29368
1321.20753	0.2838
1319.27876	0.2735
1317.34999	0.26347
1315.42122	0.25464
1313.49245	0.24773
1311.56368	0.24271
1309.63491	0.23908
1307.70614	0.2363
1305.77737	0.23385
1303.8486	0.23124
1301.91983	0.22802
1299.99106	0.22388
1298.06229	0.2186
1296.13352	0.21215
1294.20475	0.20475
1292.27597	0.19684
1290.3472	0.18892
1288.41843	0.18146
1286.48966	0.17487
1284.56089	0.16952
1282.63212	0.1657
1280.70335	0.1634
1278.77458	0.16238
1276.84581	0.16234
1274.91704	0.16313
1272.98827	0.16473
1271.0595	0.16705
1269.13073	0.16985
1267.20196	0.17286
1265.27319	0.17593
1263.34442	0.17897
1261.41565	0.18175
1259.48688	0.18391
1257.55811	0.18524
1255.62934	0.18568
1253.70057	0.18527
1251.7718	0.18419
1249.84303	0.18275
1247.91426	0.18139
1245.98549	0.18069
1244.05672	0.18118
1242.12795	0.18303
1240.19918	0.18591
1238.27041	0.1892
1236.34164	0.19225
1234.41287	0.19459
1232.4841	0.19602
1230.55533	0.19659
1228.62656	0.19652
1226.69779	0.19597
1224.76902	0.19501
1222.84025	0.19352
1220.91148	0.19137
1218.98271	0.18844
1217.05394	0.18458
1215.12517	0.17963
1213.1964	0.17353
1211.26763	0.16634
1209.33886	0.15814
1207.41009	0.14904
1205.48132	0.13921
1203.55255	0.12889
1201.62378	0.1185
1199.69501	0.10862
1197.76624	0.0998
1195.83747	0.09232
1193.9087	0.08623
1191.97993	0.08146
1190.05116	0.07795
1188.12239	0.07566
1186.19362	0.07463
1184.26485	0.07513
1182.33608	0.07771
1180.40731	0.0832
1178.47854	0.09246
1176.54977	0.10615
1174.621	0.12458
1172.69223	0.14764
1170.76346	0.17487
1168.83469	0.20534
1166.90592	0.23773
1164.97715	0.27051
1163.04838	0.30215
1161.11961	0.3313
1159.19084	0.35683
1157.26207	0.37797
1155.3333	0.39432
1153.40453	0.40589
1151.47576	0.41293
1149.54699	0.41577
1147.61822	0.41456
1145.68945	0.40938
1143.76068	0.40043
1141.83191	0.38827
1139.90314	0.37376
1137.97437	0.35808
1136.0456	0.34261
1134.11683	0.32881
1132.18806	0.31804
1130.25929	0.31128
1128.33052	0.30903
1126.40175	0.31137
1124.47298	0.31801
1122.54421	0.3283
1120.61544	0.3412
1118.68666	0.35556
1116.75789	0.37027
1114.82912	0.38437
1112.90035	0.39721
1110.97158	0.40842
1109.04281	0.41793
1107.11404	0.42587
1105.18527	0.43273
1103.2565	0.43941
1101.32773	0.44716
1099.39896	0.45713
1097.47019	0.46982
1095.54142	0.48463
1093.61265	0.50026
1091.68388	0.51531
1089.75511	0.52903
1087.82634	0.54159
1085.89757	0.55357
1083.9688	0.56562
1082.04003	0.57841
1080.11126	0.59263
1078.18249	0.60861
1076.25372	0.62591
1074.32495	0.64347
1072.39618	0.65999
1070.46741	0.67444
1068.53864	0.68666
1066.60987	0.69744
1064.6811	0.70806
1062.75233	0.7197
1060.82356	0.73342
1058.89479	0.75011
1056.96602	0.77037
1055.03725	0.79422
1053.10848	0.82087
1051.17971	0.84882
1049.25094	0.87638
1047.32217	0.90199
1045.3934	0.92465
1043.46463	0.94402
1041.53586	0.96014
1039.60709	0.973
1037.67832	0.98274
1035.74955	0.98991
1033.82078	0.99513
1031.89201	0.99859
1029.96324	1
1028.03447	0.99893
1026.1057	0.99519
1024.17693	0.98911
1022.24816	0.98152
1020.31939	0.97317
1018.39062	0.96421
1016.46185	0.95417
1014.53308	0.94225
1012.60431	0.92781
1010.67554	0.91054
1008.74677	0.89049
1006.818	0.86785
1004.88923	0.84278
1002.96046	0.8152
1001.03169	0.7848
999.10292	0.7513
997.17415	0.7148
995.24538	0.67565
993.31661	0.63451
991.38784	0.59226
989.45907	0.54986
987.5303	0.50805
985.60153	0.4673
983.67276	0.42796
981.74399	0.39047
979.81522	0.3554
977.88645	0.32342
975.95768	0.29532
974.02891	0.27179
972.10014	0.2531
970.17137	0.23889
968.2426	0.22856
966.31383	0.22185
964.38506	0.21885
962.45629	0.21957
960.52752	0.22356
958.59875	0.23003
956.66998	0.23808
954.74121	0.24688
952.81244	0.25569
950.88367	0.26378
948.9549	0.27039
947.02612	0.27495
945.09735	0.27708
943.16858	0.27659
941.23981	0.2733
939.31104	0.26714
937.38227	0.25828
935.4535	0.24723
933.52473	0.2346
931.59596	0.22103
929.66719	0.2071
927.73842	0.19318
925.80965	0.17929
923.88088	0.1653
921.95211	0.15132
920.02334	0.13777
918.09457	0.12505
916.1658	0.11316
914.23703	0.10178
912.30826	0.09067
910.37949	0.08028
908.45072	0.0716
906.52195	0.06514
904.59318	0.06061
902.66441	0.05762
900.73564	0.056
898.80687	0.05561
896.8781	0.05614
894.94933	0.05718
893.02056	0.05844
891.09179	0.05993
889.16302	0.06189
887.23425	0.06461
885.30548	0.06829
883.37671	0.07308
881.44794	0.07896
879.51917	0.08569
877.5904	0.09284
875.66163	0.10001
873.73286	0.10681
871.80409	0.11295
869.87532	0.11822
867.94655	0.1227
866.01778	0.1269
864.08901	0.13153
862.16024	0.13672
860.23147	0.1417
858.3027	0.14553
856.37393	0.14776
854.44516	0.14813
852.51639	0.14641
850.58762	0.14256
848.65885	0.13676
846.73008	0.12941
844.80131	0.12116
842.87254	0.1127
840.94377	0.10448
839.015	0.09668
837.08623	0.08926
835.15746	0.08209
833.22869	0.07498
831.29992	0.06789
829.37115	0.06086
827.44238	0.05396
825.51361	0.04728
823.58484	0.04103
821.65607	0.03549
819.7273	0.03084
817.79853	0.02711
815.86976	0.02414
813.94099	0.02174
812.01222	0.01969
810.08345	0.0178
808.15468	0.01603
806.22591	0.01443
804.29714	0.01308
802.36837	0.0122
800.4396	0.01219
798.51083	0.01339
796.58206	0.01582
794.65329	0.01909
792.72452	0.02276
790.79575	0.02661
788.86698	0.03055
786.93821	0.03458
785.00944	0.0387
783.08067	0.04299
781.1519	0.04762
779.22313	0.05272
777.29436	0.05832
775.36558	0.06435
773.43681	0.07088
771.50804	0.07809
769.57927	0.08599
767.6505	0.09437
765.72173	0.10287
763.79296	0.1111
761.86419	0.11873
759.93542	0.12547
758.00665	0.13109
756.07788	0.13555
754.14911	0.1388
752.22034	0.14065
750.29157	0.1408
748.3628	0.13911
746.43403	0.13553
744.50526	0.13059
742.57649	0.12451
740.64772	0.11755
738.71895	0.11018
736.79018	0.10284
734.86141	0.09594
732.93264	0.08989
731.00387	0.08508
729.0751	0.0819
727.14633	0.08073
725.21756	0.08163
723.28879	0.08429
721.36002	0.08814
719.43125	0.09261
717.50248	0.09728
715.57371	0.10183
713.64494	0.10609
711.71617	0.1099
709.7874	0.11319
707.85863	0.1159
705.92986	0.11797
704.00109	0.1194
702.07232	0.12014
700.14355	0.1202
698.21478	0.11989
696.28601	0.11914
694.35724	0.11836
692.42847	0.11803
690.4997	0.1171
688.57093	0.11517
686.64216	0.11362
684.71339	0.11273
682.78462	0.11236
680.85585	0.11243
678.92708	0.11289
676.99831	0.11366
675.06954	0.11468
673.14077	0.11589
671.212	0.11718
669.28323	0.11846
667.35446	0.11973
665.42569	0.12092
663.49692	0.12198
661.56815	0.12292
659.63938	0.12371
657.71061	0.12434
655.78184	0.12483
653.85307	0.12525
651.9243	0.12566
649.99553	0.12608
648.06676	0.12643
646.13799	0.12624
644.20922	0.12472
642.28045	0.12275
640.35168	0.12149
638.42291	0.12043
636.49414	0.11951
634.56537	0.11894
632.6366	0.11898
630.70783	0.11981
628.77906	0.12151
626.85029	0.12402
624.92152	0.12716
622.99275	0.13079
621.06398	0.13478
619.13521	0.13892
617.20644	0.14308
615.27767	0.14722
613.3489	0.15145
611.42013	0.15579
609.49136	0.16017
607.56259	0.16439
605.63382	0.16826
603.70505	0.17167
601.77627	0.17461
599.8475	0.17716
597.91873	0.17945
595.98996	0.18174
594.06119	0.18429
592.13242	0.18727
590.20365	0.19061
588.27488	0.19414
586.34611	0.19764
584.41734	0.20082
582.48857	0.20336
580.5598	0.20497
578.63103	0.20547
576.70226	0.20483
574.77349	0.20311
572.84472	0.20039
570.91595	0.19684
568.98718	0.19267
567.05841	0.18808
565.12964	0.18311
563.20087	0.1777
561.2721	0.1719
559.34333	0.16591
557.41456	0.16005
555.48579	0.15468
553.55702	0.15
551.62825	0.14617
549.69948	0.1433
547.77071	0.1414
545.84194	0.14036
543.91317	0.13991
541.9844	0.13973
540.05563	0.13956
538.12686	0.13926
536.19809	0.13871
534.26932	0.13789
532.34055	0.1368
530.41178	0.13545
528.48301	0.13382
526.55424	0.13186
524.62547	0.12956
522.6967	0.12697
520.76793	0.12414
518.83916	0.12103
516.91039	0.11768
514.98162	0.11422
513.05285	0.11089
511.12408	0.10792
509.19531	0.10537
507.26654	0.10319
505.33777	0.10136
503.409	0.09991
501.48023	0.09885
499.55146	0.09813
497.62269	0.0977
495.69392	0.09747
493.76515	0.09734
491.83638	0.09719
489.90761	0.09694
487.97884	0.09648
486.05007	0.09572
484.1213	0.09458
482.19253	0.09299
480.26376	0.09091
478.33499	0.0884
476.40622	0.08555
474.47745	0.08246
472.54868	0.07926
470.61991	0.07608
468.69114	0.07305
466.76237	0.07021
464.8336	0.06754
462.90483	0.06503
460.97606	0.06276
459.04729	0.06085
457.11852	0.05938
455.18975	0.05828
453.26098	0.05745
451.33221	0.05686
449.40344	0.05654
447.47467	0.05652
445.5459	0.0568
443.61713	0.05723
441.68836	0.05766
439.75959	0.05791
437.83082	0.05786
435.90205	0.05743
433.97328	0.0566
432.04451	0.05538
430.11573	0.05381
428.18696	0.05191
426.25819	0.04968
424.32942	0.04709
422.40065	0.04413
420.47188	0.04183
418.54311	0.03938
416.61434	0.03678
414.68557	0.03403
412.7568	0.03112
410.82803	0.02807
408.89926	0.02487
406.97049	0.02152
405.04172	0.01801
403.11295	0.01436
401.18418	0.01056
399.25541	0.0066