401	0.02007
402	0.01661
403	0.02427
404	0.03732
405	0.04176
406	0.03646
407	0.03681
408	0.04592
409	0.05174
410	0.04988
411	0.04849
412	0.05421
413	0.06125
414	0.06135
415	0.05626
416	0.05239
417	0.05179
418	0.05338
419	0.05504
420	0.05482
421	0.05443
422	0.05452
423	0.05487
424	0.05709
425	0.06012
426	0.06124
427	0.06129
428	0.06137
429	0.06183
430	0.06539
431	0.07047
432	0.07086
433	0.06983
434	0.07413
435	0.0788
436	0.07723
437	0.07202
438	0.06962
439	0.07139
440	0.07477
441	0.07643
442	0.07526
443	0.07455
444	0.07689
445	0.07913
446	0.07864
447	0.077
448	0.07604
449	0.07556
450	0.07564
451	0.07622
452	0.07621
453	0.07513
454	0.07335
455	0.07154
456	0.07095
457	0.07191
458	0.07178
459	0.06996
460	0.07018
461	0.07332
462	0.07695
463	0.07867
464	0.07809
465	0.07818
466	0.08254
467	0.08822
468	0.0908
469	0.09234
470	0.09608
471	0.09992
472	0.10061
473	0.10021
474	0.10307
475	0.10873
476	0.11332
477	0.11444
478	0.11438
479	0.1166
480	0.12052
481	0.12208
482	0.11966
483	0.117
484	0.11767
485	0.11977
486	0.12014
487	0.11874
488	0.11839
489	0.12115
490	0.12374
491	0.12177
492	0.11732
493	0.11653
494	0.12029
495	0.12352
496	0.12319
497	0.12219
498	0.12384
499	0.12641
500	0.12652
501	0.12465
502	0.12536
503	0.13073
504	0.13557
505	0.13521
506	0.13258
507	0.13367
508	0.13812
509	0.14043
510	0.13887
511	0.1387
512	0.14444
513	0.15199
514	0.15488
515	0.15395
516	0.15543
517	0.16263
518	0.17079
519	0.17417
520	0.17545
521	0.17945
522	0.18602
523	0.19093
524	0.19158
525	0.19092
526	0.19312
527	0.19732
528	0.19867
529	0.19547
530	0.19196
531	0.19199
532	0.19262
533	0.18938
534	0.18364
535	0.18056
536	0.18112
537	0.18082
538	0.17634
539	0.17036
540	0.16775
541	0.16885
542	0.1679
543	0.16229
544	0.1577
545	0.15895
546	0.1621
547	0.1614
548	0.15843
549	0.15821
550	0.16149
551	0.16448
552	0.16486
553	0.16439
554	0.16611
555	0.17054
556	0.17411
557	0.17452
558	0.17515
559	0.17979
560	0.18655
561	0.19071
562	0.1921
563	0.1953
564	0.20243
565	0.2095
566	0.21231
567	0.21299
568	0.21691
569	0.22443
570	0.23058
571	0.23274
572	0.23402
573	0.23876
574	0.2464
575	0.25183
576	0.25297
577	0.25415
578	0.2588
579	0.26441
580	0.26713
581	0.2665
582	0.26535
583	0.26566
584	0.26629
585	0.26472
586	0.26073
587	0.25744
588	0.25709
589	0.25768
590	0.2558
591	0.25096
592	0.24636
593	0.24451
594	0.24293
595	0.23847
596	0.23233
597	0.22785
598	0.22597
599	0.22515
600	0.22333
601	0.22089
602	0.22041
603	0.22216
604	0.22325
605	0.22204
606	0.22063
607	0.22155
608	0.2241
609	0.22473
610	0.22171
611	0.21776
612	0.21573
613	0.21444
614	0.2105
615	0.20341
616	0.19629
617	0.1916
618	0.18805
619	0.18259
620	0.17518
621	0.16921
622	0.16677
623	0.16528
624	0.16096
625	0.15474
626	0.15106
627	0.15146
628	0.1522
629	0.14986
630	0.14612
631	0.14499
632	0.14698
633	0.14786
634	0.14483
635	0.14087
636	0.14047
637	0.14283
638	0.14318
639	0.13981
640	0.13689
641	0.13849
642	0.14232
643	0.14297
644	0.13979
645	0.13784
646	0.1404
647	0.14366
648	0.14191
649	0.13701
650	0.13629
651	0.14071
652	0.14359
653	0.14075
654	0.13617
655	0.1359
656	0.13915
657	0.13986
658	0.13618
659	0.13315
660	0.13499
661	0.13881
662	0.13877
663	0.1347
664	0.13264
665	0.13601
666	0.14135
667	0.14232
668	0.13119
669	0.1247
670	0.13026
671	0.13494
672	0.13268
673	0.1277
674	0.1276
675	0.13267
676	0.13511
677	0.13046
678	0.12497
679	0.12643
680	0.13191
681	0.13238
682	0.12714
683	0.12432
684	0.12831
685	0.13349
686	0.13274
687	0.12773
688	0.12604
689	0.13003
690	0.13334
691	0.13108
692	0.12758
693	0.12971
694	0.13674
695	0.1412
696	0.13992
697	0.13911
698	0.14553
699	0.15601
700	0.16169
701	0.16132
702	0.16258
703	0.17021
704	0.17864
705	0.17995
706	0.1758
707	0.17412
708	0.17702
709	0.17805
710	0.17192
711	0.16246
712	0.1571
713	0.15607
714	0.15256
715	0.14352
716	0.13475
717	0.13233
718	0.13346
719	0.13047
720	0.12213
721	0.11583
722	0.1161
723	0.1177
724	0.11407
725	0.10664
726	0.10284
727	0.10533
728	0.10767
729	0.10347
730	0.09645
731	0.09495
732	0.09924
733	0.10131
734	0.09762
735	0.0937
736	0.09562
737	0.10141
738	0.10424
739	0.1024
740	0.10179
741	0.10736
742	0.11622
743	0.12186
744	0.12373
745	0.12707
746	0.13404
747	0.14049
748	0.1427
749	0.14343
750	0.14835
751	0.15814
752	0.16709
753	0.17136
754	0.17424
755	0.18075
756	0.18915
757	0.19296
758	0.18976
759	0.18496
760	0.18378
761	0.18386
762	0.17926
763	0.16966
764	0.16063
765	0.15548
766	0.15099
767	0.14298
768	0.13274
769	0.12541
770	0.12278
771	0.12075
772	0.11543
773	0.1089
774	0.10562
775	0.10571
776	0.10464
777	0.09929
778	0.09169
779	0.08605
780	0.08323
781	0.07959
782	0.07299
783	0.06673
784	0.06454
785	0.06497
786	0.06315
787	0.058
788	0.0533
789	0.05187
790	0.05177
791	0.04919
792	0.0441
793	0.0404
794	0.04036
795	0.04132
796	0.03949
797	0.0357
798	0.03352
799	0.03384
800	0.03399
801	0.03152
802	0.02751
803	0.02515
804	0.02513
805	0.02458
806	0.0215
807	0.01798
808	0.01696
809	0.01805
810	0.01798
811	0.01526
812	0.01231
813	0.01254
814	0.01532
815	0.01681
816	0.0158
817	0.01497
818	0.01662
819	0.01927
820	0.01951
821	0.01692
822	0.01473
823	0.01517
824	0.01647
825	0.01561
826	0.01282
827	0.01154
828	0.01389
829	0.01766
830	0.01936
831	0.01953
832	0.02201
833	0.02814
834	0.03471
835	0.03832
836	0.03999
837	0.04394
838	0.05106
839	0.05713
840	0.05883
841	0.05889
842	0.06132
843	0.06586
844	0.06859
845	0.06768
846	0.06631
847	0.06837
848	0.073
849	0.07593
850	0.07593
851	0.07668
852	0.08097
853	0.08666
854	0.08963
855	0.08993
856	0.09197
857	0.09789
858	0.10394
859	0.10546
860	0.10341
861	0.10243
862	0.10393
863	0.10406
864	0.09915
865	0.09161
866	0.08717
867	0.08629
868	0.0836
869	0.07637
870	0.06835
871	0.06463
872	0.06395
873	0.06032
874	0.05211
875	0.04451
876	0.04194
877	0.04206
878	0.03974
879	0.03529
880	0.03442
881	0.0402
882	0.04909
883	0.05611
884	0.06095
885	0.06628
886	0.07132
887	0.07031
888	0.06003
889	0.0461
890	0.03717
891	0.0344
892	0.03146
893	0.02445
894	0.0177
895	0.01643
896	0.01825
897	0.0171
898	0.01215
899	0.00885
900	0.01095
901	0.01527
902	0.01666
903	0.01566
904	0.01776
905	0.02509
906	0.03327
907	0.03786
908	0.04049
909	0.04624
910	0.05595
911	0.06462
912	0.06877
913	0.0717
914	0.07854
915	0.0887
916	0.09692
917	0.10101
918	0.10509
919	0.11359
920	0.1245
921	0.1318
922	0.13499
923	0.13969
924	0.1493
925	0.16055
926	0.16859
927	0.17414
928	0.182
929	0.19378
930	0.20574
931	0.21402
932	0.21982
933	0.22685
934	0.23547
935	0.24212
936	0.24511
937	0.24731
938	0.25213
939	0.25881
940	0.26346
941	0.26455
942	0.26482
943	0.26594
944	0.2648
945	0.25669
946	0.24133
947	0.22378
948	0.20846
949	0.19449
950	0.17992
951	0.16646
952	0.15761
953	0.15364
954	0.15132
955	0.14851
956	0.14693
957	0.14904
958	0.15415
959	0.15915
960	0.16298
961	0.1678
962	0.17555
963	0.18508
964	0.19385
965	0.20164
966	0.21066
967	0.22231
968	0.23494
969	0.24629
970	0.2571
971	0.27005
972	0.28575
973	0.30179
974	0.31632
975	0.33082
976	0.34782
977	0.36674
978	0.38524
979	0.40266
980	0.42063
981	0.44053
982	0.46141
983	0.48149
984	0.50085
985	0.52101
986	0.54213
987	0.56272
988	0.58212
989	0.60159
990	0.62238
991	0.64364
992	0.66339
993	0.68066
994	0.69584
995	0.70939
996	0.72061
997	0.72873
998	0.73438
999	0.73918
1000	0.74372
1001	0.74739
1002	0.74978
1003	0.75184
1004	0.75473
1005	0.75864
1006	0.76312
1007	0.76864
1008	0.77641
1009	0.78711
1010	0.80012
1011	0.81419
1012	0.82879
1013	0.84426
1014	0.86041
1015	0.87607
1016	0.89086
1017	0.90584
1018	0.92177
1019	0.93779
1020	0.95238
1021	0.965
1022	0.97624
1023	0.98632
1024	0.99429
1025	0.99893
1026	1
1027	0.99841
1028	0.99479
1029	0.98849
1030	0.97959
1031	0.96956
1032	0.95967
1033	0.9499
1034	0.93967
1035	0.92915
1036	0.91961
1037	0.91194
1038	0.90536
1039	0.89901
1040	0.89316
1041	0.88849
1042	0.88446
1043	0.87964
1044	0.87337
1045	0.86642
1046	0.8596
1047	0.85258
1048	0.84474
1049	0.83643
1050	0.82893
1051	0.82303
1052	0.81805
1053	0.81262
1054	0.80658
1055	0.80076
1056	0.79512
1057	0.78806
1058	0.77876
1059	0.76788
1060	0.75658
1061	0.7449
1062	0.73183
1063	0.71705
1064	0.70177
1065	0.68704
1066	0.67321
1067	0.66058
1068	0.65071
1069	0.64629
1070	0.6493
1071	0.6596
1072	0.67582
1073	0.69689
1074	0.7214
1075	0.7464
1076	0.76814
1077	0.78446
1078	0.79511
1079	0.80081
1080	0.80188
1081	0.7974
1082	0.78708
1083	0.77276
1084	0.75678
1085	0.73963
1086	0.72094
1087	0.70136
1088	0.6826
1089	0.66566
1090	0.64994
1091	0.63503
1092	0.62161
1093	0.61068
1094	0.6021
1095	0.59495
1096	0.58912
1097	0.58547
1098	0.58422
1099	0.58423
1100	0.58419
1101	0.58376
1102	0.58354
1103	0.58357
1104	0.58275
1105	0.57982
1106	0.57491
1107	0.56959
1108	0.56509
1109	0.56066
1110	0.55526
1111	0.54964
1112	0.54481
1113	0.54065
1114	0.53614
1115	0.53048
1116	0.52416
1117	0.51797
1118	0.51178
1119	0.50468
1120	0.49682
1121	0.48925
1122	0.48258
1123	0.47623
1124	0.46948
1125	0.46258
1126	0.45636
1127	0.45078
1128	0.44469
1129	0.43737
1130	0.42977
1131	0.42285
1132	0.41639
1133	0.40973
1134	0.40313
1135	0.39799
1136	0.39517
1137	0.39415
1138	0.39416
1139	0.39558
1140	0.3996
1141	0.40656
1142	0.41542
1143	0.42527
1144	0.43665
1145	0.45024
1146	0.46558
1147	0.48152
1148	0.49741
1149	0.51368
1150	0.53073
1151	0.54771
1152	0.56346
1153	0.57775
1154	0.59093
1155	0.60283
1156	0.61216
1157	0.61774
1158	0.61997
1159	0.61982
1160	0.61707
1161	0.61057
1162	0.59993
1163	0.58665
1164	0.57231
1165	0.55658
1166	0.53869
1167	0.51925
1168	0.4998
1169	0.48094
1170	0.46215
1171	0.44305
1172	0.42459
1173	0.40805
1174	0.39311
1175	0.37834
1176	0.36331
1177	0.34903
1178	0.33652
1179	0.32537
1180	0.31426
1181	0.30323
1182	0.29374
1183	0.28653
1184	0.28042
1185	0.27401
1186	0.26793
1187	0.26391
1188	0.26219
1189	0.26093
1190	0.25866
1191	0.25603
1192	0.25463
1193	0.25408
1194	0.2526
1195	0.2497
1196	0.2471
1197	0.2465
1198	0.24722
1199	0.24747
1200	0.24721
1201	0.24832
1202	0.25169
1203	0.25614
1204	0.26009
1205	0.26365
1206	0.26821
1207	0.27383
1208	0.27835
1209	0.28011
1210	0.28013
1211	0.28034
1212	0.28066
1213	0.27914
1214	0.27514
1215	0.2704
1216	0.26694
1217	0.26422
1218	0.25988
1219	0.25363
1220	0.24828
1221	0.24568
1222	0.24447
1223	0.24248
1224	0.24007
1225	0.23953
1226	0.24174
1227	0.24485
1228	0.24699
1229	0.24898
1230	0.25282
1231	0.2585
1232	0.26335
1233	0.26521
1234	0.26516
1235	0.26576
1236	0.26734
1237	0.26793
1238	0.26682
1239	0.26592
1240	0.2669
1241	0.26887
1242	0.26973
1243	0.26924
1244	0.26972
1245	0.27266
1246	0.27625
1247	0.27809
1248	0.27834
1249	0.27868
1250	0.27945
1251	0.27892
1252	0.27609
1253	0.2725
1254	0.27058
1255	0.27044
1256	0.27001
1257	0.26806
1258	0.26577
1259	0.26425
1260	0.26243
1261	0.2586
1262	0.25302
1263	0.24781
1264	0.24437
1265	0.24174
1266	0.23813
1267	0.23362
1268	0.22994
1269	0.22777
1270	0.22562
1271	0.22178
1272	0.21668
1273	0.21273
1274	0.21038
1275	0.20783
1276	0.20381
1277	0.19945
1278	0.19636
1279	0.19467
1280	0.19287
1281	0.1901
1282	0.18755
1283	0.1866
1284	0.18681
1285	0.18677
1286	0.18622
1287	0.18642
1288	0.18834
1289	0.19139
1290	0.19434
1291	0.19718
1292	0.20113
1293	0.20672
1294	0.21288
1295	0.21841
1296	0.22351
1297	0.22925
1298	0.23573
1299	0.24148
1300	0.24549
1301	0.24835
1302	0.25115
1303	0.25376
1304	0.25515
1305	0.25494
1306	0.25398
1307	0.25324
1308	0.25267
1309	0.25169
1310	0.25034
1311	0.24957
1312	0.24996
1313	0.25125
1314	0.25297
1315	0.25523
1316	0.2587
1317	0.26386
1318	0.27022
1319	0.27692
1320	0.28376
1321	0.29127
1322	0.29982
1323	0.30903
1324	0.31832
1325	0.32738
1326	0.33632
1327	0.34496
1328	0.35271
1329	0.35906
1330	0.3637
1331	0.36665
1332	0.36797
1333	0.368
1334	0.36694
1335	0.36495
1336	0.36191
1337	0.35817
1338	0.35436
1339	0.34983
1340	0.34376
1341	0.33752
1342	0.33276
1343	0.32886
1344	0.32479
1345	0.32045
1346	0.31628
1347	0.31299
1348	0.3107
1349	0.30846
1350	0.30544
1351	0.30204
1352	0.29871
1353	0.29571
1354	0.29223
1355	0.2877
1356	0.28348
1357	0.28073
1358	0.27897
1359	0.27769
1360	0.27675
1361	0.27655
1362	0.27752
1363	0.27884
1364	0.28008
1365	0.28202
1366	0.28526
1367	0.28994
1368	0.29528
1369	0.30022
1370	0.30495
1371	0.31059
1372	0.3173
1373	0.32372
1374	0.32793
1375	0.32965
1376	0.33085
1377	0.33186
1378	0.33125
1379	0.32867
1380	0.32602
1381	0.32517
1382	0.32594
1383	0.32672
1384	0.32703
1385	0.32807
1386	0.33053
1387	0.33269
1388	0.33285
1389	0.33244
1390	0.33299
1391	0.33459
1392	0.33679
1393	0.33868
1394	0.33943
1395	0.3398
1396	0.34155
1397	0.34422
1398	0.3458
1399	0.34558
1400	0.34581
1401	0.34736
1402	0.34827
1403	0.34781
1404	0.34668
1405	0.34533
1406	0.34471
1407	0.34444
1408	0.3435
1409	0.3432
1410	0.3447
1411	0.34616
1412	0.34472
1413	0.34047
1414	0.33621
1415	0.33349
1416	0.33147
1417	0.32872
1418	0.32502
1419	0.31936
1420	0.31335
1421	0.31025
1422	0.30814
1423	0.30488
1424	0.30081
1425	0.29782
1426	0.29563
1427	0.29277
1428	0.29017
1429	0.28853
1430	0.28646
1431	0.28348
1432	0.28039
1433	0.27757
1434	0.27677
1435	0.27836
1436	0.27799
1437	0.27169
1438	0.26841
1439	0.26985
1440	0.27155
1441	0.27226
1442	0.27249
1443	0.27358
1444	0.2757
1445	0.27747
1446	0.278
1447	0.27727
1448	0.27571
1449	0.27483
1450	0.27472
1451	0.27391
1452	0.27252
1453	0.27246
1454	0.27422
1455	0.27653
1456	0.27727
1457	0.2745
1458	0.2702
1459	0.26659
1460	0.26395
1461	0.26216
1462	0.26123
1463	0.2616
1464	0.26117
1465	0.25568
1466	0.24861
1467	0.24482
1468	0.2415
1469	0.23746
1470	0.23371
1471	0.23034
1472	0.22451
1473	0.21472
1474	0.20656
1475	0.20232
1476	0.1979
1477	0.19386
1478	0.19286
1479	0.19371
1480	0.19462
1481	0.19436
1482	0.19259
1483	0.18982
1484	0.18602
1485	0.18187
1486	0.17783
1487	0.17214
1488	0.16574
1489	0.16082
1490	0.15189
1491	0.14081
1492	0.13567
1493	0.13292
1494	0.13074
1495	0.12907
1496	0.12608
1497	0.12238
1498	0.12004
1499	0.11689
1500	0.11413
1501	0.11325
1502	0.11269
1503	0.11287
1504	0.11494
1505	0.11871
1506	0.12132
1507	0.1176
1508	0.11348
1509	0.11207
1510	0.11221
1511	0.11331
1512	0.11392
1513	0.1145
1514	0.11672
1515	0.12025
1516	0.12379
1517	0.12466
1518	0.12538
1519	0.12951
1520	0.13475
1521	0.13898
1522	0.14098
1523	0.14411
1524	0.14881
1525	0.15318
1526	0.15662
1527	0.1592
1528	0.16043
1529	0.16057
1530	0.1607
1531	0.16096
1532	0.16104
1533	0.15894
1534	0.15371
1535	0.15025
1536	0.14989
1537	0.15157
1538	0.1549
1539	0.15673
1540	0.15143
1541	0.14798
1542	0.14556
1543	0.14365
1544	0.14251
1545	0.13812
1546	0.13343
1547	0.13263
1548	0.13355
1549	0.13362
1550	0.13108
1551	0.12871
1552	0.12998
1553	0.13224
1554	0.1317
1555	0.12949
1556	0.13061
1557	0.13494
1558	0.13904
1559	0.1329
1560	0.1232
1561	0.12126
1562	0.12282
1563	0.12385
1564	0.12305
1565	0.11974
1566	0.11698
1567	0.11702
1568	0.11847
1569	0.11727
1570	0.11008
1571	0.10683
1572	0.10687
1573	0.10689
1574	0.10778
1575	0.1095
1576	0.10865
1577	0.10489
1578	0.10396
1579	0.10473
1580	0.10622
1581	0.10855
1582	0.11127
1583	0.11403
1584	0.11719
1585	0.12115
1586	0.12557
1587	0.12955
1588	0.13286
1589	0.13605
1590	0.13968
1591	0.14346
1592	0.14682
1593	0.14978
1594	0.15278
1595	0.1558
1596	0.15866
1597	0.16091
1598	0.1628
1599	0.1651
1600	0.16794
1601	0.17066
1602	0.17273
1603	0.17443
1604	0.17655
1605	0.17947
1606	0.18258
1607	0.18518
1608	0.18775
1609	0.19067
1610	0.19363
1611	0.19634
1612	0.19883
1613	0.20159
1614	0.20554
1615	0.21057
1616	0.2139
1617	0.21297
1618	0.21308
1619	0.21554
1620	0.21829
1621	0.22126
1622	0.2247
1623	0.22703
1624	0.22761
1625	0.22971
1626	0.23297
1627	0.23591
1628	0.23784
1629	0.23981
1630	0.24212
1631	0.24408
1632	0.2461
1633	0.24927
1634	0.2532
1635	0.25428
1636	0.25078
1637	0.24772
1638	0.24682
1639	0.24662
1640	0.24635
1641	0.24566
1642	0.24537
1643	0.24622
1644	0.24847
1645	0.25133
1646	0.25303
1647	0.25247
1648	0.25187
1649	0.25421
1650	0.25986
1651	0.26751
1652	0.27632
1653	0.28718
1654	0.29443
1655	0.29588
1656	0.29574
1657	0.29354
1658	0.28981
1659	0.28622
1660	0.2843
1661	0.28448
1662	0.28487
1663	0.28337
1664	0.28198
1665	0.28243
1666	0.284
1667	0.28665
1668	0.28925
1669	0.289
1670	0.28723
1671	0.28622
1672	0.28554
1673	0.28628
1674	0.2877
1675	0.28564
1676	0.28151
1677	0.28133
1678	0.2823
1679	0.28266
1680	0.28151
1681	0.2805
1682	0.28239
1683	0.28517
1684	0.28133
1685	0.26905
1686	0.26624
1687	0.26656
1688	0.26503
1689	0.26201
1690	0.25877
1691	0.25603
1692	0.25427
1693	0.25396
1694	0.25543
1695	0.25676
1696	0.25498
1697	0.25482
1698	0.2584
1699	0.26233
1700	0.25823
1701	0.24846
1702	0.24767
1703	0.2484
1704	0.24717
1705	0.24476
1706	0.24193
1707	0.23931
1708	0.23985
1709	0.24279
1710	0.24625
1711	0.25033
1712	0.256
1713	0.26379
1714	0.27357
1715	0.28506
1716	0.29619
1717	0.30454
1718	0.30853
1719	0.30966
1720	0.31133
1721	0.31355
1722	0.3157
1723	0.31709
1724	0.31694
1725	0.31546
1726	0.31294
1727	0.31003
1728	0.30809
1729	0.30656
1730	0.30312
1731	0.30075
1732	0.30239
1733	0.30456
1734	0.29912
1735	0.29044
1736	0.28988
1737	0.29094
1738	0.29172
1739	0.29091
1740	0.28689
1741	0.28394
1742	0.2842
1743	0.28359
1744	0.2815
1745	0.28057
1746	0.28125
1747	0.28228
1748	0.28246
1749	0.28216
1750	0.28218
1751	0.28102
1752	0.2797
1753	0.2805
1754	0.28256
1755	0.28523
1756	0.28779
1757	0.28933
1758	0.29117
1759	0.29444
1760	0.29888
1761	0.30303
1762	0.30542
1763	0.30754
1764	0.31052
1765	0.31399
1766	0.31844
1767	0.32384
1768	0.33004
1769	0.33727
1770	0.34392
1771	0.34651
1772	0.33964
1773	0.32734
1774	0.32073
1775	0.31903
1776	0.31844
1777	0.31957
1778	0.3229
1779	0.32787
1780	0.33369
1781	0.33953
1782	0.34502
1783	0.34999
1784	0.35376
1785	0.3555
1786	0.35577
1787	0.35516
1788	0.3535
1789	0.35168
1790	0.34984
1791	0.34654
1792	0.33936
1793	0.32897
1794	0.32174
1795	0.31646
1796	0.30854
1797	0.29959
1798	0.29236
1799	0.28447
1800	0.27434
1801	0.26409
1802	0.25379
1803	0.24344
1804	0.23442
1805	0.22589
1806	0.21716
1807	0.20825
1808	0.19955
1809	0.1922
1810	0.18479
1811	0.17543
1812	0.16665
1813	0.15978
1814	0.15382
1815	0.14832
1816	0.1429
1817	0.13747
1818	0.13227
1819	0.12784
1820	0.12391
1821	0.12012
1822	0.1167
1823	0.11409
1824	0.1118
1825	0.10784
1826	0.10329
1827	0.10125
1828	0.10106
1829	0.09949
1830	0.09459
1831	0.09009
1832	0.08804
1833	0.08639
1834	0.08448
1835	0.08295
1836	0.08152
1837	0.07948
1838	0.07726
1839	0.07557
1840	0.07429
1841	0.07338
1842	0.07342
1843	0.07367
1844	0.07113
1845	0.06686
1846	0.06563
1847	0.06518
1848	0.0636
1849	0.06193
1850	0.06094
1851	0.06007
1852	0.05901
1853	0.05786
1854	0.05684
1855	0.05601
1856	0.0552
1857	0.05438
1858	0.05354
1859	0.05275
1860	0.05202
1861	0.05121
1862	0.05033
1863	0.04957
1864	0.04926
1865	0.04945
1866	0.04989
1867	0.05028
1868	0.04993
1869	0.04766
1870	0.04515
1871	0.04432
1872	0.04406
1873	0.04373
1874	0.04342
1875	0.04302
1876	0.04245
1877	0.04185
1878	0.04145
1879	0.04109
1880	0.04054
1881	0.03991
1882	0.03948
1883	0.03934
1884	0.03915
1885	0.03852
1886	0.03774
1887	0.03757
1888	0.03814
1889	0.03779
1890	0.03592
1891	0.03462
1892	0.03439
1893	0.03472
1894	0.03497
1895	0.03408
1896	0.03268
1897	0.03217
1898	0.03218
1899	0.03194
1900	0.03132
1901	0.03066
1902	0.03041
1903	0.03041
1904	0.03014
1905	0.02951
1906	0.02915
1907	0.02927
1908	0.02943
1909	0.02911
1910	0.02814
1911	0.02733
1912	0.02724
1913	0.02723
1914	0.02679
1915	0.02644
1916	0.02705
1917	0.02778
1918	0.02669
1919	0.02502
1920	0.02484
1921	0.0257
1922	0.0263
1923	0.02538
1924	0.02401
1925	0.02356
1926	0.02366
1927	0.02387
1928	0.02382
1929	0.0233
1930	0.02286
1931	0.02295
1932	0.02325
1933	0.02309
1934	0.02261
1935	0.02232
1936	0.02242
1937	0.02251
1938	0.02225
1939	0.02191
1940	0.02229
1941	0.02332
1942	0.02324
1943	0.02168
1944	0.02094
1945	0.02124
1946	0.02143
1947	0.02113
1948	0.0206
1949	0.02019
1950	0.02032
1951	0.02064
1952	0.02052
1953	0.02009
1954	0.01974
1955	0.01974
1956	0.01983
1957	0.01966
1958	0.01921
1959	0.01899
1960	0.01919
1961	0.01931
1962	0.01897
1963	0.01857
1964	0.01867
1965	0.01927
1966	0.01963
1967	0.01896
1968	0.01794
1969	0.01776
1970	0.01811
1971	0.0182
1972	0.01783
1973	0.01747
1974	0.01754
1975	0.01779
1976	0.01768
1977	0.0172
1978	0.01693
1979	0.01704
1980	0.01723
1981	0.01701
1982	0.01653
1983	0.0163
1984	0.01644
1985	0.01665
1986	0.01664
1987	0.0165
1988	0.01637
1989	0.01647
1990	0.01696
1991	0.0171
1992	0.01635
1993	0.01573
1994	0.01583
1995	0.01592
1996	0.01572
1997	0.01561
1998	0.01574
1999	0.01589
2000	0.01575
2001	0.01542
2002	0.01533
2003	0.01552
2004	0.01571
2005	0.01559
2006	0.01542
2007	0.01552
2008	0.01577
2009	0.01592
2010	0.01587
2011	0.01581
2012	0.01596
2013	0.01632
2014	0.01666
2015	0.01696
2016	0.01714
2017	0.01717
2018	0.01719
2019	0.01726
2020	0.01735
2021	0.01763
2022	0.01805
2023	0.01833
2024	0.01836
2025	0.0185
2026	0.01878
2027	0.01915
2028	0.01943
2029	0.01958
2030	0.01968
2031	0.01992
2032	0.02029
2033	0.02053
2034	0.02063
2035	0.02074
2036	0.02097
2037	0.0212
2038	0.02131
2039	0.0215
2040	0.0218
2041	0.02197
2042	0.022
2043	0.02203
2044	0.02212
2045	0.02231
2046	0.02258
2047	0.02276
2048	0.02275
2049	0.02278
2050	0.02296
2051	0.02317
2052	0.02326
2053	0.02325
2054	0.02329
2055	0.02342
2056	0.02359
2057	0.02362
2058	0.02362
2059	0.02377
2060	0.02395
2061	0.02403
2062	0.02405
2063	0.02418
2064	0.02437
2065	0.02435
2066	0.02422
2067	0.02416
2068	0.02425
2069	0.02445
2070	0.02465
2071	0.02468
2072	0.02457
2073	0.02455
2074	0.02464
2075	0.02472
2076	0.02475
2077	0.02472
2078	0.02478
2079	0.02488
2080	0.02492
2081	0.02483
2082	0.02479
2083	0.02488
2084	0.02501
2085	0.02504
2086	0.02501
2087	0.02505
2088	0.02519
2089	0.0253
2090	0.02517
2091	0.02501
2092	0.02502
2093	0.02512
2094	0.02511
2095	0.02505
2096	0.02507
2097	0.02521
2098	0.02532
2099	0.02529
2100	0.02519
2101	0.02517
2102	0.02526
2103	0.02533
2104	0.02528
2105	0.02523
2106	0.02533
2107	0.02544
2108	0.02544
2109	0.02531
2110	0.02527
2111	0.02543
2112	0.0256
2113	0.02562
2114	0.02559
2115	0.02557
2116	0.02568
2117	0.02579
2118	0.02577
2119	0.0257
2120	0.02577
2121	0.02599
2122	0.02612
2123	0.02607
2124	0.02603
2125	0.02617
2126	0.0264
2127	0.02644
2128	0.02627
2129	0.0262
2130	0.02639
2131	0.02661
2132	0.02662
2133	0.02656
2134	0.02661
2135	0.02681
2136	0.02696
2137	0.02694
2138	0.02689
2139	0.02697
2140	0.02708
2141	0.02707
2142	0.02698
2143	0.02697
2144	0.02715
2145	0.02738
2146	0.02753
2147	0.02751
2148	0.02749
2149	0.02767
2150	0.02792
2151	0.02793
2152	0.02773
2153	0.02767
2154	0.02785
2155	0.028
2156	0.02789
2157	0.02768
2158	0.02766
2159	0.02783
2160	0.02796
2161	0.0278
2162	0.02747
2163	0.0274
2164	0.02751
2165	0.02751
2166	0.02721
2167	0.02702
2168	0.02706
2169	0.02716
2170	0.02702
2171	0.0267
2172	0.02646
2173	0.02649
2174	0.02656
2175	0.02639
2176	0.02607
2177	0.02594
2178	0.02607
2179	0.02611
2180	0.02587
2181	0.0256
2182	0.02558
2183	0.02568
2184	0.02562
2185	0.0253
2186	0.02508
2187	0.02518
2188	0.02543
2189	0.02534
2190	0.02489
2191	0.02459
2192	0.02471
2193	0.02481
2194	0.02466
2195	0.02435
2196	0.02417
2197	0.0242
2198	0.02423
2199	0.02402
2200	0.02365
2201	0.02354
2202	0.02372
2203	0.02378
2204	0.02355
2205	0.02329
2206	0.02325
2207	0.02333
2208	0.0232
2209	0.02281
2210	0.02251
2211	0.02256
2212	0.02272
2213	0.02266
2214	0.02236
2215	0.02218
2216	0.02228
2217	0.02241
2218	0.0223
2219	0.02198
2220	0.02185
2221	0.02201
2222	0.02208
2223	0.02186
2224	0.02162
2225	0.0216
2226	0.0218
2227	0.02193
2228	0.0218
2229	0.0216
2230	0.02161
2231	0.02176
2232	0.02178
2233	0.0216
2234	0.02143
2235	0.02145
2236	0.02155
2237	0.02148
2238	0.02129
2239	0.02123
2240	0.02136
2241	0.02145
2242	0.02132
2243	0.02108
2244	0.02101
2245	0.02114
2246	0.02124
2247	0.02114
2248	0.02097
2249	0.02097
2250	0.02106
2251	0.02107
2252	0.02094
2253	0.02075
2254	0.0207
2255	0.02073
2256	0.02062
2257	0.02043
2258	0.02031
2259	0.02032
2260	0.02037
2261	0.02035
2262	0.02025
2263	0.02016
2264	0.02009
2265	0.01997
2266	0.01978
2267	0.0196
2268	0.01956
2269	0.01961
2270	0.01952
2271	0.01929
2272	0.01911
2273	0.01907
2274	0.0191
2275	0.01902
2276	0.01892
2277	0.01882
2278	0.01878
2279	0.01881
2280	0.0188
2281	0.01877
2282	0.01875
2283	0.01879
2284	0.01886
2285	0.01881
2286	0.01868
2287	0.01853
2288	0.01841
2289	0.01819
2290	0.01793
2291	0.0178
2292	0.01778
2293	0.01774
2294	0.01756
2295	0.01741
2296	0.01739
2297	0.01733
2298	0.01719
2299	0.01706
2300	0.01692
2301	0.01688
2302	0.01684
2303	0.01659
2304	0.0164
2305	0.01629
2306	0.01613
2307	0.0159
2308	0.01559
2309	0.01531
2310	0.01504
2311	0.01473
2312	0.01438
2313	0.01408
2314	0.01392
2315	0.01399
2316	0.01404
2317	0.01376
2318	0.01315
2319	0.01242
2320	0.01179
2321	0.01123
2322	0.01076
2323	0.0102
2324	0.00946
2325	0.0091
2326	0.00905
2327	0.00861
2328	0.0079
2329	0.00738
2330	0.0069
2331	0.00653
2332	0.00652
2333	0.00673
2334	0.00699
2335	0.007
2336	0.00636
2337	0.00569
2338	0.0059
2339	0.00621
2340	0.00592
2341	0.00541
2342	0.00498
2343	0.00459
2344	0.00433
2345	0.0045
2346	0.00524
2347	0.00703
2348	0.01052
2349	0.01399
2350	0.01506
2351	0.01371
2352	0.01154
2353	0.00958
2354	0.00788
2355	0.00601
2356	0.00402
2357	0.00233
2358	0.00135
2359	7.61733E-4
2360	2.02082E-4
2361	0
2362	2.4488E-4
2363	5.39423E-4
2364	0.00113
2365	0.00187
2366	0.0024
2367	0.00293
2368	0.00375
2369	0.00472
2370	0.0058
2371	0.00713
2372	0.00856
2373	0.00985
2374	0.01095
2375	0.01184
2376	0.01255
2377	0.01324
2378	0.01406
2379	0.0149
2380	0.01563
2381	0.01637
2382	0.01714
2383	0.01779
2384	0.01834
2385	0.01868
2386	0.01892
2387	0.01907
2388	0.01927
2389	0.01929
2390	0.0192
2391	0.01914
2392	0.0191
2393	0.01896
2394	0.01874
2395	0.01858
2396	0.01849
2397	0.01841
2398	0.01832
2399	0.0182
2400	0.01811
2401	0.01803
2402	0.01795
2403	0.01785
2404	0.01778
2405	0.01775
2406	0.01769
2407	0.01763
2408	0.01764
2409	0.01765
2410	0.01758
2411	0.01743
2412	0.01726
2413	0.01711
2414	0.01708
2415	0.01712
2416	0.01709
2417	0.01699
2418	0.01688
2419	0.01682
2420	0.01684
2421	0.01686
2422	0.01681
2423	0.01676
2424	0.01668
2425	0.01661
2426	0.01661
2427	0.0167
2428	0.01673
2429	0.01668
2430	0.01661
2431	0.01664
2432	0.01667
2433	0.01672
2434	0.01673
2435	0.01674
2436	0.01679
2437	0.01686
2438	0.0169
2439	0.01689
2440	0.01689
2441	0.01692
2442	0.01703
2443	0.01711
2444	0.01708
2445	0.01706
2446	0.01714
2447	0.01722
2448	0.01727
2449	0.01728
2450	0.01732
2451	0.0174
2452	0.01746
2453	0.01746
2454	0.01741
2455	0.01743
2456	0.01754
2457	0.01767
2458	0.0177
2459	0.01768
2460	0.01775
2461	0.01783
2462	0.0179
2463	0.01795
2464	0.01785
2465	0.01777
2466	0.01782
2467	0.01785
2468	0.01781
2469	0.01774
2470	0.01772
2471	0.01777
2472	0.01781
2473	0.0178
2474	0.01781
2475	0.01783
2476	0.01781
2477	0.01772
2478	0.01761
2479	0.01761
2480	0.01773
2481	0.01783
2482	0.01777
2483	0.01759
2484	0.01751
2485	0.0176
2486	0.0177
2487	0.01762
2488	0.01747
2489	0.01747
2490	0.01757
2491	0.01759
2492	0.01745
2493	0.01732
2494	0.01733
2495	0.01739
2496	0.01736
2497	0.01723
2498	0.01706
2499	0.01702
2500	0.01704
2501	0.01699
2502	0.01678
2503	0.01661
2504	0.01664
2505	0.01676
2506	0.01671
2507	0.01646
2508	0.01627
2509	0.01628
2510	0.01636
2511	0.01628
2512	0.01613
2513	0.01603
2514	0.01605
2515	0.016
2516	0.01582
2517	0.01568
2518	0.01577
2519	0.01595
2520	0.01603
2521	0.01589
2522	0.01572
2523	0.01565
2524	0.01567
2525	0.01559
2526	0.01539
2527	0.01529
2528	0.01542
2529	0.01562
2530	0.01568
2531	0.01559
2532	0.01551
2533	0.01557
2534	0.01562
2535	0.01549
2536	0.01536
2537	0.01547
2538	0.01576
2539	0.01592
2540	0.01579
2541	0.01557
2542	0.0156
2543	0.0158
2544	0.01578
2545	0.01562
2546	0.01561
2547	0.01584
2548	0.01609
2549	0.01613
2550	0.01599
2551	0.01599
2552	0.01617
2553	0.01631
2554	0.01626
2555	0.01614
2556	0.01615
2557	0.01622
2558	0.01616
2559	0.01595
2560	0.0158
2561	0.01589
2562	0.01608
2563	0.01613
2564	0.01602
2565	0.01583
2566	0.01579
2567	0.01595
2568	0.01605
2569	0.01599
2570	0.0159
2571	0.01598
2572	0.01616
2573	0.01619
2574	0.01603
2575	0.01597
2576	0.01614
2577	0.01631
2578	0.01631
2579	0.01616
2580	0.01614
2581	0.0163
2582	0.01638
2583	0.01632
2584	0.01619
2585	0.01618
2586	0.01631
2587	0.01642
2588	0.01633
2589	0.0162
2590	0.01623
2591	0.01637
2592	0.01637
2593	0.01615
2594	0.01594
2595	0.016
2596	0.01622
2597	0.01626
2598	0.01617
2599	0.0161
2600	0.01616
2601	0.01628
2602	0.01628
2603	0.01625
2604	0.01627
2605	0.01644
2606	0.01661
2607	0.01664
2608	0.01658
2609	0.01659
2610	0.01677
2611	0.01695
2612	0.017
2613	0.017
2614	0.01715
2615	0.01747
2616	0.01779
2617	0.01796
2618	0.01803
2619	0.01818
2620	0.01848
2621	0.01871
2622	0.01882
2623	0.01896
2624	0.01938
2625	0.01996
2626	0.02052
2627	0.0208
2628	0.02093
2629	0.02117
2630	0.02153
2631	0.02184
2632	0.02206
2633	0.02238
2634	0.02288
2635	0.02346
2636	0.02395
2637	0.02431
2638	0.02462
2639	0.02495
2640	0.0253
2641	0.02557
2642	0.02571
2643	0.0259
2644	0.02621
2645	0.02655
2646	0.02687
2647	0.02712
2648	0.02736
2649	0.02774
2650	0.02817
2651	0.02847
2652	0.02866
2653	0.02895
2654	0.02942
2655	0.02982
2656	0.03008
2657	0.03024
2658	0.03053
2659	0.03097
2660	0.03137
2661	0.03157
2662	0.03177
2663	0.03214
2664	0.0326
2665	0.03298
2666	0.03318
2667	0.03332
2668	0.03362
2669	0.0341
2670	0.03449
2671	0.03467
2672	0.03494
2673	0.03542
2674	0.03577
2675	0.03594
2676	0.03616
2677	0.03653
2678	0.03699
2679	0.03745
2680	0.0378
2681	0.03794
2682	0.03791
2683	0.03804
2684	0.0383
2685	0.03848
2686	0.03855
2687	0.03871
2688	0.03903
2689	0.03936
2690	0.03958
2691	0.0397
2692	0.03999
2693	0.04041
2694	0.04077
2695	0.04093
2696	0.04105
2697	0.04142
2698	0.04206
2699	0.0426
2700	0.0428
2701	0.04295
2702	0.0433
2703	0.04378
2704	0.04419
2705	0.04442
2706	0.04465
2707	0.04504
2708	0.04555
2709	0.04606
2710	0.0464
2711	0.04663
2712	0.04694
2713	0.04732
2714	0.04758
2715	0.04781
2716	0.04808
2717	0.0485
2718	0.04897
2719	0.04936
2720	0.04964
2721	0.05
2722	0.05054
2723	0.05098
2724	0.05128
2725	0.05174
2726	0.05232
2727	0.05271
2728	0.05288
2729	0.05289
2730	0.05301
2731	0.05338
2732	0.0539
2733	0.05436
2734	0.05459
2735	0.05486
2736	0.05538
2737	0.0561
2738	0.05657
2739	0.05674
2740	0.05686
2741	0.05716
2742	0.05756
2743	0.05793
2744	0.05816
2745	0.05845
2746	0.05903
2747	0.05971
2748	0.06012
2749	0.06029
2750	0.06051
2751	0.06077
2752	0.06096
2753	0.06117
2754	0.06144
2755	0.06174
2756	0.06208
2757	0.06248
2758	0.06275
2759	0.06301
2760	0.06329
2761	0.06365
2762	0.064
2763	0.06415
2764	0.06433
2765	0.06472
2766	0.06529
2767	0.06572
2768	0.06592
2769	0.06612
2770	0.06652
2771	0.06704
2772	0.06752
2773	0.06798
2774	0.06852
2775	0.0691
2776	0.06951
2777	0.06964
2778	0.06972
2779	0.07007
2780	0.0706
2781	0.0711
2782	0.07153
2783	0.07193
2784	0.07236
2785	0.07294
2786	0.07357
2787	0.0742
2788	0.07492
2789	0.07561
2790	0.07617
2791	0.07664
2792	0.07699
2793	0.07728
2794	0.07782
2795	0.07872
2796	0.07961
2797	0.08038
2798	0.08122
2799	0.08193
2800	0.08239
2801	0.08285
2802	0.0835
2803	0.0843
2804	0.0852
2805	0.08613
2806	0.08704
2807	0.08795
2808	0.0891
2809	0.09061
2810	0.09208
2811	0.09308
2812	0.09386
2813	0.09492
2814	0.09633
2815	0.09779
2816	0.09922
2817	0.10058
2818	0.10203
2819	0.10359
2820	0.10501
2821	0.10629
2822	0.10758
2823	0.10892
2824	0.11014
2825	0.11113
2826	0.11207
2827	0.11306
2828	0.11406
2829	0.115
2830	0.11591
2831	0.11696
2832	0.11806
2833	0.11916
2834	0.12039
2835	0.12163
2836	0.12295
2837	0.12457
2838	0.12655
2839	0.12847
2840	0.13031
2841	0.13226
2842	0.13455
2843	0.13737
2844	0.14082
2845	0.14501
2846	0.15007
2847	0.15597
2848	0.16211
2849	0.16783
2850	0.17264
2851	0.17631
2852	0.17892
2853	0.18082
2854	0.18217
2855	0.18302
2856	0.18337
2857	0.18326
2858	0.18293
2859	0.18265
2860	0.1823
2861	0.18171
2862	0.18124
2863	0.18135
2864	0.18202
2865	0.18296
2866	0.1841
2867	0.18547
2868	0.18719
2869	0.18938
2870	0.19185
2871	0.19442
2872	0.1971
2873	0.19983
2874	0.20243
2875	0.20465
2876	0.20661
2877	0.20862
2878	0.21094
2879	0.21345
2880	0.21592
2881	0.2182
2882	0.2204
2883	0.22273
2884	0.22525
2885	0.22778
2886	0.23013
2887	0.23247
2888	0.23505
2889	0.23774
2890	0.24029
2891	0.24265
2892	0.24507
2893	0.24759
2894	0.25019
2895	0.25289
2896	0.25542
2897	0.25746
2898	0.25941
2899	0.26142
2900	0.26342
2901	0.26531
2902	0.26729
2903	0.26941
2904	0.27144
2905	0.27336
2906	0.27546
2907	0.27803
2908	0.2812
2909	0.28471
2910	0.28843
2911	0.2927
2912	0.2979
2913	0.30404
2914	0.3107
2915	0.31759
2916	0.32454
2917	0.33123
2918	0.33731
2919	0.34266
2920	0.34737
2921	0.35166
2922	0.3556
2923	0.35899
2924	0.36173
2925	0.36361
2926	0.36475
2927	0.36521
2928	0.36515
2929	0.36442
2930	0.36301
2931	0.3609
2932	0.35832
2933	0.3554
2934	0.35221
2935	0.34886
2936	0.34547
2937	0.342
2938	0.33816
2939	0.33393
2940	0.32947
2941	0.32488
2942	0.32023
2943	0.31562
2944	0.31083
2945	0.30568
2946	0.30039
2947	0.29506
2948	0.28942
2949	0.28365
2950	0.27831
2951	0.27362
2952	0.26928
2953	0.26494
2954	0.26049
2955	0.25626
2956	0.25234
2957	0.24859
2958	0.24475
2959	0.2409
2960	0.23716
2961	0.23354
2962	0.22995
2963	0.22627
2964	0.22256
2965	0.21899
2966	0.21559
2967	0.21214
2968	0.20854
2969	0.20492
2970	0.20149
2971	0.19825
2972	0.19498
2973	0.19163
2974	0.18862
2975	0.18591
2976	0.18315
2977	0.18043
2978	0.17811
2979	0.17608
2980	0.17427
2981	0.17243
2982	0.1704
2983	0.16823
2984	0.16624
2985	0.16473
2986	0.16346
2987	0.16207
2988	0.16059
2989	0.15938
2990	0.15857
2991	0.15805
2992	0.15753
2993	0.1568
2994	0.15588
2995	0.15502
2996	0.1546
2997	0.15447
2998	0.15417
2999	0.15355
3000	0.15296
3001	0.15257
3002	0.15237
3003	0.15244
3004	0.15255
3005	0.15247
3006	0.15232
3007	0.1524
3008	0.15276
3009	0.15331
3010	0.15396
3011	0.15451
3012	0.15487
3013	0.15518
3014	0.15564
3015	0.15604
3016	0.15631
3017	0.15667
3018	0.15716
3019	0.15778
3020	0.15842
3021	0.159
3022	0.1597
3023	0.16071
3024	0.16193
3025	0.163
3026	0.16369
3027	0.16435
3028	0.16544
3029	0.16706
3030	0.16866
3031	0.16986
3032	0.17103
3033	0.17261
3034	0.17413
3035	0.1754
3036	0.17647
3037	0.17753
3038	0.17881
3039	0.18044
3040	0.18222
3041	0.18385
3042	0.18527
3043	0.18652
3044	0.18766
3045	0.18876
3046	0.18988
3047	0.19105
3048	0.19227
3049	0.19363
3050	0.1952
3051	0.19659
3052	0.19767
3053	0.19891
3054	0.20057
3055	0.20225
3056	0.20352
3057	0.20455
3058	0.20574
3059	0.20706
3060	0.20842
3061	0.20982
3062	0.21149
3063	0.21335
3064	0.21493
3065	0.21638
3066	0.218
3067	0.21959
3068	0.22108
3069	0.22245
3070	0.22377
3071	0.22513
3072	0.22653
3073	0.228
3074	0.22963
3075	0.2314
3076	0.23329
3077	0.23528
3078	0.23724
3079	0.23899
3080	0.24061
3081	0.24219
3082	0.24384
3083	0.24573
3084	0.24767
3085	0.24946
3086	0.25103
3087	0.25272
3088	0.2546
3089	0.25669
3090	0.25893
3091	0.26106
3092	0.26294
3093	0.26475
3094	0.26664
3095	0.26861
3096	0.27069
3097	0.27301
3098	0.27549
3099	0.27793
3100	0.28024
3101	0.28232
3102	0.28422
3103	0.28618
3104	0.28831
3105	0.29067
3106	0.29326
3107	0.29597
3108	0.29863
3109	0.30112
3110	0.3034
3111	0.30572
3112	0.30831
3113	0.3112
3114	0.31422
3115	0.31696
3116	0.31936
3117	0.32179
3118	0.32417
3119	0.32637
3120	0.32872
3121	0.33125
3122	0.33352
3123	0.33547
3124	0.33748
3125	0.33983
3126	0.34235
3127	0.34485
3128	0.34731
3129	0.34986
3130	0.35253
3131	0.35515
3132	0.35751
3133	0.35957
3134	0.36161
3135	0.36399
3136	0.3667
3137	0.36953
3138	0.37218
3139	0.37466
3140	0.37708
3141	0.37943
3142	0.38158
3143	0.38377
3144	0.38615
3145	0.38873
3146	0.39143
3147	0.39409
3148	0.39671
3149	0.3993
3150	0.40204
3151	0.40492
3152	0.40776
3153	0.41036
3154	0.41282
3155	0.41536
3156	0.41792
3157	0.42033
3158	0.42259
3159	0.42495
3160	0.42751
3161	0.43003
3162	0.43242
3163	0.43478
3164	0.43726
3165	0.43986
3166	0.44245
3167	0.44513
3168	0.44795
3169	0.45077
3170	0.45345
3171	0.45588
3172	0.45831
3173	0.46094
3174	0.46384
3175	0.46691
3176	0.46999
3177	0.4729
3178	0.47563
3179	0.47838
3180	0.48112
3181	0.4837
3182	0.48628
3183	0.4891
3184	0.49202
3185	0.49466
3186	0.49707
3187	0.49959
3188	0.50239
3189	0.50524
3190	0.50779
3191	0.51017
3192	0.51269
3193	0.51532
3194	0.51786
3195	0.5202
3196	0.52242
3197	0.52454
3198	0.52673
3199	0.52915
3200	0.53162
3201	0.53402
3202	0.53646
3203	0.53899
3204	0.54146
3205	0.54375
3206	0.54591
3207	0.54806
3208	0.55023
3209	0.55229
3210	0.55425
3211	0.5563
3212	0.55861
3213	0.56108
3214	0.56345
3215	0.56554
3216	0.56731
3217	0.56924
3218	0.5718
3219	0.57444
3220	0.57651
3221	0.57833
3222	0.58031
3223	0.58233
3224	0.58443
3225	0.58658
3226	0.58874
3227	0.59093
3228	0.59327
3229	0.59562
3230	0.59799
3231	0.60052
3232	0.60313
3233	0.60564
3234	0.60791
3235	0.60981
3236	0.61145
3237	0.61328
3238	0.61555
3239	0.6179
3240	0.62002
3241	0.62215
3242	0.62454
3243	0.62709
3244	0.62948
3245	0.63163
3246	0.63387
3247	0.6362
3248	0.63825
3249	0.63988
3250	0.64154
3251	0.6434
3252	0.64543
3253	0.64752
3254	0.64941
3255	0.65114
3256	0.65291
3257	0.65465
3258	0.65635
3259	0.65808
3260	0.65973
3261	0.66132
3262	0.6629
3263	0.66443
3264	0.66579
3265	0.66716
3266	0.66869
3267	0.67032
3268	0.67202
3269	0.67378
3270	0.67553
3271	0.67721
3272	0.6787
3273	0.67979
3274	0.68077
3275	0.68203
3276	0.68327
3277	0.68433
3278	0.68547
3279	0.68689
3280	0.68839
3281	0.68984
3282	0.69116
3283	0.69228
3284	0.69338
3285	0.69466
3286	0.69618
3287	0.69783
3288	0.69939
3289	0.70084
3290	0.70252
3291	0.70426
3292	0.70569
3293	0.70684
3294	0.70804
3295	0.70941
3296	0.7108
3297	0.71207
3298	0.71319
3299	0.71418
3300	0.71529
3301	0.71657
3302	0.71799
3303	0.71965
3304	0.72141
3305	0.72309
3306	0.72459
3307	0.72614
3308	0.72771
3309	0.72907
3310	0.73028
3311	0.73142
3312	0.73258
3313	0.73386
3314	0.73528
3315	0.73676
3316	0.73823
3317	0.73975
3318	0.74146
3319	0.74335
3320	0.74526
3321	0.74697
3322	0.74858
3323	0.75039
3324	0.75257
3325	0.75492
3326	0.75698
3327	0.75849
3328	0.75986
3329	0.76157
3330	0.76354
3331	0.76559
3332	0.76754
3333	0.7695
3334	0.77154
3335	0.7737
3336	0.77585
3337	0.77782
3338	0.77991
3339	0.78215
3340	0.78404
3341	0.78562
3342	0.78737
3343	0.78932
3344	0.79109
3345	0.79255
3346	0.79388
3347	0.79537
3348	0.79724
3349	0.7995
3350	0.80176
3351	0.80352
3352	0.80486
3353	0.80618
3354	0.80776
3355	0.80962
3356	0.8114
3357	0.81275
3358	0.81415
3359	0.81596
3360	0.81806
3361	0.82001
3362	0.82178
3363	0.82354
3364	0.82543
3365	0.82745
3366	0.82936
3367	0.83102
3368	0.83252
3369	0.83407
3370	0.83558
3371	0.8369
3372	0.83801
3373	0.83923
3374	0.84062
3375	0.84195
3376	0.84314
3377	0.84414
3378	0.84497
3379	0.84601
3380	0.84719
3381	0.84807
3382	0.84871
3383	0.84945
3384	0.85022
3385	0.85085
3386	0.85145
3387	0.85203
3388	0.8526
3389	0.85304
3390	0.85345
3391	0.85402
3392	0.85455
3393	0.85475
3394	0.85496
3395	0.85544
3396	0.85585
3397	0.85608
3398	0.85646
3399	0.85697
3400	0.85736
3401	0.85758
3402	0.85775
3403	0.85777
3404	0.85765
3405	0.85763
3406	0.8579
3407	0.85817
3408	0.85836
3409	0.85878
3410	0.85914
3411	0.85929
3412	0.85946
3413	0.85992
3414	0.86056
3415	0.8609
3416	0.86084
3417	0.86083
3418	0.86106
3419	0.86141
3420	0.8615
3421	0.86127
3422	0.86101
3423	0.86076
3424	0.86052
3425	0.86041
3426	0.86037
3427	0.86031
3428	0.86031
3429	0.86042
3430	0.86047
3431	0.86014
3432	0.85949
3433	0.85892
3434	0.85856
3435	0.85805
3436	0.85728
3437	0.85661
3438	0.85597
3439	0.85501
3440	0.85399
3441	0.853
3442	0.85171
3443	0.85027
3444	0.8493
3445	0.84883
3446	0.84812
3447	0.84638
3448	0.8441
3449	0.84247
3450	0.84123
3451	0.8398
3452	0.83825
3453	0.83668
3454	0.83515
3455	0.83365
3456	0.83215
3457	0.83069
3458	0.8292
3459	0.82768
3460	0.82625
3461	0.82467
3462	0.82257
3463	0.82032
3464	0.81856
3465	0.8173
3466	0.81604
3467	0.81445
3468	0.8127
3469	0.81108
3470	0.80907
3471	0.80643
3472	0.80385
3473	0.80176
3474	0.7998
3475	0.79757
3476	0.79531
3477	0.79332
3478	0.79169
3479	0.79022
3480	0.78848
3481	0.7862
3482	0.78336
3483	0.78047
3484	0.77819
3485	0.77673
3486	0.77558
3487	0.77378
3488	0.77097
3489	0.76791
3490	0.76522
3491	0.7627
3492	0.76034
3493	0.75811
3494	0.7562
3495	0.7543
3496	0.75193
3497	0.74936
3498	0.74707
3499	0.74475
3500	0.7425
3501	0.74054
3502	0.73842
3503	0.73553
3504	0.73223
3505	0.72922
3506	0.72667
3507	0.72454
3508	0.72242
3509	0.71944
3510	0.71596
3511	0.71315
3512	0.71089
3513	0.70871
3514	0.70613
3515	0.70309
3516	0.70037
3517	0.69801
3518	0.69556
3519	0.69292
3520	0.69052
3521	0.6886
3522	0.68661
3523	0.6839
3524	0.68091
3525	0.67832
3526	0.67578
3527	0.67284
3528	0.66952
3529	0.66622
3530	0.66327
3531	0.66057
3532	0.65804
3533	0.65573
3534	0.65376
3535	0.65194
3536	0.64944
3537	0.64615
3538	0.64299
3539	0.64022
3540	0.6378
3541	0.63599
3542	0.63453
3543	0.63287
3544	0.63069
3545	0.62797
3546	0.62455
3547	0.62046
3548	0.61664
3549	0.61411
3550	0.61264
3551	0.61108
3552	0.60795
3553	0.60352
3554	0.59979
3555	0.59703
3556	0.59452
3557	0.5918
3558	0.58915
3559	0.58659
3560	0.58381
3561	0.58122
3562	0.57897
3563	0.57658
3564	0.57456
3565	0.57271
3566	0.56913
3567	0.56309
3568	0.55702
3569	0.55386
3570	0.55217
3571	0.54948
3572	0.54633
3573	0.54341
3574	0.54003
3575	0.53646
3576	0.53321
3577	0.53011
3578	0.52713
3579	0.52399
3580	0.52029
3581	0.51697
3582	0.51442
3583	0.51182
3584	0.50957
3585	0.50808
3586	0.50545
3587	0.4999
3588	0.49257
3589	0.48659
3590	0.48374
3591	0.48244
3592	0.4804
3593	0.47706
3594	0.47321
3595	0.46892
3596	0.46443
3597	0.46123
3598	0.45847
3599	0.4554
3600	0.45162
3601	0.44691
3602	0.44265
3603	0.43915
3604	0.43603
3605	0.43364
3606	0.43109
3607	0.42728
3608	0.42267
3609	0.41759
3610	0.41379
3611	0.41222
3612	0.40967
3613	0.40513
3614	0.4005
3615	0.39689
3616	0.39453
3617	0.39239
3618	0.38903
3619	0.38418
3620	0.37872
3621	0.37438
3622	0.37089
3623	0.36747
3624	0.36474
3625	0.36251
3626	0.36078
3627	0.36003
3628	0.35745
3629	0.34745
3630	0.33809
3631	0.33745
3632	0.33739
3633	0.33483
3634	0.33007
3635	0.32604
3636	0.32362
3637	0.32095
3638	0.31747
3639	0.31401
3640	0.31119
3641	0.30839
3642	0.30494
3643	0.30156
3644	0.29961
3645	0.29914
3646	0.2984
3647	0.29554
3648	0.29225
3649	0.28985
3650	0.28436
3651	0.2758
3652	0.27114
3653	0.26994
3654	0.2693
3655	0.26754
3656	0.26242
3657	0.25646
3658	0.25426
3659	0.25253
3660	0.24974
3661	0.24648
3662	0.24318
3663	0.23994
3664	0.237
3665	0.2346
3666	0.23301
3667	0.23218
3668	0.23124
3669	0.22883
3670	0.223
3671	0.21668
3672	0.21548
3673	0.21748
3674	0.21836
3675	0.21256
3676	0.2016
3677	0.1997
3678	0.20036
3679	0.1982
3680	0.19442
3681	0.19203
3682	0.19055
3683	0.18887
3684	0.18695
3685	0.18551
3686	0.18559
3687	0.18603
3688	0.18465
3689	0.18197
3690	0.1792
3691	0.17451
3692	0.17009
3693	0.16829
3694	0.16722
3695	0.16591
3696	0.16431
3697	0.16245
3698	0.16077
3699	0.15983
3700	0.15935
3701	0.15738
3702	0.15365
3703	0.15167
3704	0.15125
3705	0.15041
3706	0.14951
3707	0.14957
3708	0.1498
3709	0.14882
3710	0.14801
3711	0.1468
3712	0.1419
3713	0.1382
3714	0.13819
3715	0.13776
3716	0.1371
3717	0.13683
3718	0.13597
3719	0.13455
3720	0.13416
3721	0.13401
3722	0.13221
3723	0.13034
3724	0.12984
3725	0.12902
3726	0.12662
3727	0.12407
3728	0.12329
3729	0.1241
3730	0.12562
3731	0.12602
3732	0.12467
3733	0.12517
3734	0.1264
3735	0.1242
3736	0.12021
3737	0.11823
3738	0.11751
3739	0.11758
3740	0.11743
3741	0.11691
3742	0.1179
3743	0.11892
3744	0.11434
3745	0.1073
3746	0.1089
3747	0.11347
3748	0.11489
3749	0.11321
3750	0.11183
3751	0.1105
3752	0.10496
3753	0.10141
3754	0.10306
3755	0.10474
3756	0.10415
3757	0.10348
3758	0.104
3759	0.10248
3760	0.09875
3761	0.0977
3762	0.09811
3763	0.0984
3764	0.0987
3765	0.09739
3766	0.09485
3767	0.09489
3768	0.09666
3769	0.09632
3770	0.09299
3771	0.09046
3772	0.09025
3773	0.09012
3774	0.08977
3775	0.08949
3776	0.08947
3777	0.08994
3778	0.0902
3779	0.08861
3780	0.08613
3781	0.08523
3782	0.08554
3783	0.08594
3784	0.08539
3785	0.08378
3786	0.08245
3787	0.08193
3788	0.08157
3789	0.0811
3790	0.08056
3791	0.07999
3792	0.07953
3793	0.07943
3794	0.08011
3795	0.08077
3796	0.07967
3797	0.0775
3798	0.07754
3799	0.07981
3800	0.08128
3801	0.07877
3802	0.074
3803	0.07267
3804	0.07447
3805	0.07647
3806	0.07594
3807	0.07186
3808	0.06947
3809	0.06965
3810	0.06963
3811	0.06946
3812	0.06976
3813	0.07081
3814	0.07272
3815	0.07321
3816	0.06907
3817	0.06678
3818	0.06959
3819	0.07249
3820	0.0731
3821	0.06851
3822	0.06302
3823	0.06341
3824	0.06499
3825	0.06587
3826	0.06535
3827	0.0635
3828	0.06248
3829	0.06329
3830	0.06419
3831	0.06308
3832	0.06155
3833	0.06224
3834	0.0631
3835	0.06338
3836	0.06488
3837	0.065
3838	0.06236
3839	0.06118
3840	0.05989
3841	0.05809
3842	0.05856
3843	0.05817
3844	0.05564
3845	0.05471
3846	0.05522
3847	0.05556
3848	0.05575
3849	0.05638
3850	0.05796
3851	0.05999
3852	0.06108
3853	0.05791
3854	0.05019
3855	0.0479
3856	0.05064
3857	0.05094
3858	0.05034
3859	0.05113
3860	0.05226
3861	0.05211
3862	0.0517
3863	0.05277
3864	0.05259
3865	0.04891
3866	0.04731
3867	0.04961
3868	0.05219
3869	0.05186
3870	0.04655
3871	0.04508
3872	0.04794
3873	0.04876
3874	0.04593
3875	0.04336
3876	0.04389
3877	0.04497
3878	0.04618
3879	0.04676
3880	0.04461
3881	0.0418
3882	0.0422
3883	0.04427
3884	0.04585
3885	0.04468
3886	0.04095
3887	0.0394
3888	0.0406
3889	0.04252
3890	0.04369
3891	0.0421
3892	0.03957
3893	0.03896
3894	0.03883
3895	0.0388
3896	0.03965
3897	0.04116
3898	0.04159
3899	0.03997
3900	0.0394
3901	0.03988
3902	0.03947
3903	0.03906
3904	0.03788
3905	0.0358
3906	0.03468
3907	0.03465
3908	0.03493
3909	0.035
3910	0.03488
3911	0.03472
3912	0.03453
3913	0.03438
3914	0.03469
3915	0.03535
3916	0.03491
3917	0.0332
3918	0.03282
3919	0.03317
3920	0.03229
3921	0.0319
3922	0.03293
3923	0.03393
3924	0.0332
3925	0.03095
3926	0.03
3927	0.03074
3928	0.03168
3929	0.03213
3930	0.03231
3931	0.03207
3932	0.03095
3933	0.02968
3934	0.02931
3935	0.02931
3936	0.02924
3937	0.02913
3938	0.02885
3939	0.02857
3940	0.02884
3941	0.02941
3942	0.02902
3943	0.02763
3944	0.02698
3945	0.02727
3946	0.02766
3947	0.02765
3948	0.02747
3949	0.02713
3950	0.02632
3951	0.02577
3952	0.02568
3953	0.02543
3954	0.02529
3955	0.02535
3956	0.02529
3957	0.02491
3958	0.02441
3959	0.02416
3960	0.02435
3961	0.02445
3962	0.02419
3963	0.02388
3964	0.02365
3965	0.02348
3966	0.02342
3967	0.02329
3968	0.02285
3969	0.02229
3970	0.02211
3971	0.02214
3972	0.02196
3973	0.02169
3974	0.02157
3975	0.02121
3976	0.02079
3977	0.02071
3978	0.02082
3979	0.02052
3980	0.02002
3981	0.01968
3982	0.01961
3983	0.01978
3984	0.02001
3985	0.01993
3986	0.01964
3987	0.01936
3988	0.01924
3989	0.0192
3990	0.01899
3991	0.01867
3992	0.0185
3993	0.01847
3994	0.01826
3995	0.01787
3996	0.01768
3997	0.01775
3998	0.01767
3999	0.01746
4000	0.01729