4000.18193	0.01956
3999.21756	0.0196
3998.2532	0.01965
3997.28884	0.01971
3996.32447	0.01979
3995.36011	0.01987
3994.39574	0.01997
3993.43138	0.02007
3992.46702	0.02019
3991.50265	0.02032
3990.53829	0.02046
3989.57392	0.02061
3988.60956	0.02077
3987.6452	0.02103
3986.68083	0.02132
3985.71647	0.02158
3984.7521	0.02182
3983.78774	0.02201
3982.82338	0.02213
3981.85901	0.02224
3980.89465	0.02239
3979.93028	0.02252
3978.96592	0.02256
3978.00156	0.02255
3977.03719	0.0226
3976.07283	0.02272
3975.10846	0.02292
3974.1441	0.0232
3973.17974	0.02351
3972.21537	0.02377
3971.25101	0.02399
3970.28664	0.0242
3969.32228	0.0244
3968.35792	0.02461
3967.39355	0.02482
3966.42919	0.02503
3965.46482	0.02531
3964.50046	0.02558
3963.5361	0.02579
3962.57173	0.02601
3961.60737	0.02629
3960.643	0.02651
3959.67864	0.02665
3958.71428	0.0267
3957.74991	0.02663
3956.78555	0.0265
3955.82118	0.02649
3954.85682	0.02666
3953.89246	0.02684
3952.92809	0.02687
3951.96373	0.02681
3950.99936	0.02678
3950.035	0.02677
3949.07064	0.02675
3948.10627	0.02681
3947.14191	0.02697
3946.17754	0.02725
3945.21318	0.02764
3944.24882	0.02815
3943.28445	0.02867
3942.32009	0.02911
3941.35572	0.02946
3940.39136	0.02971
3939.427	0.02991
3938.46263	0.03008
3937.49827	0.03029
3936.5339	0.03059
3935.56954	0.03074
3934.60518	0.03066
3933.64081	0.03054
3932.67645	0.03057
3931.71208	0.03067
3930.74772	0.03056
3929.78336	0.03037
3928.81899	0.03041
3927.85463	0.03052
3926.89026	0.03046
3925.9259	0.03036
3924.96154	0.03039
3923.99717	0.03061
3923.03281	0.031
3922.06844	0.03149
3921.10408	0.03201
3920.13972	0.03246
3919.17535	0.03293
3918.21099	0.03359
3917.24662	0.03444
3916.28226	0.03537
3915.3179	0.03623
3914.35353	0.0369
3913.38917	0.03718
3912.4248	0.03691
3911.46044	0.03647
3910.49608	0.03615
3909.53171	0.03573
3908.56735	0.03507
3907.60298	0.0343
3906.63862	0.03372
3905.67426	0.03334
3904.70989	0.03294
3903.74553	0.03268
3902.78116	0.03265
3901.8168	0.03256
3900.85244	0.03244
3899.88807	0.03251
3898.92371	0.03291
3897.95934	0.0338
3896.99498	0.03507
3896.03062	0.03632
3895.06625	0.03749
3894.10189	0.03854
3893.13752	0.03945
3892.17316	0.04023
3891.2088	0.04059
3890.24443	0.04048
3889.28007	0.0402
3888.3157	0.04006
3887.35134	0.04003
3886.38698	0.04015
3885.42261	0.0405
3884.45825	0.04086
3883.49388	0.04129
3882.52952	0.04202
3881.56516	0.04298
3880.60079	0.04339
3879.63643	0.04303
3878.67206	0.04234
3877.7077	0.04208
3876.74333	0.0425
3875.77897	0.04306
3874.81461	0.04337
3873.85024	0.04337
3872.88588	0.04303
3871.92151	0.04265
3870.95715	0.04247
3869.99279	0.04262
3869.02842	0.04299
3868.06406	0.04314
3867.09969	0.04332
3866.13533	0.04417
3865.17097	0.04582
3864.2066	0.04709
3863.24224	0.04757
3862.27787	0.04735
3861.31351	0.04675
3860.34915	0.04634
3859.38478	0.04615
3858.42042	0.04588
3857.45605	0.04531
3856.49169	0.04515
3855.52733	0.04575
3854.56296	0.0467
3853.5986	0.0476
3852.63423	0.04831
3851.66987	0.049
3850.70551	0.04967
3849.74114	0.0503
3848.77678	0.05082
3847.81241	0.05138
3846.84805	0.05221
3845.88369	0.05308
3844.91932	0.05376
3843.95496	0.05454
3842.99059	0.05554
3842.02623	0.05599
3841.06187	0.05529
3840.0975	0.05444
3839.13314	0.05411
3838.16877	0.05419
3837.20441	0.05442
3836.24005	0.05483
3835.27568	0.05561
3834.31132	0.05687
3833.34695	0.05872
3832.38259	0.06064
3831.41823	0.06173
3830.45386	0.06236
3829.4895	0.06297
3828.52513	0.0635
3827.56077	0.06389
3826.59641	0.06381
3825.63204	0.06324
3824.66768	0.06263
3823.70331	0.06227
3822.73895	0.06209
3821.77459	0.06216
3820.81022	0.06261
3819.84586	0.06334
3818.88149	0.06435
3817.91713	0.06552
3816.95277	0.06662
3815.9884	0.06773
3815.02404	0.06895
3814.05967	0.07046
3813.09531	0.07226
3812.13095	0.07366
3811.16658	0.07457
3810.20222	0.07517
3809.23785	0.07523
3808.27349	0.07477
3807.30913	0.07431
3806.34476	0.07396
3805.3804	0.07377
3804.41603	0.07353
3803.45167	0.07305
3802.48731	0.07283
3801.52294	0.07312
3800.55858	0.07385
3799.59421	0.07492
3798.62985	0.0763
3797.66549	0.07801
3796.70112	0.07997
3795.73676	0.08183
3794.77239	0.0832
3793.80803	0.08441
3792.84367	0.08598
3791.8793	0.08791
3790.91494	0.0898
3789.95057	0.09091
3788.98621	0.09105
3788.02185	0.09104
3787.05748	0.09129
3786.09312	0.09172
3785.12875	0.09206
3784.16439	0.09222
3783.20003	0.09249
3782.23566	0.09315
3781.2713	0.09399
3780.30693	0.09458
3779.34257	0.09499
3778.37821	0.09551
3777.41384	0.09622
3776.44948	0.09686
3775.48511	0.09734
3774.52075	0.09775
3773.55639	0.09812
3772.59202	0.09851
3771.62766	0.09919
3770.66329	0.09999
3769.69893	0.10057
3768.73457	0.10102
3767.7702	0.10126
3766.80584	0.10116
3765.84147	0.1011
3764.87711	0.1015
3763.91275	0.10252
3762.94838	0.10357
3761.98402	0.10416
3761.01965	0.10443
3760.05529	0.10434
3759.09093	0.1039
3758.12656	0.10313
3757.1622	0.10231
3756.19783	0.10204
3755.23347	0.10165
3754.26911	0.10094
3753.30474	0.10015
3752.34038	0.0996
3751.37601	0.09943
3750.41165	0.09972
3749.44729	0.10055
3748.48292	0.10178
3747.51856	0.10313
3746.55419	0.10427
3745.58983	0.10505
3744.62547	0.10572
3743.6611	0.10657
3742.69674	0.10758
3741.73237	0.10869
3740.76801	0.10977
3739.80365	0.11045
3738.83928	0.11103
3737.87492	0.11179
3736.91055	0.11249
3735.94619	0.11323
3734.98182	0.11431
3734.01746	0.11569
3733.0531	0.11684
3732.08873	0.11732
3731.12437	0.11806
3730.16	0.11933
3729.19564	0.1208
3728.23128	0.12246
3727.26691	0.12453
3726.30255	0.12694
3725.33818	0.12948
3724.37382	0.13207
3723.40946	0.13423
3722.44509	0.13552
3721.48073	0.13648
3720.51636	0.13721
3719.552	0.13753
3718.58764	0.13785
3717.62327	0.13853
3716.65891	0.13955
3715.69454	0.14071
3714.73018	0.14191
3713.76582	0.14315
3712.80145	0.14432
3711.83709	0.14535
3710.87272	0.14624
3709.90836	0.14703
3708.944	0.14807
3707.97963	0.14947
3707.01527	0.15102
3706.0509	0.15272
3705.08654	0.15476
3704.12218	0.15718
3703.15781	0.16
3702.19345	0.16295
3701.22908	0.16557
3700.26472	0.16754
3699.30036	0.16851
3698.33599	0.1689
3697.37163	0.16917
3696.40726	0.1696
3695.4429	0.17035
3694.47854	0.17137
3693.51417	0.17263
3692.54981	0.17421
3691.58544	0.17617
3690.62108	0.17822
3689.65672	0.18001
3688.69235	0.18185
3687.72799	0.18431
3686.76362	0.18688
3685.79926	0.18857
3684.8349	0.1898
3683.87053	0.19112
3682.90617	0.19294
3681.9418	0.19527
3680.97744	0.19744
3680.01308	0.19909
3679.04871	0.20013
3678.08435	0.20083
3677.11998	0.20166
3676.15562	0.20264
3675.19126	0.20392
3674.22689	0.20575
3673.26253	0.20812
3672.29816	0.21093
3671.3338	0.21416
3670.36944	0.21782
3669.40507	0.22195
3668.44071	0.22651
3667.47634	0.23107
3666.51198	0.2353
3665.54762	0.23939
3664.58325	0.24336
3663.61889	0.24673
3662.65452	0.2498
3661.69016	0.25336
3660.7258	0.25681
3659.76143	0.2598
3658.79707	0.26185
3657.8327	0.2625
3656.86834	0.26248
3655.90398	0.26262
3654.93961	0.26327
3653.97525	0.26437
3653.01088	0.26569
3652.04652	0.26722
3651.08216	0.2691
3650.11779	0.27137
3649.15343	0.27392
3648.18906	0.27669
3647.2247	0.27976
3646.26034	0.28326
3645.29597	0.28701
3644.33161	0.29053
3643.36724	0.29396
3642.40288	0.2979
3641.43852	0.30257
3640.47415	0.30743
3639.50979	0.31132
3638.54542	0.31398
3637.58106	0.31556
3636.6167	0.31665
3635.65233	0.31746
3634.68797	0.31824
3633.7236	0.31945
3632.75924	0.32126
3631.79488	0.32356
3630.83051	0.32599
3629.86615	0.32823
3628.90178	0.33029
3627.93742	0.33241
3626.97306	0.33478
3626.00869	0.33738
3625.04433	0.34015
3624.07996	0.34301
3623.1156	0.34582
3622.15124	0.34864
3621.18687	0.35168
3620.22251	0.35506
3619.25814	0.35855
3618.29378	0.36173
3617.32942	0.36402
3616.36505	0.36561
3615.40069	0.36756
3614.43632	0.37006
3613.47196	0.37303
3612.5076	0.37639
3611.54323	0.37997
3610.57887	0.38365
3609.6145	0.3874
3608.65014	0.3911
3607.68578	0.39463
3606.72141	0.39788
3605.75705	0.40095
3604.79268	0.40405
3603.82832	0.40717
3602.86396	0.41019
3601.89959	0.41313
3600.93523	0.41617
3599.97086	0.41945
3599.0065	0.42285
3598.04214	0.42588
3597.07777	0.42831
3596.11341	0.43039
3595.14904	0.43241
3594.18468	0.43458
3593.22031	0.43712
3592.25595	0.44008
3591.29159	0.44325
3590.32722	0.44646
3589.36286	0.44965
3588.39849	0.4528
3587.43413	0.45598
3586.46977	0.45923
3585.5054	0.46254
3584.54104	0.46585
3583.57667	0.46908
3582.61231	0.47227
3581.64795	0.47556
3580.68358	0.47911
3579.71922	0.48309
3578.75485	0.48724
3577.79049	0.49089
3576.82613	0.49359
3575.86176	0.49534
3574.8974	0.49654
3573.93303	0.49774
3572.96867	0.49921
3572.00431	0.50092
3571.03994	0.50272
3570.07558	0.50465
3569.11121	0.50675
3568.14685	0.50895
3567.18249	0.51127
3566.21812	0.51384
3565.25376	0.51665
3564.28939	0.51958
3563.32503	0.52254
3562.36067	0.52551
3561.3963	0.52865
3560.43194	0.53212
3559.46757	0.53589
3558.50321	0.53979
3557.53885	0.54365
3556.57448	0.54717
3555.61012	0.54996
3554.64575	0.55196
3553.68139	0.55366
3552.71703	0.55553
3551.75266	0.55765
3550.7883	0.55991
3549.82393	0.5623
3548.85957	0.56482
3547.89521	0.56735
3546.93084	0.56987
3545.96648	0.57246
3545.00211	0.57516
3544.03775	0.57801
3543.07339	0.58101
3542.10902	0.58406
3541.14466	0.58707
3540.18029	0.59002
3539.21593	0.59295
3538.25157	0.59586
3537.2872	0.59871
3536.32284	0.60149
3535.35847	0.60416
3534.39411	0.60664
3533.42975	0.60886
3532.46538	0.61098
3531.50102	0.6132
3530.53665	0.61565
3529.57229	0.61828
3528.60793	0.62104
3527.64356	0.6239
3526.6792	0.62687
3525.71483	0.62996
3524.75047	0.63317
3523.78611	0.63649
3522.82174	0.64003
3521.85738	0.64381
3520.89301	0.6477
3519.92865	0.65157
3518.96429	0.65544
3517.99992	0.65941
3517.03556	0.66349
3516.07119	0.66767
3515.10683	0.67195
3514.14247	0.67632
3513.1781	0.68082
3512.21374	0.68544
3511.24937	0.69011
3510.28501	0.69491
3509.32065	0.69998
3508.35628	0.70527
3507.39192	0.71056
3506.42755	0.71567
3505.46319	0.72059
3504.49883	0.72527
3503.53446	0.72965
3502.5701	0.73367
3501.60573	0.73727
3500.64137	0.74037
3499.67701	0.74292
3498.71264	0.74482
3497.74828	0.74607
3496.78391	0.74681
3495.81955	0.74726
3494.85519	0.74755
3493.89082	0.74766
3492.92646	0.74749
3491.96209	0.74703
3490.99773	0.74638
3490.03337	0.74581
3489.069	0.74547
3488.10464	0.7454
3487.14027	0.74563
3486.17591	0.74609
3485.21155	0.7467
3484.24718	0.74737
3483.28282	0.74814
3482.31845	0.74904
3481.35409	0.75006
3480.38973	0.75121
3479.42536	0.75247
3478.461	0.7538
3477.49663	0.75516
3476.53227	0.75651
3475.56791	0.75787
3474.60354	0.75929
3473.63918	0.76074
3472.67481	0.76215
3471.71045	0.76349
3470.74609	0.76476
3469.78172	0.76593
3468.81736	0.76707
3467.85299	0.76825
3466.88863	0.76948
3465.92427	0.77072
3464.9599	0.77197
3463.99554	0.7732
3463.03117	0.77439
3462.06681	0.77552
3461.10245	0.77668
3460.13808	0.77791
3459.17372	0.77919
3458.20935	0.78043
3457.24499	0.78156
3456.28062	0.78265
3455.31626	0.78374
3454.3519	0.78485
3453.38753	0.78595
3452.42317	0.78701
3451.4588	0.78805
3450.49444	0.78908
3449.53008	0.79011
3448.56571	0.79121
3447.60135	0.79242
3446.63698	0.79371
3445.67262	0.79508
3444.70826	0.79652
3443.74389	0.79801
3442.77953	0.79956
3441.81516	0.80116
3440.8508	0.80281
3439.88644	0.80451
3438.92207	0.80628
3437.95771	0.80809
3436.99334	0.80988
3436.02898	0.81157
3435.06462	0.81312
3434.10025	0.81459
3433.13589	0.81608
3432.17152	0.81753
3431.20716	0.81883
3430.2428	0.81993
3429.27843	0.82092
3428.31407	0.82185
3427.3497	0.82273
3426.38534	0.82352
3425.42098	0.82425
3424.45661	0.82492
3423.49225	0.82554
3422.52788	0.82608
3421.56352	0.82652
3420.59916	0.82686
3419.63479	0.8271
3418.67043	0.82725
3417.70606	0.82731
3416.7417	0.82726
3415.77734	0.82706
3414.81297	0.82668
3413.84861	0.82613
3412.88424	0.82544
3411.91988	0.82463
3410.95552	0.82367
3409.99115	0.82259
3409.02679	0.82139
3408.06242	0.82004
3407.09806	0.81858
3406.1337	0.81709
3405.16933	0.81562
3404.20497	0.81415
3403.2406	0.81267
3402.27624	0.81124
3401.31188	0.8099
3400.34751	0.80872
3399.38315	0.80768
3398.41878	0.80679
3397.45442	0.80605
3396.49006	0.80544
3395.52569	0.80492
3394.56133	0.80448
3393.59696	0.80412
3392.6326	0.80385
3391.66824	0.80365
3390.70387	0.80356
3389.73951	0.80359
3388.77514	0.80371
3387.81078	0.80391
3386.84642	0.80419
3385.88205	0.80451
3384.91769	0.80482
3383.95332	0.80515
3382.98896	0.80551
3382.0246	0.8059
3381.06023	0.80629
3380.09587	0.80669
3379.1315	0.80714
3378.16714	0.80764
3377.20278	0.80816
3376.23841	0.80865
3375.27405	0.80909
3374.30968	0.80947
3373.34532	0.80978
3372.38096	0.81
3371.41659	0.81019
3370.45223	0.81034
3369.48786	0.81045
3368.5235	0.8105
3367.55914	0.81047
3366.59477	0.81034
3365.63041	0.81011
3364.66604	0.80979
3363.70168	0.80938
3362.73732	0.80887
3361.77295	0.80827
3360.80859	0.80761
3359.84422	0.80688
3358.87986	0.80605
3357.9155	0.80512
3356.95113	0.80404
3355.98677	0.80281
3355.0224	0.80144
3354.05804	0.79994
3353.09368	0.7983
3352.12931	0.79657
3351.16495	0.79476
3350.20058	0.79292
3349.23622	0.79108
3348.27186	0.78928
3347.30749	0.78749
3346.34313	0.78571
3345.37876	0.78393
3344.4144	0.78217
3343.45004	0.78043
3342.48567	0.77876
3341.52131	0.77718
3340.55694	0.77566
3339.59258	0.77422
3338.62822	0.77282
3337.66385	0.77144
3336.69949	0.77006
3335.73512	0.76868
3334.77076	0.76728
3333.8064	0.76585
3332.84203	0.76443
3331.87767	0.76303
3330.9133	0.7617
3329.94894	0.76044
3328.98458	0.75929
3328.02021	0.75828
3327.05585	0.75744
3326.09148	0.75681
3325.12712	0.75635
3324.16276	0.75604
3323.19839	0.75591
3322.23403	0.75597
3321.26966	0.75622
3320.3053	0.75664
3319.34094	0.75722
3318.37657	0.75793
3317.41221	0.75876
3316.44784	0.75968
3315.48348	0.76068
3314.51911	0.76172
3313.55475	0.76277
3312.59039	0.76374
3311.62602	0.76456
3310.66166	0.76517
3309.69729	0.76556
3308.73293	0.76572
3307.76857	0.76562
3306.8042	0.7653
3305.83984	0.76477
3304.87547	0.76404
3303.91111	0.76313
3302.94675	0.76204
3301.98238	0.76081
3301.01802	0.75947
3300.05365	0.75808
3299.08929	0.75668
3298.12493	0.75529
3297.16056	0.75395
3296.1962	0.75272
3295.23183	0.75163
3294.26747	0.75073
3293.30311	0.75002
3292.33874	0.74949
3291.37438	0.7491
3290.41001	0.74883
3289.44565	0.74867
3288.48129	0.74857
3287.51692	0.74851
3286.55256	0.74846
3285.58819	0.74843
3284.62383	0.74839
3283.65947	0.74833
3282.6951	0.74826
3281.73074	0.74814
3280.76637	0.74796
3279.80201	0.74773
3278.83765	0.74745
3277.87328	0.74706
3276.90892	0.74655
3275.94455	0.74589
3274.98019	0.7451
3274.01583	0.74416
3273.05146	0.74308
3272.0871	0.74188
3271.12273	0.74054
3270.15837	0.73906
3269.19401	0.73743
3268.22964	0.73565
3267.26528	0.73373
3266.30091	0.7317
3265.33655	0.72955
3264.37219	0.72723
3263.40782	0.72477
3262.44346	0.72219
3261.47909	0.7195
3260.51473	0.71671
3259.55037	0.71387
3258.586	0.71099
3257.62164	0.70809
3256.65727	0.70518
3255.69291	0.70219
3254.72855	0.69912
3253.76418	0.696
3252.79982	0.69286
3251.83545	0.68969
3250.87109	0.6865
3249.90673	0.6833
3248.94236	0.6801
3247.978	0.67688
3247.01363	0.67361
3246.04927	0.67034
3245.08491	0.66711
3244.12054	0.66394
3243.15618	0.66083
3242.19181	0.65775
3241.22745	0.6547
3240.26309	0.6517
3239.29872	0.64876
3238.33436	0.64589
3237.36999	0.64309
3236.40563	0.64039
3235.44127	0.6378
3234.4769	0.63533
3233.51254	0.63298
3232.54817	0.63074
3231.58381	0.62865
3230.61945	0.62674
3229.65508	0.625
3228.69072	0.62345
3227.72635	0.62211
3226.76199	0.62099
3225.79763	0.62006
3224.83326	0.61926
3223.8689	0.61856
3222.90453	0.61795
3221.94017	0.61738
3220.97581	0.61674
3220.01144	0.61597
3219.04708	0.61504
3218.08271	0.61391
3217.11835	0.61256
3216.15399	0.61096
3215.18962	0.60912
3214.22526	0.60703
3213.26089	0.60473
3212.29653	0.60224
3211.33217	0.59959
3210.3678	0.59682
3209.40344	0.59398
3208.43907	0.59109
3207.47471	0.58818
3206.51035	0.58537
3205.54598	0.58271
3204.58162	0.58022
3203.61725	0.57789
3202.65289	0.57568
3201.68853	0.57355
3200.72416	0.57147
3199.7598	0.56944
3198.79543	0.56739
3197.83107	0.56528
3196.86671	0.56308
3195.90234	0.56079
3194.93798	0.5584
3193.97361	0.55589
3193.00925	0.55325
3192.04489	0.5505
3191.08052	0.54765
3190.11616	0.54474
3189.15179	0.54173
3188.18743	0.53861
3187.22307	0.53542
3186.2587	0.5322
3185.29434	0.52897
3184.32997	0.52576
3183.36561	0.52262
3182.40125	0.51956
3181.43688	0.51656
3180.47252	0.51361
3179.50815	0.5107
3178.54379	0.50786
3177.57943	0.5051
3176.61506	0.50241
3175.6507	0.49977
3174.68633	0.49715
3173.72197	0.49455
3172.7576	0.49199
3171.79324	0.48949
3170.82888	0.48705
3169.86451	0.48465
3168.90015	0.4823
3167.93578	0.48001
3166.97142	0.47777
3166.00706	0.47556
3165.04269	0.47338
3164.07833	0.47127
3163.11396	0.46923
3162.1496	0.46723
3161.18524	0.46526
3160.22087	0.46331
3159.25651	0.46138
3158.29214	0.45945
3157.32778	0.45753
3156.36342	0.4556
3155.39905	0.45365
3154.43469	0.45168
3153.47032	0.44966
3152.50596	0.44758
3151.5416	0.44547
3150.57723	0.44334
3149.61287	0.44121
3148.6485	0.43909
3147.68414	0.43697
3146.71978	0.43485
3145.75541	0.43272
3144.79105	0.43057
3143.82668	0.42836
3142.86232	0.42611
3141.89796	0.42385
3140.93359	0.42159
3139.96923	0.41934
3139.00486	0.41709
3138.0405	0.41482
3137.07614	0.41252
3136.11177	0.4102
3135.14741	0.40787
3134.18304	0.40552
3133.21868	0.40314
3132.25432	0.40075
3131.28995	0.39839
3130.32559	0.39609
3129.36122	0.39384
3128.39686	0.39166
3127.4325	0.38955
3126.46813	0.38746
3125.50377	0.3854
3124.5394	0.38333
3123.57504	0.3812
3122.61068	0.37898
3121.64631	0.37663
3120.68195	0.37417
3119.71758	0.37167
3118.75322	0.36914
3117.78886	0.36655
3116.82449	0.36388
3115.86013	0.36113
3114.89576	0.35832
3113.9314	0.35547
3112.96704	0.35259
3112.00267	0.34968
3111.03831	0.34675
3110.07394	0.34386
3109.10958	0.3411
3108.14522	0.33846
3107.18085	0.33588
3106.21649	0.33334
3105.25212	0.33088
3104.28776	0.32847
3103.3234	0.3261
3102.35903	0.32379
3101.39467	0.32154
3100.4303	0.31935
3099.46594	0.31719
3098.50158	0.31506
3097.53721	0.31299
3096.57285	0.31096
3095.60848	0.30898
3094.64412	0.30705
3093.67976	0.30515
3092.71539	0.30326
3091.75103	0.30138
3090.78666	0.29952
3089.8223	0.29767
3088.85794	0.29582
3087.89357	0.29401
3086.92921	0.29225
3085.96484	0.29054
3085.00048	0.28882
3084.03612	0.28706
3083.07175	0.28529
3082.10739	0.28352
3081.14302	0.28179
3080.17866	0.28009
3079.2143	0.27844
3078.24993	0.27685
3077.28557	0.2753
3076.3212	0.27378
3075.35684	0.27227
3074.39248	0.27076
3073.42811	0.26927
3072.46375	0.26783
3071.49938	0.26642
3070.53502	0.265
3069.57066	0.26357
3068.60629	0.26218
3067.64193	0.26082
3066.67756	0.25947
3065.7132	0.25815
3064.74884	0.25686
3063.78447	0.25559
3062.82011	0.25432
3061.85574	0.25309
3060.89138	0.2519
3059.92702	0.25071
3058.96265	0.24949
3057.99829	0.24825
3057.03392	0.24703
3056.06956	0.24583
3055.1052	0.24464
3054.14083	0.24343
3053.17647	0.24219
3052.2121	0.24093
3051.24774	0.23965
3050.28338	0.23835
3049.31901	0.23699
3048.35465	0.23554
3047.39028	0.23402
3046.42592	0.23246
3045.46156	0.23085
3044.49719	0.22918
3043.53283	0.22747
3042.56846	0.22572
3041.6041	0.22389
3040.63974	0.22201
3039.67537	0.22012
3038.71101	0.21822
3037.74664	0.21629
3036.78228	0.21428
3035.81792	0.21224
3034.85355	0.21025
3033.88919	0.20832
3032.92482	0.20644
3031.96046	0.20461
3030.99609	0.20283
3030.03173	0.20113
3029.06737	0.19952
3028.103	0.19801
3027.13864	0.19657
3026.17427	0.19519
3025.20991	0.19389
3024.24555	0.19273
3023.28118	0.19168
3022.31682	0.19074
3021.35245	0.18989
3020.38809	0.18912
3019.42373	0.18841
3018.45936	0.18779
3017.495	0.18725
3016.53063	0.18677
3015.56627	0.18632
3014.60191	0.18593
3013.63754	0.18562
3012.67318	0.1854
3011.70881	0.18526
3010.74445	0.18516
3009.78009	0.1851
3008.81572	0.18509
3007.85136	0.18514
3006.88699	0.18521
3005.92263	0.18527
3004.95827	0.18532
3003.9939	0.18535
3003.02954	0.18539
3002.06517	0.18545
3001.10081	0.18553
3000.13645	0.18564
2999.17208	0.18579
2998.20772	0.18599
2997.24335	0.18628
2996.27899	0.18668
2995.31463	0.18723
2994.35026	0.18791
2993.3859	0.18875
2992.42153	0.18979
2991.45717	0.19106
2990.49281	0.19258
2989.52844	0.19433
2988.56408	0.19625
2987.59971	0.19831
2986.63535	0.20051
2985.67099	0.20285
2984.70662	0.20529
2983.74226	0.20779
2982.77789	0.21031
2981.81353	0.21288
2980.84917	0.2155
2979.8848	0.21814
2978.92044	0.22075
2977.95607	0.22333
2976.99171	0.22586
2976.02735	0.22837
2975.06298	0.23084
2974.09862	0.23331
2973.13425	0.23578
2972.16989	0.23828
2971.20553	0.24082
2970.24116	0.24344
2969.2768	0.24617
2968.31243	0.24904
2967.34807	0.25207
2966.38371	0.25528
2965.41934	0.25867
2964.45498	0.26227
2963.49061	0.26613
2962.52625	0.2703
2961.56189	0.27474
2960.59752	0.27941
2959.63316	0.2843
2958.66879	0.28939
2957.70443	0.29469
2956.74007	0.30016
2955.7757	0.30578
2954.81134	0.31153
2953.84697	0.31742
2952.88261	0.32341
2951.91825	0.32949
2950.95388	0.33565
2949.98952	0.34188
2949.02515	0.34814
2948.06079	0.35442
2947.09643	0.36065
2946.13206	0.36678
2945.1677	0.37275
2944.20333	0.37851
2943.23897	0.38398
2942.27461	0.38914
2941.31024	0.39398
2940.34588	0.39847
2939.38151	0.40255
2938.41715	0.40616
2937.45279	0.40925
2936.48842	0.41181
2935.52406	0.41385
2934.55969	0.41539
2933.59533	0.41644
2932.63097	0.41704
2931.6666	0.41723
2930.70224	0.41705
2929.73787	0.41655
2928.77351	0.41578
2927.80915	0.41479
2926.84478	0.41355
2925.88042	0.412
2924.91605	0.41011
2923.95169	0.40782
2922.98733	0.40509
2922.02296	0.40188
2921.0586	0.39819
2920.09423	0.39408
2919.12987	0.38961
2918.16551	0.38485
2917.20114	0.37985
2916.23678	0.37466
2915.27241	0.3694
2914.30805	0.36416
2913.34369	0.35903
2912.37932	0.35411
2911.41496	0.34946
2910.45059	0.34516
2909.48623	0.34127
2908.52187	0.33782
2907.5575	0.33485
2906.59314	0.33237
2905.62877	0.33033
2904.66441	0.32861
2903.70005	0.32708
2902.73568	0.32565
2901.77132	0.32423
2900.80695	0.32274
2899.84259	0.32112
2898.87823	0.31933
2897.91386	0.31733
2896.9495	0.31514
2895.98513	0.31276
2895.02077	0.31019
2894.05641	0.30748
2893.09204	0.30466
2892.12768	0.30179
2891.16331	0.2989
2890.19895	0.29599
2889.23458	0.29307
2888.27022	0.29013
2887.30586	0.2872
2886.34149	0.28428
2885.37713	0.28138
2884.41276	0.27852
2883.4484	0.2757
2882.48404	0.27287
2881.51967	0.27003
2880.55531	0.26715
2879.59094	0.26424
2878.62658	0.2613
2877.66222	0.25835
2876.69785	0.25539
2875.73349	0.25243
2874.76912	0.24948
2873.80476	0.24655
2872.8404	0.24364
2871.87603	0.24078
2870.91167	0.23801
2869.9473	0.23536
2868.98294	0.23287
2868.01858	0.23055
2867.05421	0.22841
2866.08985	0.22644
2865.12548	0.22465
2864.16112	0.22307
2863.19676	0.22171
2862.23239	0.22058
2861.26803	0.21965
2860.30366	0.2189
2859.3393	0.21827
2858.37494	0.2177
2857.41057	0.21708
2856.44621	0.21627
2855.48184	0.21519
2854.51748	0.21379
2853.55312	0.21204
2852.58875	0.20989
2851.62439	0.20735
2850.66002	0.20442
2849.69566	0.20118
2848.7313	0.1977
2847.76693	0.19403
2846.80257	0.19022
2845.8382	0.18632
2844.87384	0.1824
2843.90948	0.17854
2842.94511	0.1748
2841.98075	0.17124
2841.01638	0.16792
2840.05202	0.16489
2839.08766	0.16217
2838.12329	0.15979
2837.15893	0.15772
2836.19456	0.15593
2835.2302	0.15436
2834.26584	0.15297
2833.30147	0.1517
2832.33711	0.15053
2831.37274	0.14945
2830.40838	0.14845
2829.44402	0.14753
2828.47965	0.14666
2827.51529	0.14584
2826.55092	0.14504
2825.58656	0.14424
2824.6222	0.14342
2823.65783	0.14254
2822.69347	0.14161
2821.7291	0.14063
2820.76474	0.13963
2819.80038	0.13865
2818.83601	0.13764
2817.87165	0.13658
2816.90728	0.13546
2815.94292	0.13428
2814.97856	0.13302
2814.01419	0.1317
2813.04983	0.13029
2812.08546	0.12883
2811.1211	0.12734
2810.15674	0.12584
2809.19237	0.12436
2808.22801	0.12289
2807.26364	0.12144
2806.29928	0.12001
2805.33492	0.1186
2804.37055	0.11721
2803.40619	0.11584
2802.44182	0.1145
2801.47746	0.11322
2800.5131	0.11202
2799.54873	0.11093
2798.58437	0.10997
2797.62	0.10914
2796.65564	0.10838
2795.69128	0.10768
2794.72691	0.107
2793.76255	0.10631
2792.79818	0.10562
2791.83382	0.10493
2790.86946	0.10425
2789.90509	0.10355
2788.94073	0.10283
2787.97636	0.10212
2787.012	0.10145
2786.04764	0.10083
2785.08327	0.10023
2784.11891	0.09963
2783.15454	0.09903
2782.19018	0.09846
2781.22582	0.09789
2780.26145	0.09732
2779.29709	0.09675
2778.33272	0.09619
2777.36836	0.09567
2776.404	0.09517
2775.43963	0.09468
2774.47527	0.09416
2773.5109	0.09363
2772.54654	0.0931
2771.58218	0.09259
2770.61781	0.09207
2769.65345	0.09155
2768.68908	0.09104
2767.72472	0.09054
2766.76036	0.09006
2765.79599	0.08958
2764.83163	0.0891
2763.86726	0.08865
2762.9029	0.08823
2761.93854	0.08781
2760.97417	0.0874
2760.00981	0.08699
2759.04544	0.08658
2758.08108	0.08619
2757.11672	0.08583
2756.15235	0.08545
2755.18799	0.08508
2754.22362	0.08471
2753.25926	0.08434
2752.2949	0.08397
2751.33053	0.08359
2750.36617	0.08319
2749.4018	0.08279
2748.43744	0.08243
2747.47307	0.0821
2746.50871	0.08177
2745.54435	0.08144
2744.57998	0.08109
2743.61562	0.08076
2742.65125	0.08043
2741.68689	0.08009
2740.72253	0.07973
2739.75816	0.07934
2738.7938	0.07895
2737.82943	0.07858
2736.86507	0.07822
2735.90071	0.07787
2734.93634	0.07753
2733.97198	0.07717
2733.00761	0.0768
2732.04325	0.07642
2731.07889	0.076
2730.11452	0.07556
2729.15016	0.0751
2728.18579	0.07462
2727.22143	0.07413
2726.25707	0.07364
2725.2927	0.07316
2724.32834	0.07269
2723.36397	0.07219
2722.39961	0.07168
2721.43525	0.07115
2720.47088	0.07064
2719.50652	0.07014
2718.54215	0.06964
2717.57779	0.06912
2716.61343	0.0686
2715.64906	0.06811
2714.6847	0.06764
2713.72033	0.0672
2712.75597	0.06675
2711.79161	0.06628
2710.82724	0.06581
2709.86288	0.06536
2708.89851	0.06491
2707.93415	0.06443
2706.96979	0.06393
2706.00542	0.06341
2705.04106	0.0629
2704.07669	0.06239
2703.11233	0.06187
2702.14797	0.06133
2701.1836	0.06079
2700.21924	0.06026
2699.25487	0.05974
2698.29051	0.05922
2697.32615	0.0587
2696.36178	0.05819
2695.39742	0.0577
2694.43305	0.05722
2693.46869	0.05675
2692.50433	0.05628
2691.53996	0.05583
2690.5756	0.05541
2689.61123	0.05501
2688.64687	0.05463
2687.68251	0.05427
2686.71814	0.05392
2685.75378	0.05358
2684.78941	0.05323
2683.82505	0.05288
2682.86069	0.05253
2681.89632	0.05219
2680.93196	0.05185
2679.96759	0.0515
2679.00323	0.05114
2678.03887	0.05076
2677.0745	0.05037
2676.11014	0.04998
2675.14577	0.04956
2674.18141	0.04914
2673.21705	0.0487
2672.25268	0.04826
2671.28832	0.04783
2670.32395	0.04738
2669.35959	0.04694
2668.39523	0.0465
2667.43086	0.04607
2666.4665	0.04565
2665.50213	0.04525
2664.53777	0.04484
2663.57341	0.04444
2662.60904	0.04403
2661.64468	0.04364
2660.68031	0.04327
2659.71595	0.04289
2658.75159	0.04252
2657.78722	0.04215
2656.82286	0.04179
2655.85849	0.04144
2654.89413	0.04108
2653.92977	0.04072
2652.9654	0.04038
2652.00104	0.04004
2651.03667	0.03971
2650.07231	0.03938
2649.10795	0.03904
2648.14358	0.03872
2647.17922	0.0384
2646.21485	0.03809
2645.25049	0.03775
2644.28613	0.03741
2643.32176	0.03706
2642.3574	0.0367
2641.39303	0.0363
2640.42867	0.03587
2639.46431	0.0354
2638.49994	0.03492
2637.53558	0.03442
2636.57121	0.03392
2635.60685	0.03339
2634.64249	0.03286
2633.67812	0.03231
2632.71376	0.03175
2631.74939	0.03119
2630.78503	0.03064
2629.82067	0.03009
2628.8563	0.02957
2627.89194	0.02906
2626.92757	0.02858
2625.96321	0.02814
2624.99885	0.02773
2624.03448	0.02733
2623.07012	0.02694
2622.10575	0.02656
2621.14139	0.02619
2620.17703	0.02582
2619.21266	0.02545
2618.2483	0.02508
2617.28393	0.02471
2616.31957	0.02435
2615.35521	0.02401
2614.39084	0.02368
2613.42648	0.02337
2612.46211	0.02305
2611.49775	0.02273
2610.53339	0.02241
2609.56902	0.02209
2608.60466	0.02178
2607.64029	0.0215
2606.67593	0.02122
2605.71156	0.02096
2604.7472	0.02071
2603.78284	0.02046
2602.81847	0.02022
2601.85411	0.01997
2600.88974	0.01974
2599.92538	0.01951
2598.96102	0.01929
2597.99665	0.01907
2597.03229	0.01885
2596.06792	0.01865
2595.10356	0.01845
2594.1392	0.01826
2593.17483	0.01809
2592.21047	0.01792
2591.2461	0.01775
2590.28174	0.01758
2589.31738	0.01741
2588.35301	0.01724
2587.38865	0.01707
2586.42428	0.0169
2585.45992	0.01673
2584.49556	0.01657
2583.53119	0.0164
2582.56683	0.01623
2581.60246	0.01603
2580.6381	0.01583
2579.67374	0.01564
2578.70937	0.01545
2577.74501	0.01527
2576.78064	0.01508
2575.81628	0.01488
2574.85192	0.01469
2573.88755	0.0145
2572.92319	0.0143
2571.95882	0.0141
2570.99446	0.01389
2570.0301	0.01368
2569.06573	0.01346
2568.10137	0.01324
2567.137	0.01303
2566.17264	0.0128
2565.20828	0.01257
2564.24391	0.01234
2563.27955	0.01209
2562.31518	0.01182
2561.35082	0.01155
2560.38646	0.01129
2559.42209	0.01102
2558.45773	0.01077
2557.49336	0.01053
2556.529	0.01031
2555.56464	0.01012
2554.60027	0.00995
2553.63591	0.00979
2552.67154	0.00965
2551.70718	0.00954
2550.74282	0.00945
2549.77845	0.00939
2548.81409	0.00934
2547.84972	0.0093
2546.88536	0.00929
2545.921	0.00929
2544.95663	0.00931
2543.99227	0.00934
2543.0279	0.00935
2542.06354	0.00936
2541.09918	0.00938
2540.13481	0.00938
2539.17045	0.00938
2538.20608	0.00938
2537.24172	0.00938
2536.27736	0.00938
2535.31299	0.00938
2534.34863	0.00938
2533.38426	0.00938
2532.4199	0.00938
2531.45554	0.00938
2530.49117	0.00938
2529.52681	0.00938
2528.56244	0.00938
2527.59808	0.00938
2526.63372	0.00938
2525.66935	0.00938
2524.70499	0.00938
2523.74062	0.00938
2522.77626	0.00938
2521.8119	0.00938
2520.84753	0.00938
2519.88317	0.00938
2518.9188	0.00938
2517.95444	0.00938
2516.99008	0.00938
2516.02571	0.00938
2515.06135	0.00938
2514.09698	0.00938
2513.13262	0.00938
2512.16826	0.00938
2511.20389	0.00938
2510.23953	0.00938
2509.27516	0.00938
2508.3108	0.00938
2507.34644	0.00938
2506.38207	0.00938
2505.41771	0.00938
2504.45334	0.00938
2503.48898	0.00938
2502.52462	0.00938
2501.56025	0.00938
2500.59589	0.00938
2499.63152	0.00938
2498.66716	0.00938
2497.7028	0.00938
2496.73843	0.00938
2495.77407	0.00938
2494.8097	0.00938
2493.84534	0.00938
2492.88098	0.00938
2491.91661	0.00938
2490.95225	0.00938
2489.98788	0.00938
2489.02352	0.00938
2488.05916	0.00938
2487.09479	0.00938
2486.13043	0.00938
2485.16606	0.00938
2484.2017	0.00938
2483.23734	0.00938
2482.27297	0.00938
2481.30861	0.00938
2480.34424	0.00938
2479.37988	0.00938
2478.41552	0.00938
2477.45115	0.00938
2476.48679	0.00938
2475.52242	0.00938
2474.55806	0.00938
2473.5937	0.00938
2472.62933	0.00938
2471.66497	0.00938
2470.7006	0.00938
2469.73624	0.00938
2468.77187	0.00938
2467.80751	0.00938
2466.84315	0.00938
2465.87878	0.00938
2464.91442	0.00938
2463.95005	0.00938
2462.98569	0.00938
2462.02133	0.00938
2461.05696	0.00938
2460.0926	0.00938
2459.12823	0.00938
2458.16387	0.00938
2457.19951	0.00938
2456.23514	0.00938
2455.27078	0.00938
2454.30641	0.00938
2453.34205	0.00938
2452.37769	0.00938
2451.41332	0.00938
2450.44896	0.00938
2449.48459	0.00938
2448.52023	0.00938
2447.55587	0.00938
2446.5915	0.00938
2445.62714	0.00938
2444.66277	0.00938
2443.69841	0.00938
2442.73405	0.00938
2441.76968	0.00938
2440.80532	0.00938
2439.84095	0.00938
2438.87659	0.00938
2437.91223	0.00938
2436.94786	0.00938
2435.9835	0.00938
2435.01913	0.00938
2434.05477	0.00938
2433.09041	0.00938
2432.12604	0.00938
2431.16168	0.00938
2430.19731	0.00938
2429.23295	0.00938
2428.26859	0.00938
2427.30422	0.00938
2426.33986	0.00938
2425.37549	0.00938
2424.41113	0.00938
2423.44677	0.00938
2422.4824	0.00938
2421.51804	0.00938
2420.55367	0.00938
2419.58931	0.00938
2418.62495	0.00938
2417.66058	0.00938
2416.69622	0.00938
2415.73185	0.00938
2414.76749	0.00938
2413.80313	0.00938
2412.83876	0.00938
2411.8744	0.00938
2410.91003	0.00938
2409.94567	0.00938
2408.98131	0.00938
2408.01694	0.00938
2407.05258	0.00938
2406.08821	0.00938
2405.12385	0.00938
2404.15949	0.00938
2403.19512	0.00938
2402.23076	0.00938
2401.26639	0.00938
2400.30203	0.00938
2399.33767	0.00938
2398.3733	0.00938
2397.40894	0.00938
2396.44457	0.00938
2395.48021	0.00938
2394.51585	0.00938
2393.55148	0.00938
2392.58712	0.00938
2391.62275	0.00938
2390.65839	0.00938
2389.69403	0.00938
2388.72966	0.00938
2387.7653	0.00938
2386.80093	0.00938
2385.83657	0.00938
2384.87221	0.00938
2383.90784	0.00938
2382.94348	0.00938
2381.97911	0.00938
2381.01475	0.00938
2380.05039	0.00938
2379.08602	0.00938
2378.12166	0.00938
2377.15729	0.00938
2376.19293	0.00938
2375.22857	0.00938
2374.2642	0.00938
2373.29984	0.00938
2372.33547	0.00938
2371.37111	0.00938
2370.40675	0.00938
2369.44238	0.00938
2368.47802	0.00938
2367.51365	0.00938
2366.54929	0.00938
2365.58493	0.00938
2364.62056	0.00938
2363.6562	0.00938
2362.69183	0.00938
2361.72747	0.00938
2360.76311	0.00938
2359.79874	0.00938
2358.83438	0.00938
2357.87001	0.00938
2356.90565	0.00938
2355.94129	0.00938
2354.97692	0.00938
2354.01256	0.00938
2353.04819	0.00938
2352.08383	0.00938
2351.11947	0.00938
2350.1551	0.00938
2349.19074	0.00938
2348.22637	0.00938
2347.26201	0.00938
2346.29765	0.00938
2345.33328	0.00938
2344.36892	0.00938
2343.40455	0.00938
2342.44019	0.00938
2341.47583	0.00938
2340.51146	0.00938
2339.5471	0.00938
2338.58273	0.00938
2337.61837	0.00938
2336.65401	0.00938
2335.68964	0.00938
2334.72528	0.00938
2333.76091	0.00938
2332.79655	0.00938
2331.83219	0.00938
2330.86782	0.00938
2329.90346	0.00938
2328.93909	0.00938
2327.97473	0.00938
2327.01036	0.00938
2326.046	0.00938
2325.08164	0.00938
2324.11727	0.00938
2323.15291	0.00938
2322.18854	0.00938
2321.22418	0.00938
2320.25982	0.00938
2319.29545	0.00938
2318.33109	0.00938
2317.36672	0.00938
2316.40236	0.00938
2315.438	0.00938
2314.47363	0.00938
2313.50927	0.00938
2312.5449	0.00938
2311.58054	0.00938
2310.61618	0.00938
2309.65181	0.00938
2308.68745	0.00938
2307.72308	0.00938
2306.75872	0.00938
2305.79436	0.00938
2304.82999	0.00938
2303.86563	0.00938
2302.90126	0.00938
2301.9369	0.00938
2300.97254	0.00938
2300.00817	0.00938
2299.04381	0.00938
2298.07944	0.00938
2297.11508	0.00938
2296.15072	0.00938
2295.18635	0.00938
2294.22199	0.00938
2293.25762	0.00938
2292.29326	0.00938
2291.3289	0.00938
2290.36453	0.00938
2289.40017	0.00938
2288.4358	0.00938
2287.47144	0.00938
2286.50708	0.00938
2285.54271	0.00938
2284.57835	0.00938
2283.61398	0.00938
2282.64962	0.00938
2281.68526	0.00938
2280.72089	0.00938
2279.75653	0.00938
2278.79216	0.00938
2277.8278	0.00938
2276.86344	0.00938
2275.89907	0.00938
2274.93471	0.00938
2273.97034	0.00938
2273.00598	0.00938
2272.04162	0.00938
2271.07725	0.00938
2270.11289	0.00938
2269.14852	0.00938
2268.18416	0.00938
2267.2198	0.00938
2266.25543	0.00938
2265.29107	0.00938
2264.3267	0.00938
2263.36234	0.00938
2262.39798	0.00938
2261.43361	0.00938
2260.46925	0.00938
2259.50488	0.00938
2258.54052	0.00938
2257.57616	0.00938
2256.61179	0.00938
2255.64743	0.00938
2254.68306	0.00938
2253.7187	0.00938
2252.75434	0.00938
2251.78997	0.00938
2250.82561	0.00938
2249.86124	0.00938
2248.89688	0.00938
2247.93252	0.00938
2246.96815	0.00938
2246.00379	0.00938
2245.03942	0.00938
2244.07506	0.00938
2243.1107	0.00938
2242.14633	0.00938
2241.18197	0.00938
2240.2176	0.00938
2239.25324	0.00938
2238.28888	0.00938
2237.32451	0.00938
2236.36015	0.00938
2235.39578	0.00938
2234.43142	0.00938
2233.46706	0.00938
2232.50269	0.00938
2231.53833	0.00938
2230.57396	0.00938
2229.6096	0.00938
2228.64524	0.00938
2227.68087	0.00938
2226.71651	0.00938
2225.75214	0.00938
2224.78778	0.00938
2223.82342	0.00938
2222.85905	0.00938
2221.89469	0.00938
2220.93032	0.00938
2219.96596	0.00938
2219.0016	0.00938
2218.03723	0.00938
2217.07287	0.00938
2216.1085	0.00938
2215.14414	0.00938
2214.17978	0.00938
2213.21541	0.00938
2212.25105	0.00938
2211.28668	0.00938
2210.32232	0.00938
2209.35796	0.00938
2208.39359	0.00938
2207.42923	0.00938
2206.46486	0.00938
2205.5005	0.00938
2204.53614	0.00938
2203.57177	0.00938
2202.60741	0.00938
2201.64304	0.00938
2200.67868	0.00938
2199.71432	0.00938
2198.74995	0.00938
2197.78559	0.00938
2196.82122	0.00938
2195.85686	0.00938
2194.8925	0.00938
2193.92813	0.00938
2192.96377	0.00938
2191.9994	0.00938
2191.03504	0.00938
2190.07068	0.00938
2189.10631	0.00938
2188.14195	0.00938
2187.17758	0.00938
2186.21322	0.00938
2185.24885	0.00938
2184.28449	0.00938
2183.32013	0.00938
2182.35576	0.00938
2181.3914	0.00938
2180.42703	0.00938
2179.46267	0.00938
2178.49831	0.00938
2177.53394	0.00938
2176.56958	0.00938
2175.60521	0.00938
2174.64085	0.00938
2173.67649	0.00938
2172.71212	0.00938
2171.74776	0.00938
2170.78339	0.00938
2169.81903	0.00938
2168.85467	0.00938
2167.8903	0.00938
2166.92594	0.00938
2165.96157	0.00938
2164.99721	0.00938
2164.03285	0.00938
2163.06848	0.00938
2162.10412	0.00938
2161.13975	0.00938
2160.17539	0.00938
2159.21103	0.00938
2158.24666	0.00938
2157.2823	0.00938
2156.31793	0.00938
2155.35357	0.00938
2154.38921	0.00938
2153.42484	0.00938
2152.46048	0.00938
2151.49611	0.00938
2150.53175	0.00938
2149.56739	0.00938
2148.60302	0.00938
2147.63866	0.00938
2146.67429	0.00938
2145.70993	0.00938
2144.74557	0.00938
2143.7812	0.00938
2142.81684	0.00938
2141.85247	0.00938
2140.88811	0.00938
2139.92375	0.00938
2138.95938	0.00938
2137.99502	0.00938
2137.03065	0.00938
2136.06629	0.00938
2135.10193	0.00938
2134.13756	0.00938
2133.1732	0.00938
2132.20883	0.00938
2131.24447	0.00938
2130.28011	0.00938
2129.31574	0.00938
2128.35138	0.00938
2127.38701	0.00938
2126.42265	0.00938
2125.45829	0.00938
2124.49392	0.00938
2123.52956	0.00938
2122.56519	0.00938
2121.60083	0.00938
2120.63647	0.00938
2119.6721	0.00938
2118.70774	0.00938
2117.74337	0.00938
2116.77901	0.00938
2115.81465	0.00938
2114.85028	0.00938
2113.88592	0.00938
2112.92155	0.00938
2111.95719	0.00938
2110.99283	0.00938
2110.02846	0.00938
2109.0641	0.00938
2108.09973	0.00938
2107.13537	0.00938
2106.17101	0.00938
2105.20664	0.00938
2104.24228	0.00938
2103.27791	0.00938
2102.31355	0.00938
2101.34919	0.00938
2100.38482	0.00938
2099.42046	0.00938
2098.45609	0.00938
2097.49173	0.00938
2096.52737	0.00938
2095.563	0.00938
2094.59864	0.00938
2093.63427	0.00938
2092.66991	0.00938
2091.70555	0.00938
2090.74118	0.00938
2089.77682	0.00938
2088.81245	0.00938
2087.84809	0.00938
2086.88373	0.00938
2085.91936	0.00938
2084.955	0.00938
2083.99063	0.00938
2083.02627	0.00938
2082.06191	0.00938
2081.09754	0.00938
2080.13318	0.00938
2079.16881	0.00938
2078.20445	0.00938
2077.24009	0.00938
2076.27572	0.00938
2075.31136	0.00938
2074.34699	0.00938
2073.38263	0.00938
2072.41827	0.00938
2071.4539	0.00938
2070.48954	0.00938
2069.52517	0.00938
2068.56081	0.00938
2067.59645	0.00938
2066.63208	0.00938
2065.66772	0.00938
2064.70335	0.00938
2063.73899	0.00938
2062.77463	0.00938
2061.81026	0.00938
2060.8459	0.00938
2059.88153	0.00938
2058.91717	0.00938
2057.95281	0.00938
2056.98844	0.00938
2056.02408	0.00938
2055.05971	0.00938
2054.09535	0.00938
2053.13099	0.00938
2052.16662	0.00938
2051.20226	0.00938
2050.23789	0.00938
2049.27353	0.00938
2048.30917	0.00938
2047.3448	0.00938
2046.38044	0.00938
2045.41607	0.00938
2044.45171	0.00938
2043.48734	0.00938
2042.52298	0.00938
2041.55862	0.00938
2040.59425	0.00938
2039.62989	0.00938
2038.66552	0.00938
2037.70116	0.00938
2036.7368	0.00938
2035.77243	0.00938
2034.80807	0.00938
2033.8437	0.00938
2032.87934	0.00938
2031.91498	0.00938
2030.95061	0.00938
2029.98625	0.00938
2029.02188	0.00938
2028.05752	0.00938
2027.09316	0.00938
2026.12879	0.00938
2025.16443	0.00938
2024.20006	0.00938
2023.2357	0.00938
2022.27134	0.00938
2021.30697	0.00938
2020.34261	0.00938
2019.37824	0.00938
2018.41388	0.00938
2017.44952	0.00938
2016.48515	0.00938
2015.52079	0.00938
2014.55642	0.00938
2013.59206	0.00938
2012.6277	0.00938
2011.66333	0.00938
2010.69897	0.00938
2009.7346	0.00938
2008.77024	0.00938
2007.80588	0.00938
2006.84151	0.00938
2005.87715	0.00938
2004.91278	0.00938
2003.94842	0.00938
2002.98406	0.00938
2002.01969	0.00938
2001.05533	0.00938
2000.09096	0.00938
1999.1266	0.00938
1998.16224	0.00938
1997.19787	0.00938
1996.23351	0.00938
1995.26914	0.00938
1994.30478	0.00938
1993.34042	0.00938
1992.37605	0.00938
1991.41169	0.00938
1990.44732	0.00938
1989.48296	0.00938
1988.5186	0.00938
1987.55423	0.00938
1986.58987	0.00938
1985.6255	0.00938
1984.66114	0.00938
1983.69678	0.00938
1982.73241	0.00938
1981.76805	0.00938
1980.80368	0.00938
1979.83932	0.00938
1978.87496	0.00938
1977.91059	0.00938
1976.94623	0.00938
1975.98186	0.00938
1975.0175	0.00938
1974.05314	0.00938
1973.08877	0.00938
1972.12441	0.00938
1971.16004	0.00938
1970.19568	0.00938
1969.23132	0.00938
1968.26695	0.00938
1967.30259	0.00938
1966.33822	0.00938
1965.37386	0.00938
1964.4095	0.00938
1963.44513	0.00938
1962.48077	0.00938
1961.5164	0.00938
1960.55204	0.00938
1959.58768	0.00938
1958.62331	0.00938
1957.65895	0.00938
1956.69458	0.00938
1955.73022	0.00938
1954.76586	0.00938
1953.80149	0.00938
1952.83713	0.00938
1951.87276	0.00938
1950.9084	0.00938
1949.94404	0.00938
1948.97967	0.00938
1948.01531	0.00938
1947.05094	0.00938
1946.08658	0.00938
1945.12222	0.00938
1944.15785	0.00938
1943.19349	0.00938
1942.22912	0.00938
1941.26476	0.00938
1940.3004	0.00938
1939.33603	0.00938
1938.37167	0.00938
1937.4073	0.00938
1936.44294	0.00938
1935.47858	0.00938
1934.51421	0.00938
1933.54985	0.00938
1932.58548	0.00938
1931.62112	0.00938
1930.65676	0.00935
1929.69239	0.00938
1928.72803	0.00929
1927.76366	0.00916
1926.7993	0.0091
1925.83494	0.00909
1924.87057	0.00913
1923.90621	0.00926
1922.94184	0.00952
1921.97748	0.00989
1921.01312	0.01025
1920.04875	0.01053
1919.08439	0.01074
1918.12002	0.01093
1917.15566	0.01113
1916.1913	0.01135
1915.22693	0.01156
1914.26257	0.01177
1913.2982	0.012
1912.33384	0.01224
1911.36948	0.01245
1910.40511	0.01262
1909.44075	0.0128
1908.47638	0.01301
1907.51202	0.01324
1906.54766	0.01343
1905.58329	0.01336
1904.61893	0.01331
1903.65456	0.0134
1902.6902	0.01362
1901.72583	0.01397
1900.76147	0.01425
1899.79711	0.01438
1898.83274	0.01439
1897.86838	0.01433
1896.90401	0.01425
1895.93965	0.0142
1894.97529	0.0142
1894.01092	0.01428
1893.04656	0.01444
1892.08219	0.01465
1891.11783	0.01494
1890.15347	0.01528
1889.1891	0.01567
1888.22474	0.01612
1887.26037	0.01663
1886.29601	0.01719
1885.33165	0.0178
1884.36728	0.0184
1883.40292	0.01894
1882.43855	0.01952
1881.47419	0.02028
1880.50983	0.02105
1879.54546	0.02152
1878.5811	0.02152
1877.61673	0.02108
1876.65237	0.02046
1875.68801	0.01998
1874.72364	0.01964
1873.75928	0.01938
1872.79491	0.01918
1871.83055	0.01905
1870.86619	0.01905
1869.90182	0.01916
1868.93746	0.01933
1867.97309	0.01958
1867.00873	0.01994
1866.04437	0.02043
1865.08	0.02105
1864.11564	0.02179
1863.15127	0.02267
1862.18691	0.02368
1861.22255	0.02487
1860.25818	0.02625
1859.29382	0.02762
1858.32945	0.02878
1857.36509	0.02966
1856.40073	0.03031
1855.43636	0.03063
1854.472	0.03065
1853.50763	0.03064
1852.54327	0.03074
1851.57891	0.03096
1850.61454	0.03134
1849.65018	0.03188
1848.68581	0.03252
1847.72145	0.03316
1846.75709	0.03385
1845.79272	0.03466
1844.82836	0.03565
1843.86399	0.03684
1842.89963	0.03832
1841.93527	0.04011
1840.9709	0.04182
1840.00654	0.04324
1839.04217	0.04468
1838.07781	0.04639
1837.11345	0.04828
1836.14908	0.04998
1835.18472	0.05156
1834.22035	0.0532
1833.25599	0.05477
1832.29163	0.05612
1831.32726	0.05754
1830.3629	0.05935
1829.39853	0.06148
1828.43417	0.06383
1827.46981	0.06639
1826.50544	0.06915
1825.54108	0.0721
1824.57671	0.07532
1823.61235	0.07891
1822.64799	0.08278
1821.68362	0.08673
1820.71926	0.09085
1819.75489	0.09524
1818.79053	0.09968
1817.82617	0.10396
1816.8618	0.10845
1815.89744	0.11355
1814.93307	0.11922
1813.96871	0.12512
1813.00435	0.13106
1812.03998	0.1373
1811.07562	0.14381
1810.11125	0.15051
1809.14689	0.15765
1808.18253	0.16531
1807.21816	0.17324
1806.2538	0.18138
1805.28943	0.18993
1804.32507	0.19878
1803.36071	0.20758
1802.39634	0.21627
1801.43198	0.22499
1800.46761	0.2338
1799.50325	0.24268
1798.53889	0.25174
1797.57452	0.26124
1796.61016	0.27105
1795.64579	0.28104
1794.68143	0.29152
1793.71707	0.30278
1792.7527	0.31482
1791.78834	0.32745
1790.82397	0.3405
1789.85961	0.35401
1788.89525	0.36802
1787.93088	0.38231
1786.96652	0.39655
1786.00215	0.41005
1785.03779	0.42217
1784.07343	0.43261
1783.10906	0.44093
1782.1447	0.44677
1781.18033	0.45006
1780.21597	0.45106
1779.25161	0.45007
1778.28724	0.44689
1777.32288	0.44154
1776.35851	0.43414
1775.39415	0.42493
1774.42979	0.41425
1773.46542	0.40229
1772.50106	0.38928
1771.53669	0.37597
1770.57233	0.36297
1769.60797	0.35063
1768.6436	0.33909
1767.67924	0.32852
1766.71487	0.31935
1765.75051	0.3118
1764.78615	0.30591
1763.82178	0.30148
1762.85742	0.29816
1761.89305	0.29628
1760.92869	0.29642
1759.96432	0.29854
1758.99996	0.30276
1758.0356	0.30904
1757.07123	0.31674
1756.10687	0.32498
1755.1425	0.33302
1754.17814	0.34048
1753.21378	0.34711
1752.24941	0.35283
1751.28505	0.35731
1750.32068	0.35987
1749.35632	0.36045
1748.39196	0.35958
1747.42759	0.35752
1746.46323	0.35437
1745.49886	0.3497
1744.5345	0.3431
1743.57014	0.33567
1742.60577	0.32816
1741.64141	0.32078
1740.67704	0.31354
1739.71268	0.30686
1738.74832	0.30154
1737.78395	0.29801
1736.81959	0.2961
1735.85522	0.2956
1734.89086	0.29626
1733.9265	0.29786
1732.96213	0.30026
1731.99777	0.30342
1731.0334	0.3074
1730.06904	0.31228
1729.10468	0.31722
1728.14031	0.32211
1727.17595	0.32752
1726.21158	0.33366
1725.24722	0.34058
1724.28286	0.34845
1723.31849	0.3572
1722.35413	0.36649
1721.38976	0.37631
1720.4254	0.38721
1719.46104	0.39872
1718.49667	0.4103
1717.53231	0.42138
1716.56794	0.4313
1715.60358	0.43943
1714.63922	0.4452
1713.67485	0.44844
1712.71049	0.44931
1711.74612	0.44802
1710.78176	0.44336
1709.8174	0.43548
1708.85303	0.42497
1707.88867	0.41206
1706.9243	0.39624
1705.95994	0.37784
1704.99558	0.35869
1704.03121	0.33971
1703.06685	0.32115
1702.10248	0.30387
1701.13812	0.28859
1700.17376	0.27553
1699.20939	0.26482
1698.24503	0.25661
1697.28066	0.25109
1696.3163	0.24837
1695.35194	0.24695
1694.38757	0.2458
1693.42321	0.24532
1692.45884	0.24588
1691.49448	0.2473
1690.53012	0.2494
1689.56575	0.25227
1688.60139	0.25558
1687.63702	0.2584
1686.67266	0.26121
1685.7083	0.26383
1684.74393	0.26615
1683.77957	0.26812
1682.8152	0.27024
1681.85084	0.27267
1680.88648	0.27505
1679.92211	0.27687
1678.95775	0.27836
1677.99338	0.27981
1677.02902	0.28142
1676.06466	0.2835
1675.10029	0.28626
1674.13593	0.28928
1673.17156	0.2922
1672.2072	0.29478
1671.24284	0.29819
1670.27847	0.30329
1669.31411	0.30959
1668.34974	0.31672
1667.38538	0.32464
1666.42102	0.33357
1665.45665	0.34356
1664.49229	0.35388
1663.52792	0.36245
1662.56356	0.36952
1661.5992	0.37564
1660.63483	0.38071
1659.67047	0.38448
1658.7061	0.38642
1657.74174	0.38547
1656.77738	0.38139
1655.81301	0.37514
1654.84865	0.3673
1653.88428	0.3581
1652.91992	0.34772
1651.95556	0.33623
1650.99119	0.32386
1650.02683	0.31139
1649.06246	0.2995
1648.0981	0.28821
1647.13374	0.27733
1646.16937	0.26659
1645.20501	0.25655
1644.24064	0.2477
1643.27628	0.24022
1642.31192	0.23394
1641.34755	0.22812
1640.38319	0.22236
1639.41882	0.21788
1638.45446	0.21449
1637.4901	0.21208
1636.52573	0.21048
1635.56137	0.20916
1634.597	0.20749
1633.63264	0.2055
1632.66828	0.2037
1631.70391	0.20224
1630.73955	0.20097
1629.77518	0.19979
1628.81082	0.19861
1627.84646	0.19686
1626.88209	0.19453
1625.91773	0.19196
1624.95336	0.18914
1623.989	0.18605
1623.02464	0.18302
1622.06027	0.18077
1621.09591	0.17929
1620.13154	0.17826
1619.16718	0.17746
1618.20281	0.17673
1617.23845	0.17581
1616.27409	0.17457
1615.30972	0.1731
1614.34536	0.17152
1613.38099	0.16967
1612.41663	0.16719
1611.45227	0.1637
1610.4879	0.15921
1609.52354	0.15419
1608.55917	0.14877
1607.59481	0.14296
1606.63045	0.13672
1605.66608	0.12995
1604.70172	0.12263
1603.73735	0.11557
1602.77299	0.10928
1601.80863	0.10372
1600.84426	0.09882
1599.8799	0.09459
1598.91553	0.09098
1597.95117	0.08782
1596.98681	0.08492
1596.02244	0.08221
1595.05808	0.07957
1594.09371	0.07691
1593.12935	0.07422
1592.16499	0.07141
1591.20062	0.06836
1590.23626	0.06513
1589.27189	0.0619
1588.30753	0.05873
1587.34317	0.05509
1586.3788	0.05087
1585.41444	0.0465
1584.45007	0.04219
1583.48571	0.03809
1582.52135	0.03439
1581.55698	0.03118
1580.59262	0.02797
1579.62825	0.02472
1578.66389	0.02183
1577.69953	0.01959
1576.73516	0.01797
1575.7708	0.01683
1574.80643	0.01631
1573.84207	0.01668
1572.87771	0.01813
1571.91334	0.02081
1570.94898	0.02483
1569.98461	0.02817
1569.02025	0.03043
1568.05589	0.03276
1567.09152	0.03553
1566.12716	0.03855
1565.16279	0.0412
1564.19843	0.0433
1563.23407	0.04556
1562.2697	0.04845
1561.30534	0.05141
1560.34097	0.05406
1559.37661	0.05656
1558.41225	0.05895
1557.44788	0.06113
1556.48352	0.06349
1555.51915	0.06618
1554.55479	0.06914
1553.59043	0.07217
1552.62606	0.07539
1551.6617	0.07917
1550.69733	0.08248
1549.73297	0.08551
1548.76861	0.08897
1547.80424	0.09258
1546.83988	0.09548
1545.87551	0.09927
1544.91115	0.10457
1543.94679	0.11039
1542.98242	0.11646
1542.01806	0.12286
1541.05369	0.13006
1540.08933	0.13808
1539.12497	0.1463
1538.1606	0.15414
1537.19624	0.16177
1536.23187	0.16934
1535.26751	0.17656
1534.30315	0.18326
1533.33878	0.18916
1532.37442	0.1934
1531.41005	0.1956
1530.44569	0.19601
1529.48133	0.19506
1528.51696	0.19269
1527.5526	0.18809
1526.58823	0.1827
1525.62387	0.17735
1524.65951	0.17192
1523.69514	0.16636
1522.73078	0.1605
1521.76641	0.15433
1520.80205	0.14831
1519.83769	0.14295
1518.87332	0.1383
1517.90896	0.13335
1516.94459	0.12742
1515.98023	0.12127
1515.01587	0.11551
1514.0515	0.11051
1513.08714	0.10623
1512.12277	0.10272
1511.15841	0.10003
1510.19405	0.09767
1509.22968	0.09497
1508.26532	0.09246
1507.30095	0.09061
1506.33659	0.08924
1505.37223	0.0881
1504.40786	0.08705
1503.4435	0.08684
1502.47913	0.08787
1501.51477	0.08956
1500.55041	0.09125
1499.58604	0.09313
1498.62168	0.09529
1497.65731	0.09769
1496.69295	0.10028
1495.72859	0.10294
1494.76422	0.10557
1493.79986	0.10929
1492.83549	0.11515
1491.87113	0.12251
1490.90677	0.1308
1489.9424	0.1397
1488.97804	0.149
1488.01367	0.15835
1487.04931	0.16712
1486.08495	0.17518
1485.12058	0.18263
1484.15622	0.18899
1483.19185	0.19392
1482.22749	0.198
1481.26312	0.20163
1480.29876	0.20489
1479.3344	0.20765
1478.37003	0.20964
1477.40567	0.21121
1476.4413	0.21282
1475.47694	0.21432
1474.51258	0.21615
1473.54821	0.21878
1472.58385	0.22232
1471.61948	0.22675
1470.65512	0.23195
1469.69076	0.23737
1468.72639	0.24211
1467.76203	0.24553
1466.79766	0.24779
1465.8333	0.2491
1464.86894	0.2496
1463.90457	0.24933
1462.94021	0.24841
1461.97584	0.24688
1461.01148	0.24479
1460.04712	0.24262
1459.08275	0.24107
1458.11839	0.24007
1457.15402	0.23961
1456.18966	0.23978
1455.2253	0.2406
1454.26093	0.2419
1453.29657	0.2434
1452.3322	0.24507
1451.36784	0.24725
1450.40348	0.24993
1449.43911	0.25294
1448.47475	0.25597
1447.51038	0.25819
1446.54602	0.25919
1445.58166	0.25895
1444.61729	0.25779
1443.65293	0.25636
1442.68856	0.25502
1441.7242	0.25383
1440.75984	0.25261
1439.79547	0.25135
1438.83111	0.25037
1437.86674	0.24991
1436.90238	0.25002
1435.93802	0.25049
1434.97365	0.25109
1434.00929	0.25217
1433.04492	0.25426
1432.08056	0.25768
1431.1162	0.26244
1430.15183	0.2681
1429.18747	0.27448
1428.2231	0.28156
1427.25874	0.28924
1426.29438	0.29723
1425.33001	0.3051
1424.36565	0.3125
1423.40128	0.3197
1422.43692	0.32672
1421.47256	0.33333
1420.50819	0.33939
1419.54383	0.34489
1418.57946	0.34981
1417.6151	0.35425
1416.65074	0.35832
1415.68637	0.36184
1414.72201	0.36472
1413.75764	0.36708
1412.79328	0.36891
1411.82892	0.37031
1410.86455	0.37169
1409.90019	0.3731
1408.93582	0.37443
1407.97146	0.37567
1407.0071	0.37669
1406.04273	0.37735
1405.07837	0.37759
1404.114	0.37762
1403.14964	0.37766
1402.18528	0.37777
1401.22091	0.37804
1400.25655	0.37865
1399.29218	0.37983
1398.32782	0.38153
1397.36346	0.38364
1396.39909	0.38622
1395.43473	0.38931
1394.47036	0.39269
1393.506	0.39591
1392.54164	0.39859
1391.57727	0.40061
1390.61291	0.40186
1389.64854	0.40215
1388.68418	0.40138
1387.71982	0.39957
1386.75545	0.39682
1385.79109	0.39343
1384.82672	0.38961
1383.86236	0.38554
1382.898	0.38139
1381.93363	0.37754
1380.96927	0.37434
1380.0049	0.37163
1379.04054	0.36908
1378.07618	0.36656
1377.11181	0.36407
1376.14745	0.36144
1375.18308	0.35849
1374.21872	0.35499
1373.25436	0.35068
1372.28999	0.34539
1371.32563	0.33906
1370.36126	0.33175
1369.3969	0.32355
1368.43254	0.31461
1367.46817	0.30515
1366.50381	0.29544
1365.53944	0.28583
1364.57508	0.27676
1363.61072	0.26854
1362.64635	0.26148
1361.68199	0.25601
1360.71762	0.2525
1359.75326	0.25094
1358.7889	0.25109
1357.82453	0.25268
1356.86017	0.25541
1355.8958	0.25912
1354.93144	0.26386
1353.96708	0.26971
1353.00271	0.27665
1352.03835	0.28447
1351.07398	0.29265
1350.10962	0.30114
1349.14526	0.31043
1348.18089	0.3208
1347.21653	0.33223
1346.25216	0.34457
1345.2878	0.35762
1344.32344	0.37109
1343.35907	0.38462
1342.39471	0.39789
1341.43034	0.41064
1340.46598	0.42252
1339.50161	0.43314
1338.53725	0.44217
1337.57289	0.44929
1336.60852	0.45431
1335.64416	0.4571
1334.67979	0.45762
1333.71543	0.45587
1332.75107	0.45199
1331.7867	0.44613
1330.82234	0.43844
1329.85797	0.42908
1328.89361	0.41814
1327.92925	0.40592
1326.96488	0.393
1326.00052	0.37997
1325.03615	0.36709
1324.07179	0.35456
1323.10743	0.34259
1322.14306	0.33147
1321.1787	0.32144
1320.21433	0.31276
1319.24997	0.30562
1318.28561	0.30012
1317.32124	0.29631
1316.35688	0.2942
1315.39251	0.29384
1314.42815	0.29519
1313.46379	0.29814
1312.49942	0.30242
1311.53506	0.30777
1310.57069	0.31386
1309.60633	0.3203
1308.64197	0.32661
1307.6776	0.33223
1306.71324	0.33677
1305.74887	0.34
1304.78451	0.34175
1303.82015	0.3418
1302.85578	0.33998
1301.89142	0.33623
1300.92705	0.33063
1299.96269	0.32338
1298.99833	0.31468
1298.03396	0.30468
1297.0696	0.29366
1296.10523	0.28201
1295.14087	0.27012
1294.17651	0.25829
1293.21214	0.24677
1292.24778	0.23585
1291.28341	0.22582
1290.31905	0.21686
1289.35469	0.20901
1288.39032	0.20228
1287.42596	0.19673
1286.46159	0.19246
1285.49723	0.18951
1284.53287	0.18787
1283.5685	0.18753
1282.60414	0.18859
1281.63977	0.19111
1280.67541	0.19506
1279.71105	0.20027
1278.74668	0.20655
1277.78232	0.21376
1276.81795	0.22178
1275.85359	0.23036
1274.88923	0.23931
1273.92486	0.2485
1272.9605	0.25789
1271.99613	0.26739
1271.03177	0.27679
1270.06741	0.28579
1269.10304	0.29415
1268.13868	0.30173
1267.17431	0.30846
1266.20995	0.31422
1265.24559	0.31893
1264.28122	0.32262
1263.31686	0.32549
1262.35249	0.32778
1261.38813	0.32962
1260.42377	0.33108
1259.4594	0.33221
1258.49504	0.33321
1257.53067	0.33421
1256.56631	0.3353
1255.60195	0.3365
1254.63758	0.33789
1253.67322	0.33962
1252.70885	0.34181
1251.74449	0.34436
1250.78013	0.34707
1249.81576	0.34978
1248.8514	0.35238
1247.88703	0.35481
1246.92267	0.35694
1245.95831	0.35856
1244.99394	0.3596
1244.02958	0.36013
1243.06521	0.36028
1242.10085	0.3601
1241.13649	0.35965
1240.17212	0.35903
1239.20776	0.3584
1238.24339	0.35784
1237.27903	0.35739
1236.31467	0.35707
1235.3503	0.35712
1234.38594	0.35796
1233.42157	0.35997
1232.45721	0.36324
1231.49285	0.36771
1230.52848	0.37318
1229.56412	0.37938
1228.59975	0.38596
1227.63539	0.39251
1226.67103	0.39872
1225.70666	0.40447
1224.7423	0.40976
1223.77793	0.41453
1222.81357	0.41861
1221.84921	0.42185
1220.88484	0.42424
1219.92048	0.42589
1218.95611	0.42685
1217.99175	0.42704
1217.02739	0.4264
1216.06302	0.425
1215.09866	0.42305
1214.13429	0.42078
1213.16993	0.41833
1212.20557	0.41581
1211.2412	0.4134
1210.27684	0.41117
1209.31247	0.40901
1208.34811	0.40664
1207.38375	0.40383
1206.41938	0.40055
1205.45502	0.39694
1204.49065	0.39313
1203.52629	0.3892
1202.56193	0.38524
1201.59756	0.38148
1200.6332	0.37814
1199.66883	0.3753
1198.70447	0.37291
1197.7401	0.37092
1196.77574	0.36942
1195.81138	0.36851
1194.84701	0.36818
1193.88265	0.36832
1192.91828	0.36883
1191.95392	0.36977
1190.98956	0.37119
1190.02519	0.37305
1189.06083	0.37517
1188.09646	0.37754
1187.1321	0.38034
1186.16774	0.38382
1185.20337	0.38819
1184.23901	0.39355
1183.27464	0.40001
1182.31028	0.40772
1181.34592	0.41668
1180.38155	0.42671
1179.41719	0.43746
1178.45282	0.44865
1177.48846	0.46015
1176.5241	0.47183
1175.55973	0.48351
1174.59537	0.49495
1173.631	0.50612
1172.66664	0.51711
1171.70228	0.528
1170.73791	0.53873
1169.77355	0.5492
1168.80918	0.55941
1167.84482	0.5695
1166.88046	0.57953
1165.91609	0.5894
1164.95173	0.59898
1163.98736	0.60817
1163.023	0.61692
1162.05864	0.6251
1161.09427	0.63236
1160.12991	0.63827
1159.16554	0.64246
1158.20118	0.64463
1157.23682	0.64447
1156.27245	0.64163
1155.30809	0.63595
1154.34372	0.62751
1153.37936	0.61657
1152.415	0.60346
1151.45063	0.58851
1150.48627	0.57211
1149.5219	0.55478
1148.55754	0.53709
1147.59318	0.51957
1146.62881	0.50266
1145.66445	0.48673
1144.70008	0.4722
1143.73572	0.45941
1142.77136	0.44855
1141.80699	0.43966
1140.84263	0.43268
1139.87826	0.42762
1138.9139	0.42446
1137.94954	0.42307
1136.98517	0.42319
1136.02081	0.42458
1135.05644	0.42709
1134.09208	0.43062
1133.12772	0.43508
1132.16335	0.44032
1131.19899	0.44624
1130.23462	0.45287
1129.27026	0.46026
1128.3059	0.46839
1127.34153	0.47717
1126.37717	0.48658
1125.4128	0.49673
1124.44844	0.50772
1123.48408	0.51955
1122.51971	0.53215
1121.55535	0.54547
1120.59098	0.55942
1119.62662	0.57391
1118.66226	0.58878
1117.69789	0.60385
1116.73353	0.61898
1115.76916	0.63414
1114.8048	0.6493
1113.84044	0.66434
1112.87607	0.67908
1111.91171	0.6933
1110.94734	0.7068
1109.98298	0.71925
1109.01862	0.73025
1108.05425	0.73942
1107.08989	0.74656
1106.12552	0.75158
1105.16116	0.75448
1104.1968	0.75528
1103.23243	0.75411
1102.26807	0.75123
1101.3037	0.747
1100.33934	0.74181
1099.37498	0.73603
1098.41061	0.73005
1097.44625	0.72435
1096.48188	0.7195
1095.51752	0.71608
1094.55316	0.71459
1093.58879	0.71545
1092.62443	0.71913
1091.66006	0.72597
1090.6957	0.73608
1089.73134	0.74933
1088.76697	0.76541
1087.80261	0.78386
1086.83824	0.80401
1085.87388	0.82505
1084.90952	0.84602
1083.94515	0.86596
1082.98079	0.88397
1082.01642	0.89924
1081.05206	0.91102
1080.0877	0.91882
1079.12333	0.92247
1078.15897	0.92215
1077.1946	0.91829
1076.23024	0.91153
1075.26588	0.90265
1074.30151	0.89267
1073.33715	0.88263
1072.37278	0.87346
1071.40842	0.86589
1070.44406	0.86058
1069.47969	0.85811
1068.51533	0.85892
1067.55096	0.86323
1066.5866	0.87097
1065.62224	0.88183
1064.65787	0.89522
1063.69351	0.9103
1062.72914	0.92596
1061.76478	0.94102
1060.80042	0.95446
1059.83605	0.96557
1058.87169	0.97398
1057.90732	0.97974
1056.94296	0.98321
1055.97859	0.985
1055.01423	0.98577
1054.04987	0.98611
1053.0855	0.98646
1052.12114	0.98708
1051.15677	0.98813
1050.19241	0.98963
1049.22805	0.99148
1048.26368	0.99344
1047.29932	0.99528
1046.33495	0.99688
1045.37059	0.99824
1044.40623	0.99934
1043.44186	1
1042.4775	0.99999
1041.51313	0.99912
1040.54877	0.9973
1039.58441	0.99444
1038.62004	0.99054
1037.65568	0.98574
1036.69131	0.98043
1035.72695	0.97513
1034.76259	0.9703
1033.79822	0.96612
1032.83386	0.96259
1031.86949	0.95969
1030.90513	0.95736
1029.94077	0.95544
1028.9764	0.9537
1028.01204	0.95198
1027.04767	0.95025
1026.08331	0.94861
1025.11895	0.94719
1024.15458	0.94609
1023.19022	0.94543
1022.22585	0.94538
1021.26149	0.94598
1020.29713	0.94707
1019.33276	0.94831
1018.3684	0.94935
1017.40403	0.94997
1016.43967	0.94997
1015.47531	0.94905
1014.51094	0.94688
1013.54658	0.94323
1012.58221	0.93801
1011.61785	0.93121
1010.65349	0.92281
1009.68912	0.91284
1008.72476	0.90153
1007.76039	0.88921
1006.79603	0.87629
1005.83167	0.86302
1004.8673	0.84963
1003.90294	0.83642
1002.93857	0.82375
1001.97421	0.81193
1001.00985	0.80107
1000.04548	0.79115
999.08112	0.78211
998.11675	0.77389
997.15239	0.76633
996.18803	0.7591
995.22366	0.75187
994.2593	0.74442
993.29493	0.73664
992.33057	0.72841
991.36621	0.71953
990.40184	0.70976
989.43748	0.69898
988.47311	0.68726
987.50875	0.67466
986.54439	0.66113
985.58002	0.64659
984.61566	0.63108
983.65129	0.61476
982.68693	0.59772
981.72257	0.57996
980.7582	0.56148
979.79384	0.54242
978.82947	0.52311
977.86511	0.50386
976.90075	0.48481
975.93638	0.466
974.97202	0.44758
974.00765	0.42976
973.04329	0.4127
972.07893	0.39642
971.11456	0.38099
970.1502	0.36659
969.18583	0.3535
968.22147	0.34178
967.25711	0.33129
966.29274	0.3218
965.32838	0.31326
964.36401	0.30565
963.39965	0.29887
962.43529	0.29268
961.47092	0.28684
960.50656	0.2813
959.54219	0.27616
958.57783	0.27151
957.61347	0.26748
956.6491	0.26431
955.68474	0.26242
954.72037	0.2622
953.75601	0.26381
952.79165	0.26714
951.82728	0.272
950.86292	0.27825
949.89855	0.28572
948.93419	0.29405
947.96983	0.30271
947.00546	0.31127
946.0411	0.31949
945.07673	0.32713
944.11237	0.33384
943.14801	0.3392
942.18364	0.34297
941.21928	0.34506
940.25491	0.34545
939.29055	0.34397
938.32619	0.3405
937.36182	0.33516
936.39746	0.32839
935.43309	0.32076
934.46873	0.31277
933.50437	0.3048
932.54	0.2972
931.57564	0.29027
930.61127	0.28407
929.64691	0.27835
928.68255	0.27273
927.71818	0.26692
926.75382	0.26074
925.78945	0.25408
924.82509	0.24682
923.86073	0.23889
922.89636	0.23036
921.932	0.22147
920.96763	0.21238
920.00327	0.20311
919.03891	0.19362
918.07454	0.18392
917.11018	0.17413
916.14581	0.16436
915.18145	0.15459
914.21708	0.14474
913.25272	0.13484
912.28836	0.12509
911.32399	0.11566
910.35963	0.1066
909.39526	0.09785
908.4309	0.08937
907.46654	0.08125
906.50217	0.07353
905.53781	0.06614
904.57344	0.05897
903.60908	0.05204
902.64472	0.04547
901.68035	0.03934
900.71599	0.0336
899.75162	0.02839
898.78726	0.02438
897.8229	0.02256
896.85853	0.02343
895.89417	0.0267
894.9298	0.0317
893.96544	0.03786
893.00108	0.04473
892.03671	0.05188
891.07235	0.05884
890.10798	0.06515
889.14362	0.0706
888.17926	0.0752
887.21489	0.07892
886.25053	0.0816
885.28616	0.08312
884.3218	0.08355
883.35744	0.08303
882.39307	0.08164
881.42871	0.07938
880.46434	0.07643
879.49998	0.07325
878.53562	0.07052
877.57125	0.06894
876.60689	0.06917
875.64252	0.07181
874.67816	0.0771
873.7138	0.08461
872.74943	0.09353
871.78507	0.10317
870.8207	0.11299
869.85634	0.12268
868.89198	0.13198
867.92761	0.14055
866.96325	0.148
865.99888	0.15404
865.03452	0.15863
864.07016	0.16177
863.10579	0.16344
862.14143	0.16355
861.17706	0.16208
860.2127	0.15915
859.24834	0.15495
858.28397	0.14969
857.31961	0.14362
856.35524	0.13709
855.39088	0.13049
854.42652	0.12409
853.46215	0.11802
852.49779	0.11234
851.53342	0.10708
850.56906	0.10231
849.6047	0.09807
848.64033	0.09428
847.67597	0.09072
846.7116	0.08718
845.74724	0.08354
844.78288	0.0798
843.81851	0.07584
842.85415	0.07157
841.88978	0.06689
840.92542	0.06187
839.96106	0.0566
838.99669	0.05108
838.03233	0.04525
837.06796	0.03908
836.1036	0.03271
835.13924	0.02637
834.17487	0.02034
833.21051	0.01481
832.24614	0.00993
831.28178	0.00592
830.31742	0.00297
829.35305	0.00112
828.38869	1.90323E-4
827.42432	0
826.45996	4.65582E-4
825.4956	0.00153
824.53123	0.00305
823.56687	0.00479
822.6025	0.00655
821.63814	0.00823
820.67378	0.00977
819.70941	0.01111
818.74505	0.0121
817.78068	0.01265
816.81632	0.01278
815.85196	0.0126
814.88759	0.01215
813.92323	0.01142
812.95886	0.01049
811.9945	0.00959
811.03014	0.00899
810.06577	0.00882
809.10141	0.00908
808.13704	0.0097
807.17268	0.01069
806.20832	0.01205
805.24395	0.01368
804.27959	0.01535
803.31522	0.01694
802.35086	0.01852
801.3865	0.02025
800.42213	0.02208
799.45777	0.02384
798.4934	0.02545
797.52904	0.02698
796.56468	0.02857
795.60031	0.03017
794.63595	0.03164
793.67158	0.03291
792.70722	0.03412
791.74286	0.03545
790.77849	0.03702
789.81413	0.03891
788.84976	0.04138
787.8854	0.04473
786.92104	0.04913
785.95667	0.05444
784.99231	0.06032
784.02794	0.06649
783.06358	0.07287
782.09922	0.07939
781.13485	0.08589
780.17049	0.09219
779.20612	0.09829
778.24176	0.10434
777.2774	0.11048
776.31303	0.11663
775.34867	0.12263
774.3843	0.12838
773.41994	0.13391
772.45557	0.13926
771.49121	0.14432
770.52685	0.14893
769.56248	0.15315
768.59812	0.15728
767.63375	0.16157
766.66939	0.1661
765.70503	0.17075
764.74066	0.17542
763.7763	0.18009
762.81193	0.18473
761.84757	0.18915
760.88321	0.19311
759.91884	0.19656
758.95448	0.19963
757.99011	0.20231
757.02575	0.20444
756.06139	0.20583
755.09702	0.20648
754.13266	0.20651
753.16829	0.20597
752.20393	0.20462
751.23957	0.20227
750.2752	0.19895
749.31084	0.1949
748.34647	0.1903
747.38211	0.18506
746.41775	0.17911
745.45338	0.17257
744.48902	0.16574
743.52465	0.15882
742.56029	0.15183
741.59593	0.14483
740.63156	0.13811
739.6672	0.13208
738.70283	0.12691
737.73847	0.12245
736.77411	0.11849
735.80974	0.11504
734.84538	0.11224
733.88101	0.11011
732.91665	0.10847
731.95229	0.10711
730.98792	0.10607
730.02356	0.10558
729.05919	0.10569
728.09483	0.10623
727.13047	0.10707
726.1661	0.10832
725.20174	0.11012
724.23737	0.11237
723.27301	0.11478
722.30865	0.11722
721.34428	0.11985
720.37992	0.12291
719.41555	0.12634
718.45119	0.12991
717.48683	0.13348
716.52246	0.13713
715.5581	0.14091
714.59373	0.14457
713.62937	0.14775
712.66501	0.15031
711.70064	0.15246
710.73628	0.15436
709.77191	0.15587
708.80755	0.15668
707.84319	0.15677
706.87882	0.15651
705.91446	0.15614
704.95009	0.15548
703.98573	0.15427
703.02137	0.1525
702.057	0.15049
701.09264	0.14846
700.12827	0.14635
699.16391	0.14401
698.19955	0.14158
697.23518	0.1394
696.27082	0.13766
695.30645	0.13619
694.34209	0.13473
693.37773	0.13329
692.41336	0.13209
691.449	0.1312
690.48463	0.13043
689.52027	0.1296
688.55591	0.12885
687.59154	0.12847
686.62718	0.12848
685.66281	0.12866
684.69845	0.12888
683.73409	0.12931
682.76972	0.13019
681.80536	0.13152
680.84099	0.13316
679.87663	0.13444
678.91227	0.13447
677.9479	0.13438
676.98354	0.13441
676.01917	0.13438
675.05481	0.13424
674.09045	0.13414
673.12608	0.13422
672.16172	0.13439
671.19735	0.1344
670.23299	0.13419
669.26863	0.13392
668.30426	0.13378
667.3399	0.13367
666.37553	0.1334
665.41117	0.13304
664.44681	0.1329
663.48244	0.13316
662.51808	0.13375
661.55371	0.1345
660.58935	0.13541
659.62499	0.13655
658.66062	0.13787
657.69626	0.13901
656.73189	0.13931
655.76753	0.13895
654.80317	0.13943
653.8388	0.14039
652.87444	0.14151
651.91007	0.14253
650.94571	0.14343
649.98135	0.14439
649.01698	0.1455
648.05262	0.14656
647.08825	0.14738
646.12389	0.14794
645.15953	0.14843
644.19516	0.14892
643.2308	0.1493
642.26643	0.14951
641.30207	0.14968
640.33771	0.14996
639.37334	0.15035
638.40898	0.15073
637.44461	0.15096
636.48025	0.15105
635.51589	0.15119
634.55152	0.15148
633.58716	0.15184
632.62279	0.1522
631.65843	0.15268
630.69406	0.15347
629.7297	0.15455
628.76534	0.15568
627.80097	0.15679
626.83661	0.15802
625.87224	0.15952
624.90788	0.16127
623.94352	0.1632
622.97915	0.16537
622.01479	0.16795
621.05042	0.17102
620.08606	0.17451
619.1217	0.17835
618.15733	0.18254
617.19297	0.18713
616.2286	0.19204
615.26424	0.19709
614.29988	0.20216
613.33551	0.20721
612.37115	0.21231
611.40678	0.2174
610.44242	0.22229
609.47806	0.22683
608.51369	0.23103
607.54933	0.23488
606.58496	0.23827
605.6206	0.24107
604.65624	0.24348
603.69187	0.24582
602.72751	0.2483
601.76314	0.25099
600.79878	0.25396
599.83442	0.25726
598.87005	0.2609
597.90569	0.26487
596.94132	0.26913
595.97696	0.27356
595.0126	0.27808
594.04823	0.28263
593.08387	0.28715
592.1195	0.29147
591.15514	0.29549
590.19078	0.29913
589.22641	0.30228
588.26205	0.30477
587.29768	0.30637
586.33332	0.30697
585.36896	0.30662
584.40459	0.30533
583.44023	0.30306
582.47586	0.29989
581.5115	0.29607
580.54714	0.29178
579.58277	0.28702
578.61841	0.28179
577.65404	0.27615
576.68968	0.27028
575.72532	0.26437
574.76095	0.25843
573.79659	0.2524
572.83222	0.24638
571.86786	0.24056
570.9035	0.23503
569.93913	0.22967
568.97477	0.22434
568.0104	0.21916
567.04604	0.21438
566.08168	0.20995
565.11731	0.20562
564.15295	0.20127
563.18858	0.19706
562.22422	0.19323
561.25986	0.18966
560.29549	0.18608
559.33113	0.18243
558.36676	0.17899
557.4024	0.17592
556.43804	0.17312
555.47367	0.17039
554.50931	0.16785
553.54494	0.16586
552.58058	0.16459
551.61622	0.16388
550.65185	0.16351
549.68749	0.16355
548.72312	0.16423
547.75876	0.16567
546.7944	0.16764
545.83003	0.16991
544.86567	0.17252
543.9013	0.17565
542.93694	0.17921
541.97258	0.18288
541.00821	0.18641
540.04385	0.1899
539.07948	0.1935
538.11512	0.19709
537.15076	0.20019
536.18639	0.20259
535.22203	0.20458
534.25766	0.20641
533.2933	0.20794
532.32894	0.20892
531.36457	0.20925
530.40021	0.20909
529.43584	0.20871
528.47148	0.20802
527.50712	0.20657
526.54275	0.20444
525.57839	0.2022
524.61402	0.20018
523.64966	0.1981
522.6853	0.19553
521.72093	0.19247
520.75657	0.18924
519.7922	0.18606
518.82784	0.18274
517.86348	0.17894
516.89911	0.17485
515.93475	0.17101
514.97038	0.16753
514.00602	0.16399
513.04166	0.16003
512.07729	0.15608
511.11293	0.15267
510.14856	0.14973
509.1842	0.14677
508.21984	0.14359
507.25547	0.1406
506.29111	0.1383
505.32674	0.13652
504.36238	0.13478
503.39802	0.13307
502.43365	0.1319
501.46929	0.13166
500.50492	0.13199
499.54056	0.13233
498.5762	0.13264
497.61183	0.13337
496.64747	0.13474
495.6831	0.13624
494.71874	0.13719
493.75437	0.13775
492.79001	0.13858
491.82565	0.13969
490.86128	0.14033
489.89692	0.14003
488.93255	0.13936
487.96819	0.139
487.00383	0.1388
486.03946	0.13826
485.0751	0.13733
484.11073	0.13624
483.14637	0.13506
482.18201	0.13353
481.21764	0.13136
480.25328	0.12856
479.28891	0.12571
478.32455	0.12324
477.36019	0.12083
476.39582	0.11794
475.43146	0.11459
474.46709	0.11143
473.50273	0.10878
472.53837	0.10608
471.574	0.10273
470.60964	0.09908
469.64527	0.09581
468.68091	0.09284
467.71655	0.08935
466.75218	0.08529
465.78782	0.08144
464.82345	0.07854
463.85909	0.07638
462.89473	0.07415
461.93036	0.07168
460.966	0.06942
460.00163	0.06783
459.03727	0.06697
458.07291	0.06632
457.10854	0.06555
456.14418	0.06514
455.17981	0.06546
454.21545	0.06605
453.25109	0.0661
452.28672	0.06568
451.32236	0.06572
450.35799	0.06654
449.39363	0.06736
448.42927	0.06759
447.4649	0.06754
446.50054	0.06774
445.53617	0.06805
444.57181	0.06788
443.60745	0.06729
442.64308	0.06673
441.67872	0.06657
440.71435	0.06657
439.74999	0.06632
438.78563	0.06603
437.82126	0.06635
436.8569	0.06751
435.89253	0.06898
434.92817	0.07009
433.96381	0.07083
432.99944	0.07188
432.03508	0.07353
431.07071	0.0755
430.10635	0.07666
429.14199	0.07636
428.17762	0.07561
427.21326	0.07453
426.24889	0.07248
425.28453	0.06933
424.32017	0.06583
423.3558	0.06279
422.39144	0.06006
421.42707	0.05673
420.46271	0.05255
419.49835	0.04804
418.53398	0.04394
417.56962	0.04036
416.60525	0.03679
415.64089	0.0334
414.67653	0.03107
413.71216	0.03014
412.7478	0.03003
411.78343	0.03021
410.81907	0.02962
409.85471	0.02937
408.89034	0.02947
407.92598	0.02991
406.96161	0.03069
405.99725	0.03181
405.03289	0.03327
404.06852	0.03508
403.10416	0.03723
402.13979	0.03972
401.17543	0.04255
400.21107	0.04573