3999.93888	6.31279E-4
3998.97458	6.39072E-4
3998.01027	6.62453E-4
3997.04597	6.7804E-4
3996.08166	6.93627E-4
3995.11735	7.09214E-4
3994.15305	7.24801E-4
3993.18874	7.32595E-4
3992.22444	7.24801E-4
3991.26013	7.24801E-4
3990.29583	7.32595E-4
3989.33152	7.40389E-4
3988.36722	7.32595E-4
3987.40291	7.17008E-4
3986.43861	6.93627E-4
3985.4743	6.93627E-4
3984.51	6.93627E-4
3983.54569	6.85834E-4
3982.58138	6.70247E-4
3981.61708	6.54659E-4
3980.65277	6.31279E-4
3979.68847	6.07898E-4
3978.72416	5.76724E-4
3977.75986	5.6893E-4
3976.79555	5.53343E-4
3975.83125	5.22169E-4
3974.86694	4.83201E-4
3973.90264	4.44233E-4
3972.93833	4.13059E-4
3971.97402	4.13059E-4
3971.00972	4.20852E-4
3970.04541	4.20852E-4
3969.08111	4.05265E-4
3968.1168	3.89678E-4
3967.1525	3.97472E-4
3966.18819	4.05265E-4
3965.22389	4.13059E-4
3964.25958	4.13059E-4
3963.29528	3.97472E-4
3962.33097	3.74091E-4
3961.36667	3.74091E-4
3960.40236	3.89678E-4
3959.43805	4.13059E-4
3958.47375	4.28646E-4
3957.50944	4.28646E-4
3956.54514	4.20852E-4
3955.58083	4.20852E-4
3954.61653	4.3644E-4
3953.65222	4.44233E-4
3952.68792	4.52027E-4
3951.72361	4.5982E-4
3950.75931	4.44233E-4
3949.795	4.28646E-4
3948.83069	4.44233E-4
3947.86639	4.5982E-4
3946.90208	4.83201E-4
3945.93778	4.98788E-4
3944.97347	4.90995E-4
3944.00917	4.75407E-4
3943.04486	4.67614E-4
3942.08056	4.83201E-4
3941.11625	4.98788E-4
3940.15195	5.06582E-4
3939.18764	5.06582E-4
3938.22333	4.98788E-4
3937.25903	4.83201E-4
3936.29472	4.83201E-4
3935.33042	4.98788E-4
3934.36611	5.06582E-4
3933.40181	4.75407E-4
3932.4375	4.3644E-4
3931.4732	4.3644E-4
3930.50889	4.52027E-4
3929.54459	4.75407E-4
3928.58028	4.90995E-4
3927.61598	4.83201E-4
3926.65167	4.5982E-4
3925.68736	4.28646E-4
3924.72306	4.13059E-4
3923.75875	4.44233E-4
3922.79445	4.75407E-4
3921.83014	4.83201E-4
3920.86584	4.44233E-4
3919.90153	4.13059E-4
3918.93723	4.20852E-4
3917.97292	4.28646E-4
3917.00862	4.3644E-4
3916.04431	4.67614E-4
3915.08	4.67614E-4
3914.1157	4.52027E-4
3913.15139	4.44233E-4
3912.18709	4.52027E-4
3911.22278	4.67614E-4
3910.25848	4.83201E-4
3909.29417	4.67614E-4
3908.32987	4.52027E-4
3907.36556	4.3644E-4
3906.40126	4.20852E-4
3905.43695	3.89678E-4
3904.47265	3.66298E-4
3903.50834	3.58504E-4
3902.54403	3.35123E-4
3901.57973	3.03949E-4
3900.61542	3.2733E-4
3899.65112	3.2733E-4
3898.68681	3.35123E-4
3897.72251	3.58504E-4
3896.7582	3.5071E-4
3895.7939	3.35123E-4
3894.82959	3.11743E-4
3893.86529	3.03949E-4
3892.90098	2.80568E-4
3891.93667	2.26013E-4
3890.97237	2.02633E-4
3890.00806	2.33807E-4
3889.04376	2.57188E-4
3888.07945	2.57188E-4
3887.11515	2.33807E-4
3886.15084	1.63665E-4
3885.18654	1.79252E-4
3884.22223	2.416E-4
3883.25793	2.72775E-4
3882.29362	2.72775E-4
3881.32932	2.416E-4
3880.36501	2.10426E-4
3879.4007	2.33807E-4
3878.4364	2.80568E-4
3877.47209	2.96155E-4
3876.50779	3.03949E-4
3875.54348	3.03949E-4
3874.57918	2.80568E-4
3873.61487	2.96155E-4
3872.65057	3.35123E-4
3871.68626	3.19536E-4
3870.72196	2.49394E-4
3869.75765	2.26013E-4
3868.79334	2.96155E-4
3867.82904	3.5071E-4
3866.86473	3.66298E-4
3865.90043	3.2733E-4
3864.93612	3.03949E-4
3863.97182	3.42917E-4
3863.00751	3.58504E-4
3862.04321	3.42917E-4
3861.0789	3.66298E-4
3860.1146	3.97472E-4
3859.15029	3.89678E-4
3858.18599	3.66298E-4
3857.22168	3.58504E-4
3856.25737	3.66298E-4
3855.29307	2.64981E-4
3854.32876	1.24697E-4
3853.36446	1.71458E-4
3852.40015	2.416E-4
3851.43585	2.96155E-4
3850.47154	3.97472E-4
3849.50724	4.44233E-4
3848.54293	4.67614E-4
3847.57863	4.75407E-4
3846.61432	4.75407E-4
3845.65001	4.75407E-4
3844.68571	4.5982E-4
3843.7214	4.67614E-4
3842.7571	4.98788E-4
3841.79279	5.14375E-4
3840.82849	4.90995E-4
3839.86418	4.83201E-4
3838.89988	4.3644E-4
3837.93557	3.97472E-4
3836.97127	4.5982E-4
3836.00696	5.06582E-4
3835.04266	4.98788E-4
3834.07835	5.22169E-4
3833.11404	5.22169E-4
3832.14974	4.90995E-4
3831.18543	5.06582E-4
3830.22113	5.61137E-4
3829.25682	5.84517E-4
3828.29252	5.61137E-4
3827.32821	5.22169E-4
3826.36391	5.22169E-4
3825.3996	5.53343E-4
3824.4353	5.61137E-4
3823.47099	5.61137E-4
3822.50668	5.06582E-4
3821.54238	4.20852E-4
3820.57807	4.20852E-4
3819.61377	4.98788E-4
3818.64946	5.6893E-4
3817.68516	5.6893E-4
3816.72085	4.5982E-4
3815.75655	4.13059E-4
3814.79224	4.90995E-4
3813.82794	5.53343E-4
3812.86363	5.6893E-4
3811.89932	5.84517E-4
3810.93502	5.76724E-4
3809.97071	5.53343E-4
3809.00641	5.29962E-4
3808.0421	4.83201E-4
3807.0778	4.52027E-4
3806.11349	5.06582E-4
3805.14919	5.53343E-4
3804.18488	5.37756E-4
3803.22058	4.90995E-4
3802.25627	4.05265E-4
3801.29197	3.66298E-4
3800.32766	4.5982E-4
3799.36335	5.06582E-4
3798.39905	4.75407E-4
3797.43474	4.20852E-4
3796.47044	3.89678E-4
3795.50613	4.20852E-4
3794.54183	4.67614E-4
3793.57752	4.75407E-4
3792.61322	4.5982E-4
3791.64891	4.3644E-4
3790.68461	4.28646E-4
3789.7203	4.44233E-4
3788.75599	4.52027E-4
3787.79169	4.52027E-4
3786.82738	4.3644E-4
3785.86308	4.05265E-4
3784.89877	3.81885E-4
3783.93447	3.81885E-4
3782.97016	3.97472E-4
3782.00586	4.20852E-4
3781.04155	4.13059E-4
3780.07725	3.58504E-4
3779.11294	3.35123E-4
3778.14864	3.58504E-4
3777.18433	3.81885E-4
3776.22002	3.89678E-4
3775.25572	3.81885E-4
3774.29141	3.66298E-4
3773.32711	3.35123E-4
3772.3628	3.11743E-4
3771.3985	2.96155E-4
3770.43419	2.64981E-4
3769.46989	2.64981E-4
3768.50558	2.88362E-4
3767.54128	2.88362E-4
3766.57697	2.49394E-4
3765.61266	2.49394E-4
3764.64836	2.88362E-4
3763.68405	3.19536E-4
3762.71975	3.19536E-4
3761.75544	2.96155E-4
3760.79114	2.49394E-4
3759.82683	2.1822E-4
3758.86253	2.416E-4
3757.89822	2.72775E-4
3756.93392	2.49394E-4
3755.96961	2.416E-4
3755.00531	2.33807E-4
3754.041	2.02633E-4
3753.07669	1.0911E-4
3752.11239	6.23485E-5
3751.14808	1.32491E-4
3750.18378	1.01316E-4
3749.21947	4.67614E-5
3748.25517	1.40284E-4
3747.29086	2.26013E-4
3746.32656	2.10426E-4
3745.36225	7.01421E-5
3744.39795	0
3743.43364	1.63665E-4
3742.46933	2.88362E-4
3741.50503	2.96155E-4
3740.54072	3.11743E-4
3739.57642	3.19536E-4
3738.61211	2.88362E-4
3737.64781	2.10426E-4
3736.6835	1.48078E-4
3735.7192	1.16903E-4
3734.75489	1.24697E-4
3733.79059	1.24697E-4
3732.82628	7.79356E-5
3731.86198	4.67614E-5
3730.89767	9.35228E-5
3729.93336	1.24697E-4
3728.96906	1.32491E-4
3728.00475	1.32491E-4
3727.04045	1.0911E-4
3726.07614	1.0911E-4
3725.11184	1.24697E-4
3724.14753	1.40284E-4
3723.18323	1.48078E-4
3722.21892	1.55871E-4
3721.25462	1.87046E-4
3720.29031	2.02633E-4
3719.326	2.02633E-4
3718.3617	2.02633E-4
3717.39739	2.10426E-4
3716.43309	2.1822E-4
3715.46878	2.1822E-4
3714.50448	2.1822E-4
3713.54017	1.87046E-4
3712.57587	1.24697E-4
3711.61156	1.40284E-4
3710.64726	1.87046E-4
3709.68295	1.94839E-4
3708.71865	2.26013E-4
3707.75434	2.72775E-4
3706.79003	2.88362E-4
3705.82573	3.19536E-4
3704.86142	3.2733E-4
3703.89712	3.2733E-4
3702.93281	3.19536E-4
3701.96851	3.11743E-4
3701.0042	3.35123E-4
3700.0399	3.89678E-4
3699.07559	4.13059E-4
3698.11129	4.20852E-4
3697.14698	4.3644E-4
3696.18267	4.52027E-4
3695.21837	4.67614E-4
3694.25406	4.83201E-4
3693.28976	4.90995E-4
3692.32545	4.67614E-4
3691.36115	4.28646E-4
3690.39684	4.5982E-4
3689.43254	4.52027E-4
3688.46823	4.05265E-4
3687.50393	4.83201E-4
3686.53962	5.76724E-4
3685.57531	6.07898E-4
3684.61101	6.46866E-4
3683.6467	7.09214E-4
3682.6824	7.71563E-4
3681.71809	8.18324E-4
3680.75379	8.49498E-4
3679.78948	8.88466E-4
3678.82518	9.58608E-4
3677.86087	0.00105
3676.89657	0.00108
3675.93226	0.00109
3674.96796	0.00119
3674.00365	0.00135
3673.03934	0.00149
3672.07504	0.00157
3671.11073	0.00161
3670.14643	0.00171
3669.18212	0.00184
3668.21782	0.00196
3667.25351	0.0021
3666.28921	0.00224
3665.3249	0.00238
3664.3606	0.0025
3663.39629	0.00262
3662.43198	0.00274
3661.46768	0.00285
3660.50337	0.00299
3659.53907	0.00314
3658.57476	0.00329
3657.61046	0.0034
3656.64615	0.00347
3655.68185	0.00362
3654.71754	0.00382
3653.75324	0.00401
3652.78893	0.00416
3651.82463	0.00428
3650.86032	0.00438
3649.89601	0.00448
3648.93171	0.00464
3647.9674	0.00482
3647.0031	0.00498
3646.03879	0.00515
3645.07449	0.0053
3644.11018	0.0054
3643.14588	0.0055
3642.18157	0.0056
3641.21727	0.0057
3640.25296	0.00578
3639.28865	0.00583
3638.32435	0.00588
3637.36004	0.00592
3636.39574	0.00598
3635.43143	0.00605
3634.46713	0.0061
3633.50282	0.00613
3632.53852	0.00617
3631.57421	0.0062
3630.60991	0.00621
3629.6456	0.00621
3628.6813	0.00628
3627.71699	0.00641
3626.75268	0.00651
3625.78838	0.00656
3624.82407	0.00662
3623.85977	0.0067
3622.89546	0.0068
3621.93116	0.00686
3620.96685	0.0069
3620.00255	0.00693
3619.03824	0.00701
3618.07394	0.00713
3617.10963	0.00726
3616.14532	0.00736
3615.18102	0.00743
3614.21671	0.00747
3613.25241	0.00754
3612.2881	0.00763
3611.3238	0.00776
3610.35949	0.00782
3609.39519	0.00786
3608.43088	0.00793
3607.46658	0.00803
3606.50227	0.00812
3605.53797	0.00824
3604.57366	0.00833
3603.60935	0.00839
3602.64505	0.00845
3601.68074	0.00851
3600.71644	0.00858
3599.75213	0.00867
3598.78783	0.00878
3597.82352	0.00885
3596.85922	0.00889
3595.89491	0.00894
3594.93061	0.00903
3593.9663	0.00915
3593.00199	0.00927
3592.03769	0.00938
3591.07338	0.00946
3590.10908	0.00951
3589.14477	0.00955
3588.18047	0.00963
3587.21616	0.00974
3586.25186	0.00985
3585.28755	0.00998
3584.32325	0.01008
3583.35894	0.01016
3582.39464	0.01028
3581.43033	0.01041
3580.46602	0.01052
3579.50172	0.0106
3578.53741	0.01068
3577.57311	0.01078
3576.6088	0.01089
3575.6445	0.011
3574.68019	0.01113
3573.71589	0.01123
3572.75158	0.01134
3571.78728	0.01146
3570.82297	0.01157
3569.85866	0.01169
3568.89436	0.0118
3567.93005	0.01191
3566.96575	0.01203
3566.00144	0.01216
3565.03714	0.01231
3564.07283	0.01246
3563.10853	0.01262
3562.14422	0.01278
3561.17992	0.01293
3560.21561	0.01308
3559.2513	0.01323
3558.287	0.01337
3557.32269	0.01354
3556.35839	0.01371
3555.39408	0.01386
3554.42978	0.01401
3553.46547	0.01415
3552.50117	0.01431
3551.53686	0.01449
3550.57256	0.01467
3549.60825	0.01484
3548.64395	0.01502
3547.67964	0.0152
3546.71533	0.01538
3545.75103	0.01559
3544.78672	0.0158
3543.82242	0.016
3542.85811	0.0162
3541.89381	0.01641
3540.9295	0.01661
3539.9652	0.0168
3539.00089	0.01699
3538.03659	0.01717
3537.07228	0.01734
3536.10797	0.01752
3535.14367	0.01767
3534.17936	0.01778
3533.21506	0.01786
3532.25075	0.01789
3531.28645	0.0179
3530.32214	0.01788
3529.35784	0.01781
3528.39353	0.01771
3527.42923	0.01758
3526.46492	0.01745
3525.50062	0.01733
3524.53631	0.01721
3523.572	0.0171
3522.6077	0.01701
3521.64339	0.01691
3520.67909	0.01684
3519.71478	0.0168
3518.75048	0.0168
3517.78617	0.01683
3516.82187	0.01685
3515.85756	0.01687
3514.89326	0.01694
3513.92895	0.01703
3512.96464	0.01713
3512.00034	0.01724
3511.03603	0.01736
3510.07173	0.01748
3509.10742	0.01759
3508.14312	0.01771
3507.17881	0.01784
3506.21451	0.01796
3505.2502	0.01806
3504.2859	0.01813
3503.32159	0.01819
3502.35729	0.01826
3501.39298	0.01836
3500.42867	0.0185
3499.46437	0.01864
3498.50006	0.01876
3497.53576	0.01888
3496.57145	0.01901
3495.60715	0.01919
3494.64284	0.0194
3493.67854	0.01961
3492.71423	0.01981
3491.74993	0.02003
3490.78562	0.02028
3489.82131	0.02055
3488.85701	0.02085
3487.8927	0.02118
3486.9284	0.02153
3485.96409	0.02188
3484.99979	0.02224
3484.03548	0.02265
3483.07118	0.02311
3482.10687	0.02359
3481.14257	0.02408
3480.17826	0.02457
3479.21396	0.02504
3478.24965	0.02548
3477.28534	0.02593
3476.32104	0.02635
3475.35673	0.02672
3474.39243	0.02706
3473.42812	0.02736
3472.46382	0.02766
3471.49951	0.02801
3470.53521	0.0284
3469.5709	0.02882
3468.6066	0.02926
3467.64229	0.02973
3466.67798	0.03022
3465.71368	0.03077
3464.74937	0.03135
3463.78507	0.03197
3462.82076	0.03259
3461.85646	0.03321
3460.89215	0.03381
3459.92785	0.03444
3458.96354	0.03507
3457.99924	0.03566
3457.03493	0.03623
3456.07063	0.03678
3455.10632	0.0373
3454.14201	0.03781
3453.17771	0.03832
3452.2134	0.03884
3451.2491	0.03935
3450.28479	0.03986
3449.32049	0.04037
3448.35618	0.04088
3447.39188	0.04141
3446.42757	0.04199
3445.46327	0.04257
3444.49896	0.04314
3443.53465	0.04369
3442.57035	0.04424
3441.60604	0.04482
3440.64174	0.04543
3439.67743	0.04605
3438.71313	0.04664
3437.74882	0.04724
3436.78452	0.04782
3435.82021	0.04841
3434.85591	0.04901
3433.8916	0.0496
3432.92729	0.05016
3431.96299	0.0507
3430.99868	0.05123
3430.03438	0.05173
3429.07007	0.05224
3428.10577	0.05275
3427.14146	0.05324
3426.17716	0.05371
3425.21285	0.05415
3424.24855	0.05456
3423.28424	0.05498
3422.31994	0.05539
3421.35563	0.05578
3420.39132	0.05614
3419.42702	0.0565
3418.46271	0.05683
3417.49841	0.05714
3416.5341	0.05747
3415.5698	0.05779
3414.60549	0.05809
3413.64119	0.05838
3412.67688	0.05868
3411.71258	0.05897
3410.74827	0.05925
3409.78396	0.05953
3408.81966	0.05979
3407.85535	0.06004
3406.89105	0.06028
3405.92674	0.06052
3404.96244	0.06077
3403.99813	0.06102
3403.03383	0.0613
3402.06952	0.06158
3401.10522	0.06184
3400.14091	0.06212
3399.17661	0.0624
3398.2123	0.06267
3397.24799	0.06296
3396.28369	0.06327
3395.31938	0.06357
3394.35508	0.06387
3393.39077	0.06417
3392.42647	0.0645
3391.46216	0.06484
3390.49786	0.06519
3389.53355	0.06554
3388.56925	0.06588
3387.60494	0.06623
3386.64063	0.06659
3385.67633	0.06695
3384.71202	0.06734
3383.74772	0.06772
3382.78341	0.06809
3381.81911	0.06846
3380.8548	0.06883
3379.8905	0.06922
3378.92619	0.06964
3377.96189	0.07005
3376.99758	0.07046
3376.03328	0.07087
3375.06897	0.07128
3374.10466	0.07172
3373.14036	0.07215
3372.17605	0.07258
3371.21175	0.07303
3370.24744	0.07348
3369.28314	0.07391
3368.31883	0.07434
3367.35453	0.07476
3366.39022	0.07518
3365.42592	0.07561
3364.46161	0.07601
3363.4973	0.07641
3362.533	0.0768
3361.56869	0.07722
3360.60439	0.07763
3359.64008	0.07804
3358.67578	0.07846
3357.71147	0.07889
3356.74717	0.07932
3355.78286	0.07976
3354.81856	0.0802
3353.85425	0.08069
3352.88995	0.08119
3351.92564	0.08168
3350.96133	0.08215
3349.99703	0.08264
3349.03272	0.08313
3348.06842	0.08362
3347.10411	0.08415
3346.13981	0.08467
3345.1755	0.08518
3344.2112	0.08567
3343.24689	0.08619
3342.28259	0.08671
3341.31828	0.08723
3340.35397	0.08773
3339.38967	0.08822
3338.42536	0.0887
3337.46106	0.08918
3336.49675	0.08968
3335.53245	0.09018
3334.56814	0.09067
3333.60384	0.09115
3332.63953	0.09161
3331.67523	0.09207
3330.71092	0.09255
3329.74661	0.09304
3328.78231	0.09352
3327.818	0.09398
3326.8537	0.09444
3325.88939	0.09492
3324.92509	0.0954
3323.96078	0.0959
3322.99648	0.09639
3322.03217	0.0969
3321.06787	0.0974
3320.10356	0.09789
3319.13926	0.09839
3318.17495	0.09892
3317.21064	0.09946
3316.24634	0.10001
3315.28203	0.10054
3314.31773	0.10109
3313.35342	0.10165
3312.38912	0.10222
3311.42481	0.10283
3310.46051	0.10347
3309.4962	0.10409
3308.5319	0.10471
3307.56759	0.10532
3306.60328	0.10595
3305.63898	0.10658
3304.67467	0.10722
3303.71037	0.10786
3302.74606	0.10849
3301.78176	0.10912
3300.81745	0.10976
3299.85315	0.11042
3298.88884	0.11111
3297.92454	0.1118
3296.96023	0.11249
3295.99593	0.1132
3295.03162	0.11393
3294.06731	0.11469
3293.10301	0.11549
3292.1387	0.1163
3291.1744	0.1171
3290.21009	0.11792
3289.24579	0.11877
3288.28148	0.11965
3287.31718	0.12058
3286.35287	0.12153
3285.38857	0.12251
3284.42426	0.12353
3283.45995	0.12456
3282.49565	0.12565
3281.53134	0.12681
3280.56704	0.12802
3279.60273	0.12926
3278.63843	0.13057
3277.67412	0.13192
3276.70982	0.13334
3275.74551	0.13484
3274.78121	0.13641
3273.8169	0.13806
3272.8526	0.1398
3271.88829	0.1416
3270.92398	0.14349
3269.95968	0.14547
3268.99537	0.14755
3268.03107	0.14976
3267.06676	0.15206
3266.10246	0.15443
3265.13815	0.1569
3264.17385	0.1595
3263.20954	0.16222
3262.24524	0.16506
3261.28093	0.16799
3260.31662	0.17103
3259.35232	0.17419
3258.38801	0.17746
3257.42371	0.18087
3256.4594	0.18443
3255.4951	0.18808
3254.53079	0.19184
3253.56649	0.1957
3252.60218	0.19964
3251.63788	0.20365
3250.67357	0.20776
3249.70927	0.21191
3248.74496	0.21606
3247.78065	0.22014
3246.81635	0.22411
3245.85204	0.22796
3244.88774	0.23162
3243.92343	0.23498
3242.95913	0.23788
3241.99482	0.24028
3241.03052	0.24211
3240.06621	0.24336
3239.10191	0.24404
3238.1376	0.24413
3237.17329	0.24369
3236.20899	0.24281
3235.24468	0.24155
3234.28038	0.23999
3233.31607	0.23823
3232.35177	0.23632
3231.38746	0.23431
3230.42316	0.23222
3229.45885	0.23007
3228.49455	0.2279
3227.53024	0.22573
3226.56594	0.22357
3225.60163	0.22147
3224.63732	0.2194
3223.67302	0.21738
3222.70871	0.21546
3221.74441	0.21371
3220.7801	0.2121
3219.8158	0.21064
3218.85149	0.2093
3217.88719	0.20814
3216.92288	0.20717
3215.95858	0.20639
3214.99427	0.20582
3214.02996	0.20546
3213.06566	0.20529
3212.10135	0.20528
3211.13705	0.2054
3210.17274	0.20564
3209.20844	0.20598
3208.24413	0.20637
3207.27983	0.20672
3206.31552	0.20697
3205.35122	0.2071
3204.38691	0.20707
3203.4226	0.2069
3202.4583	0.20657
3201.49399	0.20609
3200.52969	0.2054
3199.56538	0.20451
3198.60108	0.20342
3197.63677	0.20214
3196.67247	0.20071
3195.70816	0.19914
3194.74386	0.19745
3193.77955	0.19566
3192.81525	0.19383
3191.85094	0.19198
3190.88663	0.19016
3189.92233	0.18839
3188.95802	0.18666
3187.99372	0.18494
3187.02941	0.18325
3186.06511	0.18158
3185.1008	0.17998
3184.1365	0.17846
3183.17219	0.17698
3182.20789	0.17553
3181.24358	0.17409
3180.27927	0.1727
3179.31497	0.17136
3178.35066	0.1701
3177.38636	0.16891
3176.42205	0.16779
3175.45775	0.1667
3174.49344	0.16567
3173.52914	0.16472
3172.56483	0.16384
3171.60053	0.16303
3170.63622	0.16227
3169.67192	0.16153
3168.70761	0.16082
3167.7433	0.16017
3166.779	0.15956
3165.81469	0.15897
3164.85039	0.15841
3163.88608	0.15788
3162.92178	0.15738
3161.95747	0.15694
3160.99317	0.15658
3160.02886	0.1563
3159.06456	0.1561
3158.10025	0.15596
3157.13594	0.15594
3156.17164	0.15603
3155.20733	0.15623
3154.24303	0.15653
3153.27872	0.15692
3152.31442	0.15747
3151.35011	0.15817
3150.38581	0.15906
3149.4215	0.16019
3148.4572	0.16162
3147.49289	0.16344
3146.52859	0.16575
3145.56428	0.16868
3144.59997	0.17225
3143.63567	0.17636
3142.67136	0.18057
3141.70706	0.18416
3140.74275	0.18635
3139.77845	0.1867
3138.81414	0.18539
3137.84984	0.18305
3136.88553	0.18037
3135.92123	0.17785
3134.95692	0.17574
3133.99261	0.17409
3133.02831	0.17292
3132.064	0.17214
3131.0997	0.17168
3130.13539	0.17143
3129.17109	0.1713
3128.20678	0.17125
3127.24248	0.17118
3126.27817	0.17102
3125.31387	0.17076
3124.34956	0.17041
3123.38526	0.17
3122.42095	0.16958
3121.45664	0.16918
3120.49234	0.16884
3119.52803	0.16853
3118.56373	0.16825
3117.59942	0.16802
3116.63512	0.16784
3115.67081	0.16769
3114.70651	0.16757
3113.7422	0.16748
3112.7779	0.16738
3111.81359	0.1673
3110.84928	0.16726
3109.88498	0.16725
3108.92067	0.16732
3107.95637	0.16746
3106.99206	0.16767
3106.02776	0.16796
3105.06345	0.1683
3104.09915	0.16871
3103.13484	0.16917
3102.17054	0.16967
3101.20623	0.17018
3100.24193	0.17072
3099.27762	0.17129
3098.31331	0.17194
3097.34901	0.1727
3096.3847	0.17356
3095.4204	0.17454
3094.45609	0.17562
3093.49179	0.1768
3092.52748	0.17808
3091.56318	0.17942
3090.59887	0.18074
3089.63457	0.182
3088.67026	0.18315
3087.70595	0.18419
3086.74165	0.18514
3085.77734	0.18605
3084.81304	0.18694
3083.84873	0.18786
3082.88443	0.18885
3081.92012	0.18994
3080.95582	0.19122
3079.99151	0.19268
3079.02721	0.19438
3078.0629	0.19631
3077.09859	0.19844
3076.13429	0.20077
3075.16998	0.20331
3074.20568	0.20607
3073.24137	0.20905
3072.27707	0.21222
3071.31276	0.2155
3070.34846	0.21887
3069.38415	0.2223
3068.41985	0.22576
3067.45554	0.22922
3066.49124	0.23254
3065.52693	0.23565
3064.56262	0.23848
3063.59832	0.24096
3062.63401	0.243
3061.66971	0.24453
3060.7054	0.24554
3059.7411	0.24602
3058.77679	0.2459
3057.81249	0.2452
3056.84818	0.24398
3055.88388	0.24228
3054.91957	0.2402
3053.95526	0.23777
3052.99096	0.23503
3052.02665	0.23204
3051.06235	0.22889
3050.09804	0.22567
3049.13374	0.22242
3048.16943	0.21918
3047.20513	0.21596
3046.24082	0.2128
3045.27652	0.20971
3044.31221	0.20674
3043.34791	0.20393
3042.3836	0.20128
3041.41929	0.19876
3040.45499	0.19635
3039.49068	0.19406
3038.52638	0.19189
3037.56207	0.18986
3036.59777	0.18794
3035.63346	0.18612
3034.66916	0.18438
3033.70485	0.18273
3032.74055	0.18118
3031.77624	0.17976
3030.81193	0.17846
3029.84763	0.17726
3028.88332	0.17613
3027.91902	0.17504
3026.95471	0.17404
3025.99041	0.17311
3025.0261	0.17225
3024.0618	0.17142
3023.09749	0.17061
3022.13319	0.16979
3021.16888	0.16899
3020.20458	0.16822
3019.24027	0.16751
3018.27596	0.16687
3017.31166	0.16628
3016.34735	0.16575
3015.38305	0.16529
3014.41874	0.16491
3013.45444	0.16466
3012.49013	0.16455
3011.52583	0.16458
3010.56152	0.16479
3009.59722	0.16518
3008.63291	0.1658
3007.6686	0.16669
3006.7043	0.16781
3005.73999	0.16907
3004.77569	0.17032
3003.81138	0.17143
3002.84708	0.17235
3001.88277	0.17317
3000.91847	0.174
2999.95416	0.17504
2998.98986	0.17641
2998.02555	0.17817
2997.06125	0.18034
2996.09694	0.18297
2995.13263	0.18602
2994.16833	0.18939
2993.20402	0.193
2992.23972	0.19672
2991.27541	0.20039
2990.31111	0.20382
2989.3468	0.20678
2988.3825	0.20906
2987.41819	0.21051
2986.45389	0.21114
2985.48958	0.21114
2984.52527	0.21085
2983.56097	0.21059
2982.59666	0.2106
2981.63236	0.21106
2980.66805	0.21206
2979.70375	0.2136
2978.73944	0.21552
2977.77514	0.2176
2976.81083	0.21961
2975.84653	0.22135
2974.88222	0.22268
2973.91792	0.2235
2972.95361	0.22372
2971.9893	0.22333
2971.025	0.22237
2970.06069	0.22094
2969.09639	0.21911
2968.13208	0.21688
2967.16778	0.21417
2966.20347	0.21088
2965.23917	0.20709
2964.27486	0.20301
2963.31056	0.19898
2962.34625	0.19528
2961.38194	0.19209
2960.41764	0.18932
2959.45333	0.18682
2958.48903	0.18444
2957.52472	0.1822
2956.56042	0.18027
2955.59611	0.17889
2954.63181	0.17817
2953.6675	0.17821
2952.7032	0.17905
2951.73889	0.1808
2950.77458	0.18353
2949.81028	0.18729
2948.84597	0.1921
2947.88167	0.19779
2946.91736	0.20399
2945.95306	0.21011
2944.98875	0.21539
2944.02445	0.219
2943.06014	0.22039
2942.09584	0.21951
2941.13153	0.21676
2940.16723	0.21268
2939.20292	0.20781
2938.23861	0.20259
2937.27431	0.19736
2936.31	0.19232
2935.3457	0.18758
2934.38139	0.18317
2933.41709	0.1791
2932.45278	0.17534
2931.48848	0.17189
2930.52417	0.16876
2929.55987	0.16593
2928.59556	0.16342
2927.63125	0.16122
2926.66695	0.15931
2925.70264	0.15766
2924.73834	0.15625
2923.77403	0.15504
2922.80973	0.154
2921.84542	0.15314
2920.88112	0.15246
2919.91681	0.15193
2918.95251	0.15153
2917.9882	0.15125
2917.0239	0.15102
2916.05959	0.15083
2915.09528	0.15063
2914.13098	0.15045
2913.16667	0.15026
2912.20237	0.15004
2911.23806	0.14978
2910.27376	0.14954
2909.30945	0.14933
2908.34515	0.14919
2907.38084	0.1491
2906.41654	0.14902
2905.45223	0.1489
2904.48792	0.14864
2903.52362	0.14816
2902.55931	0.14741
2901.59501	0.14636
2900.6307	0.14505
2899.6664	0.14354
2898.70209	0.14187
2897.73779	0.14011
2896.77348	0.13836
2895.80918	0.1367
2894.84487	0.13515
2893.88057	0.13372
2892.91626	0.13242
2891.95195	0.13126
2890.98765	0.13025
2890.02334	0.12941
2889.05904	0.12873
2888.09473	0.1282
2887.13043	0.12779
2886.16612	0.12751
2885.20182	0.12738
2884.23751	0.12739
2883.27321	0.12755
2882.3089	0.12785
2881.34459	0.12824
2880.38029	0.12871
2879.41598	0.12923
2878.45168	0.12983
2877.48737	0.13043
2876.52307	0.13096
2875.55876	0.13132
2874.59446	0.13147
2873.63015	0.13132
2872.66585	0.13086
2871.70154	0.1301
2870.73724	0.12904
2869.77293	0.12768
2868.80862	0.12608
2867.84432	0.12433
2866.88001	0.12255
2865.91571	0.12079
2864.9514	0.11912
2863.9871	0.11754
2863.02279	0.11605
2862.05849	0.11465
2861.09418	0.11333
2860.12988	0.11209
2859.16557	0.11095
2858.20126	0.10986
2857.23696	0.1088
2856.27265	0.10777
2855.30835	0.10677
2854.34404	0.1058
2853.37974	0.10488
2852.41543	0.10397
2851.45113	0.10305
2850.48682	0.10213
2849.52252	0.1012
2848.55821	0.10029
2847.59391	0.0994
2846.6296	0.09854
2845.66529	0.09773
2844.70099	0.09694
2843.73668	0.09615
2842.77238	0.09541
2841.80807	0.09473
2840.84377	0.09412
2839.87946	0.09355
2838.91516	0.09303
2837.95085	0.09253
2836.98655	0.09207
2836.02224	0.09168
2835.05793	0.09137
2834.09363	0.09112
2833.12932	0.0909
2832.16502	0.09072
2831.20071	0.09058
2830.23641	0.09048
2829.2721	0.09045
2828.3078	0.09045
2827.34349	0.09046
2826.37919	0.09045
2825.41488	0.09044
2824.45057	0.09044
2823.48627	0.09049
2822.52196	0.09057
2821.55766	0.09066
2820.59335	0.0908
2819.62905	0.09099
2818.66474	0.09129
2817.70044	0.09171
2816.73613	0.09231
2815.77183	0.09308
2814.80752	0.09397
2813.84322	0.09488
2812.87891	0.09563
2811.9146	0.09598
2810.9503	0.09578
2809.98599	0.09504
2809.02169	0.09394
2808.05738	0.09272
2807.09308	0.09153
2806.12877	0.09044
2805.16447	0.08946
2804.20016	0.08859
2803.23586	0.08777
2802.27155	0.08698
2801.30724	0.08621
2800.34294	0.08548
2799.37863	0.0848
2798.41433	0.08414
2797.45002	0.08348
2796.48572	0.08283
2795.52141	0.08219
2794.55711	0.08158
2793.5928	0.08098
2792.6285	0.08043
2791.66419	0.07988
2790.69989	0.07934
2789.73558	0.07881
2788.77127	0.07829
2787.80697	0.07781
2786.84266	0.07735
2785.87836	0.0769
2784.91405	0.07645
2783.94975	0.07602
2782.98544	0.0756
2782.02114	0.07519
2781.05683	0.07481
2780.09253	0.07443
2779.12822	0.07406
2778.16391	0.0737
2777.19961	0.07335
2776.2353	0.07299
2775.271	0.07265
2774.30669	0.07232
2773.34239	0.072
2772.37808	0.07169
2771.41378	0.07139
2770.44947	0.07109
2769.48517	0.07081
2768.52086	0.07055
2767.55656	0.0703
2766.59225	0.07006
2765.62794	0.06985
2764.66364	0.06966
2763.69933	0.06946
2762.73503	0.06929
2761.77072	0.06915
2760.80642	0.06904
2759.84211	0.06895
2758.87781	0.06888
2757.9135	0.06885
2756.9492	0.06882
2755.98489	0.06881
2755.02058	0.0688
2754.05628	0.06878
2753.09197	0.06875
2752.12767	0.06868
2751.16336	0.06858
2750.19906	0.06846
2749.23475	0.06833
2748.27045	0.0682
2747.30614	0.06808
2746.34184	0.06797
2745.37753	0.06784
2744.41323	0.06771
2743.44892	0.06758
2742.48461	0.06748
2741.52031	0.06741
2740.556	0.06736
2739.5917	0.06731
2738.62739	0.06726
2737.66309	0.06722
2736.69878	0.0672
2735.73448	0.06723
2734.77017	0.06726
2733.80587	0.06726
2732.84156	0.06724
2731.87725	0.06724
2730.91295	0.06726
2729.94864	0.0673
2728.98434	0.06735
2728.02003	0.06738
2727.05573	0.06741
2726.09142	0.06745
2725.12712	0.06754
2724.16281	0.06765
2723.19851	0.06777
2722.2342	0.06787
2721.2699	0.06795
2720.30559	0.068
2719.34128	0.06802
2718.37698	0.06805
2717.41267	0.06805
2716.44837	0.06799
2715.48406	0.06784
2714.51976	0.06761
2713.55545	0.06735
2712.59115	0.06706
2711.62684	0.06673
2710.66254	0.06634
2709.69823	0.06588
2708.73392	0.06539
2707.76962	0.06488
2706.80531	0.06438
2705.84101	0.0639
2704.8767	0.06341
2703.9124	0.06289
2702.94809	0.06236
2701.98379	0.06187
2701.01948	0.0614
2700.05518	0.06097
2699.09087	0.06056
2698.12656	0.06014
2697.16226	0.05969
2696.19795	0.05926
2695.23365	0.05886
2694.26934	0.0585
2693.30504	0.05814
2692.34073	0.05777
2691.37643	0.05738
2690.41212	0.05699
2689.44782	0.05664
2688.48351	0.05634
2687.51921	0.05604
2686.5549	0.05572
2685.59059	0.0554
2684.62629	0.05509
2683.66198	0.05481
2682.69768	0.05456
2681.73337	0.05433
2680.76907	0.05408
2679.80476	0.05384
2678.84046	0.0536
2677.87615	0.05339
2676.91185	0.0532
2675.94754	0.05301
2674.98323	0.05283
2674.01893	0.05265
2673.05462	0.05247
2672.09032	0.05229
2671.12601	0.05212
2670.16171	0.05195
2669.1974	0.05177
2668.2331	0.05159
2667.26879	0.0514
2666.30449	0.05123
2665.34018	0.05106
2664.37588	0.0509
2663.41157	0.05074
2662.44726	0.05058
2661.48296	0.05042
2660.51865	0.05025
2659.55435	0.05008
2658.59004	0.04993
2657.62574	0.04975
2656.66143	0.04958
2655.69713	0.04941
2654.73282	0.04924
2653.76852	0.04905
2652.80421	0.04886
2651.8399	0.04866
2650.8756	0.04846
2649.91129	0.04827
2648.94699	0.04808
2647.98268	0.04788
2647.01838	0.04769
2646.05407	0.04749
2645.08977	0.04729
2644.12546	0.0471
2643.16116	0.04693
2642.19685	0.04675
2641.23255	0.04657
2640.26824	0.04638
2639.30393	0.0462
2638.33963	0.04602
2637.37532	0.04585
2636.41102	0.04567
2635.44671	0.04546
2634.48241	0.04523
2633.5181	0.04499
2632.5538	0.04477
2631.58949	0.04455
2630.62519	0.04433
2629.66088	0.04408
2628.69657	0.04381
2627.73227	0.04353
2626.76796	0.04326
2625.80366	0.04302
2624.83935	0.04277
2623.87505	0.0425
2622.91074	0.04222
2621.94644	0.04194
2620.98213	0.04169
2620.01783	0.04149
2619.05352	0.04131
2618.08922	0.04112
2617.12491	0.04091
2616.1606	0.04071
2615.1963	0.04053
2614.23199	0.04042
2613.26769	0.04036
2612.30338	0.04029
2611.33908	0.04021
2610.37477	0.04014
2609.41047	0.0401
2608.44616	0.0401
2607.48186	0.04011
2606.51755	0.04011
2605.55324	0.04007
2604.58894	0.03999
2603.62463	0.03993
2602.66033	0.0399
2601.69602	0.0399
2600.73172	0.03991
2599.76741	0.03989
2598.80311	0.03983
2597.8388	0.03976
2596.8745	0.03972
2595.91019	0.03972
2594.94589	0.03972
2593.98158	0.03965
2593.01727	0.03954
2592.05297	0.0394
2591.08866	0.03926
2590.12436	0.03912
2589.16005	0.03895
2588.19575	0.03873
2587.23144	0.03844
2586.26714	0.03812
2585.30283	0.03784
2584.33853	0.0376
2583.37422	0.03738
2582.40991	0.03714
2581.44561	0.03686
2580.4813	0.03656
2579.517	0.03629
2578.55269	0.03606
2577.58839	0.03587
2576.62408	0.03567
2575.65978	0.03545
2574.69547	0.03519
2573.73117	0.03495
2572.76686	0.03477
2571.80255	0.03462
2570.83825	0.03446
2569.87394	0.03424
2568.90964	0.034
2567.94533	0.03376
2566.98103	0.03355
2566.01672	0.03336
2565.05242	0.03317
2564.08811	0.03294
2563.12381	0.03269
2562.1595	0.03247
2561.1952	0.0323
2560.23089	0.03216
2559.26658	0.03204
2558.30228	0.03191
2557.33797	0.03177
2556.37367	0.03162
2555.40936	0.03151
2554.44506	0.03145
2553.48075	0.03138
2552.51645	0.0313
2551.55214	0.03117
2550.58784	0.03102
2549.62353	0.03089
2548.65922	0.03079
2547.69492	0.03071
2546.73061	0.0306
2545.76631	0.03045
2544.802	0.03029
2543.8377	0.03015
2542.87339	0.03005
2541.90909	0.02997
2540.94478	0.02986
2539.98048	0.02972
2539.01617	0.02958
2538.05187	0.02948
2537.08756	0.02941
2536.12325	0.02933
2535.15895	0.02926
2534.19464	0.02916
2533.23034	0.02903
2532.26603	0.02891
2531.30173	0.02882
2530.33742	0.02873
2529.37312	0.02861
2528.40881	0.02845
2527.44451	0.02829
2526.4802	0.02814
2525.51589	0.02801
2524.55159	0.02788
2523.58728	0.02774
2522.62298	0.0276
2521.65867	0.02745
2520.69437	0.02731
2519.73006	0.0272
2518.76576	0.02711
2517.80145	0.027
2516.83715	0.02689
2515.87284	0.02676
2514.90854	0.02665
2513.94423	0.02654
2512.97992	0.02645
2512.01562	0.02636
2511.05131	0.02623
2510.08701	0.0261
2509.1227	0.02598
2508.1584	0.02587
2507.19409	0.02579
2506.22979	0.02569
2505.26548	0.02556
2504.30118	0.02543
2503.33687	0.02531
2502.37256	0.0252
2501.40826	0.0251
2500.44395	0.025
2499.47965	0.02488
2498.51534	0.02475
2497.55104	0.02463
2496.58673	0.02453
2495.62243	0.02445
2494.65812	0.02435
2493.69382	0.02422
2492.72951	0.02409
2491.76521	0.02397
2490.8009	0.02386
2489.83659	0.02376
2488.87229	0.02365
2487.90798	0.02352
2486.94368	0.02337
2485.97937	0.02323
2485.01507	0.02312
2484.05076	0.02303
2483.08646	0.02293
2482.12215	0.0228
2481.15785	0.02266
2480.19354	0.02254
2479.22923	0.02245
2478.26493	0.02238
2477.30062	0.02231
2476.33632	0.02222
2475.37201	0.02213
2474.40771	0.02202
2473.4434	0.02195
2472.4791	0.02191
2471.51479	0.02185
2470.55049	0.02176
2469.58618	0.02164
2468.62188	0.02152
2467.65757	0.02141
2466.69326	0.02132
2465.72896	0.02123
2464.76465	0.02113
2463.80035	0.02101
2462.83604	0.02088
2461.87174	0.02079
2460.90743	0.02073
2459.94313	0.0207
2458.97882	0.02064
2458.01452	0.02055
2457.05021	0.02047
2456.0859	0.02042
2455.1216	0.02041
2454.15729	0.02042
2453.19299	0.02041
2452.22868	0.02038
2451.26438	0.02033
2450.30007	0.02032
2449.33577	0.02033
2448.37146	0.02036
2447.40716	0.02039
2446.44285	0.02036
2445.47854	0.02033
2444.51424	0.02029
2443.54993	0.02026
2442.58563	0.02026
2441.62132	0.02024
2440.65702	0.02018
2439.69271	0.02008
2438.72841	0.01997
2437.7641	0.0199
2436.7998	0.01987
2435.83549	0.01982
2434.87119	0.01976
2433.90688	0.01969
2432.94257	0.0196
2431.97827	0.01954
2431.01396	0.01951
2430.04966	0.01949
2429.08535	0.01944
2428.12105	0.01935
2427.15674	0.01923
2426.19244	0.01913
2425.22813	0.01907
2424.26383	0.01901
2423.29952	0.01892
2422.33521	0.01878
2421.37091	0.01863
2420.4066	0.01851
2419.4423	0.01843
2418.47799	0.01838
2417.51369	0.01831
2416.54938	0.01821
2415.58508	0.0181
2414.62077	0.018
2413.65647	0.01796
2412.69216	0.01795
2411.72786	0.01793
2410.76355	0.01789
2409.79924	0.01782
2408.83494	0.01778
2407.87063	0.01778
2406.90633	0.01782
2405.94202	0.01784
2404.97772	0.01782
2404.01341	0.01778
2403.04911	0.01772
2402.0848	0.0177
2401.1205	0.01771
2400.15619	0.0177
2399.19188	0.01764
2398.22758	0.01756
2397.26327	0.01747
2396.29897	0.01742
2395.33466	0.01741
2394.37036	0.01741
2393.40605	0.01738
2392.44175	0.01731
2391.47744	0.01723
2390.51314	0.01718
2389.54883	0.01717
2388.58453	0.01717
2387.62022	0.01715
2386.65591	0.01708
2385.69161	0.01699
2384.7273	0.01694
2383.763	0.01692
2382.79869	0.01691
2381.83439	0.01689
2380.87008	0.01683
2379.90578	0.01676
2378.94147	0.0167
2377.97717	0.01669
2377.01286	0.0167
2376.04855	0.01669
2375.08425	0.01666
2374.11994	0.01661
2373.15564	0.01657
2372.19133	0.01657
2371.22703	0.01658
2370.26272	0.01659
2369.29842	0.01655
2368.33411	0.01648
2367.36981	0.0164
2366.4055	0.01636
2365.4412	0.01635
2364.47689	0.01633
2363.51258	0.01627
2362.54828	0.01618
2361.58397	0.01611
2360.61967	0.01607
2359.65536	0.01609
2358.69106	0.0161
2357.72675	0.01607
2356.76245	0.01599
2355.79814	0.01591
2354.83384	0.01585
2353.86953	0.01581
2352.90522	0.01576
2351.94092	0.01567
2350.97661	0.01553
2350.01231	0.01541
2349.048	0.01532
2348.0837	0.01528
2347.11939	0.01525
2346.15509	0.0152
2345.19078	0.01513
2344.22648	0.01506
2343.26217	0.01504
2342.29786	0.01507
2341.33356	0.01512
2340.36925	0.01515
2339.40495	0.01516
2338.44064	0.01515
2337.47634	0.01514
2336.51203	0.01514
2335.54773	0.01514
2334.58342	0.01508
2333.61912	0.01499
2332.65481	0.01489
2331.69051	0.01482
2330.7262	0.01477
2329.76189	0.01475
2328.79759	0.01471
2327.83328	0.01464
2326.86898	0.01454
2325.90467	0.01446
2324.94037	0.01443
2323.97606	0.0144
2323.01176	0.01438
2322.04745	0.01432
2321.08315	0.01422
2320.11884	0.01413
2319.15453	0.01408
2318.19023	0.01405
2317.22592	0.01401
2316.26162	0.01396
2315.29731	0.01387
2314.33301	0.01379
2313.3687	0.01375
2312.4044	0.01375
2311.44009	0.01375
2310.47579	0.01372
2309.51148	0.01368
2308.54718	0.01364
2307.58287	0.01362
2306.61856	0.01363
2305.65426	0.01363
2304.68995	0.01362
2303.72565	0.01358
2302.76134	0.01356
2301.79704	0.01354
2300.83273	0.01352
2299.86843	0.0135
2298.90412	0.01346
2297.93982	0.0134
2296.97551	0.01333
2296.0112	0.01328
2295.0469	0.01323
2294.08259	0.01319
2293.11829	0.01316
2292.15398	0.01311
2291.18968	0.01306
2290.22537	0.01302
2289.26107	0.01298
2288.29676	0.01296
2287.33246	0.01294
2286.36815	0.01289
2285.40385	0.01285
2284.43954	0.01284
2283.47523	0.01284
2282.51093	0.01283
2281.54662	0.01282
2280.58232	0.0128
2279.61801	0.0128
2278.65371	0.0128
2277.6894	0.0128
2276.7251	0.0128
2275.76079	0.0128
2274.79649	0.01277
2273.83218	0.01274
2272.86787	0.0127
2271.90357	0.01267
2270.93926	0.01265
2269.97496	0.01262
2269.01065	0.01258
2268.04635	0.01256
2267.08204	0.01256
2266.11774	0.01253
2265.15343	0.01251
2264.18913	0.01249
2263.22482	0.01247
2262.26052	0.01245
2261.29621	0.01246
2260.3319	0.01246
2259.3676	0.01244
2258.40329	0.01241
2257.43899	0.01238
2256.47468	0.01237
2255.51038	0.01236
2254.54607	0.01235
2253.58177	0.01231
2252.61746	0.01228
2251.65316	0.01226
2250.68885	0.01226
2249.72454	0.01227
2248.76024	0.0123
2247.79593	0.01231
2246.83163	0.01231
2245.86732	0.01232
2244.90302	0.01235
2243.93871	0.01241
2242.97441	0.01246
2242.0101	0.0125
2241.0458	0.01253
2240.08149	0.01258
2239.11719	0.01265
2238.15288	0.01273
2237.18857	0.01281
2236.22427	0.01287
2235.25996	0.01291
2234.29566	0.01296
2233.33135	0.01302
2232.36705	0.01309
2231.40274	0.01316
2230.43844	0.01323
2229.47413	0.01328
2228.50983	0.01335
2227.54552	0.01343
2226.58121	0.01353
2225.61691	0.01365
2224.6526	0.01376
2223.6883	0.01384
2222.72399	0.01391
2221.75969	0.01397
2220.79538	0.01402
2219.83108	0.01404
2218.86677	0.014
2217.90247	0.01392
2216.93816	0.01381
2215.97385	0.0137
2215.00955	0.01361
2214.04524	0.01351
2213.08094	0.0134
2212.11663	0.01326
2211.15233	0.01314
2210.18802	0.01302
2209.22372	0.01293
2208.25941	0.01284
2207.29511	0.01277
2206.3308	0.01268
2205.3665	0.0126
2204.40219	0.01255
2203.43788	0.01251
2202.47358	0.01249
2201.50927	0.01245
2200.54497	0.01241
2199.58066	0.01238
2198.61636	0.01236
2197.65205	0.01237
2196.68775	0.01238
2195.72344	0.01238
2194.75914	0.01238
2193.79483	0.01238
2192.83052	0.01238
2191.86622	0.01239
2190.90191	0.01239
2189.93761	0.01238
2188.9733	0.01237
2188.009	0.01234
2187.04469	0.01231
2186.08039	0.01229
2185.11608	0.01226
2184.15178	0.01223
2183.18747	0.0122
2182.22317	0.01218
2181.25886	0.01216
2180.29455	0.01215
2179.33025	0.01214
2178.36594	0.0121
2177.40164	0.01205
2176.43733	0.01199
2175.47303	0.01196
2174.50872	0.01194
2173.54442	0.01191
2172.58011	0.01187
2171.61581	0.01184
2170.6515	0.01182
2169.68719	0.01184
2168.72289	0.01185
2167.75858	0.01186
2166.79428	0.01184
2165.82997	0.01182
2164.86567	0.01182
2163.90136	0.01183
2162.93706	0.01185
2161.97275	0.01185
2161.00845	0.01183
2160.04414	0.0118
2159.07984	0.01178
2158.11553	0.01178
2157.15122	0.01182
2156.18692	0.01184
2155.22261	0.01184
2154.25831	0.01182
2153.294	0.01182
2152.3297	0.01187
2151.36539	0.01195
2150.40109	0.01203
2149.43678	0.0121
2148.47248	0.01213
2147.50817	0.01217
2146.54386	0.01224
2145.57956	0.01236
2144.61525	0.01249
2143.65095	0.01257
2142.68664	0.01261
2141.72234	0.01266
2140.75803	0.01275
2139.79373	0.0129
2138.82942	0.01305
2137.86512	0.01314
2136.90081	0.01318
2135.93651	0.01321
2134.9722	0.01326
2134.00789	0.01331
2133.04359	0.01333
2132.07928	0.01326
2131.11498	0.01312
2130.15067	0.01295
2129.18637	0.0128
2128.22206	0.0127
2127.25776	0.01263
2126.29345	0.01252
2125.32915	0.01238
2124.36484	0.01224
2123.40053	0.01213
2122.43623	0.01209
2121.47192	0.01209
2120.50762	0.01207
2119.54331	0.012
2118.57901	0.0119
2117.6147	0.01183
2116.6504	0.01182
2115.68609	0.01184
2114.72179	0.01185
2113.75748	0.01182
2112.79318	0.01173
2111.82887	0.01167
2110.86456	0.01167
2109.90026	0.01171
2108.93595	0.01174
2107.97165	0.01171
2107.00734	0.01164
2106.04304	0.01156
2105.07873	0.01153
2104.11443	0.01158
2103.15012	0.01163
2102.18582	0.01164
2101.22151	0.01158
2100.2572	0.01151
2099.2929	0.0115
2098.32859	0.01156
2097.36429	0.01165
2096.39998	0.0117
2095.43568	0.01167
2094.47137	0.0116
2093.50707	0.0116
2092.54276	0.01166
2091.57846	0.01174
2090.61415	0.01177
2089.64984	0.01173
2088.68554	0.01165
2087.72123	0.01161
2086.75693	0.01165
2085.79262	0.01174
2084.82832	0.01181
2083.86401	0.01181
2082.89971	0.01174
2081.9354	0.01171
2080.9711	0.01175
2080.00679	0.01185
2079.04249	0.01195
2078.07818	0.01196
2077.11387	0.01192
2076.14957	0.0119
2075.18526	0.01195
2074.22096	0.01206
2073.25665	0.01217
2072.29235	0.01221
2071.32804	0.01217
2070.36374	0.0121
2069.39943	0.01209
2068.43513	0.01214
2067.47082	0.0122
2066.50651	0.01219
2065.54221	0.01212
2064.5779	0.01202
2063.6136	0.01199
2062.64929	0.01204
2061.68499	0.01213
2060.72068	0.01217
2059.75638	0.01213
2058.79207	0.01206
2057.82777	0.01203
2056.86346	0.01208
2055.89916	0.01217
2054.93485	0.01222
2053.97054	0.01219
2053.00624	0.01211
2052.04193	0.01206
2051.07763	0.0121
2050.11332	0.01217
2049.14902	0.0122
2048.18471	0.01216
2047.22041	0.01206
2046.2561	0.01199
2045.2918	0.012
2044.32749	0.01206
2043.36318	0.01212
2042.39888	0.01211
2041.43457	0.01206
2040.47027	0.01202
2039.50596	0.01206
2038.54166	0.01218
2037.57735	0.01228
2036.61305	0.01232
2035.64874	0.01231
2034.68444	0.01229
2033.72013	0.01231
2032.75583	0.01238
2031.79152	0.01245
2030.82721	0.01245
2029.86291	0.01237
2028.8986	0.01229
2027.9343	0.01224
2026.96999	0.01225
2026.00569	0.01229
2025.04138	0.01228
2024.07708	0.01222
2023.11277	0.01216
2022.14847	0.01216
2021.18416	0.01221
2020.21985	0.0123
2019.25555	0.01238
2018.29124	0.01241
2017.32694	0.01244
2016.36263	0.01253
2015.39833	0.01268
2014.43402	0.01286
2013.46972	0.01302
2012.50541	0.01313
2011.54111	0.01321
2010.5768	0.0133
2009.6125	0.01343
2008.64819	0.01355
2007.68388	0.01361
2006.71958	0.01361
2005.75527	0.01358
2004.79097	0.01358
2003.82666	0.01362
2002.86236	0.01371
2001.89805	0.01379
2000.93375	0.01383
1999.96944	0.01386
1999.00514	0.01392
1998.04083	0.014
1997.07652	0.01411
1996.11222	0.01422
1995.14791	0.01429
1994.18361	0.01433
1993.2193	0.01437
1992.255	0.01442
1991.29069	0.01449
1990.32639	0.01452
1989.36208	0.0145
1988.39778	0.01443
1987.43347	0.01438
1986.46917	0.01436
1985.50486	0.01435
1984.54055	0.0143
1983.57625	0.01422
1982.61194	0.01411
1981.64764	0.01402
1980.68333	0.01399
1979.71903	0.01399
1978.75472	0.01397
1977.79042	0.01393
1976.82611	0.0139
1975.86181	0.0139
1974.8975	0.01395
1973.93319	0.01403
1972.96889	0.01408
1972.00458	0.01408
1971.04028	0.01406
1970.07597	0.01407
1969.11167	0.0141
1968.14736	0.01414
1967.18306	0.01414
1966.21875	0.01406
1965.25445	0.01394
1964.29014	0.01383
1963.32583	0.01373
1962.36153	0.01363
1961.39722	0.01349
1960.43292	0.01329
1959.46861	0.01305
1958.50431	0.01284
1957.54	0.01272
1956.5757	0.01265
1955.61139	0.01256
1954.64709	0.01242
1953.68278	0.01225
1952.71848	0.01213
1951.75417	0.01207
1950.78986	0.01209
1949.82556	0.01208
1948.86125	0.01202
1947.89695	0.01191
1946.93264	0.01182
1945.96834	0.01181
1945.00403	0.01186
1944.03973	0.0119
1943.07542	0.01186
1942.11112	0.01178
1941.14681	0.01175
1940.1825	0.0118
1939.2182	0.01192
1938.25389	0.01206
1937.28959	0.01215
1936.32528	0.01217
1935.36098	0.01222
1934.39667	0.01236
1933.43237	0.01259
1932.46806	0.01284
1931.50376	0.01302
1930.53945	0.01312
1929.57515	0.0132
1928.61084	0.01335
1927.64653	0.01355
1926.68223	0.01376
1925.71792	0.01388
1924.75362	0.01389
1923.78931	0.01386
1922.82501	0.0139
1921.8607	0.01404
1920.8964	0.01422
1919.93209	0.01431
1918.96779	0.01429
1918.00348	0.01425
1917.03917	0.01428
1916.07487	0.0144
1915.11056	0.01456
1914.14626	0.01467
1913.18195	0.01468
1912.21765	0.01465
1911.25334	0.01467
1910.28904	0.01477
1909.32473	0.01492
1908.36043	0.01506
1907.39612	0.0151
1906.43182	0.01507
1905.46751	0.01507
1904.5032	0.01515
1903.5389	0.01531
1902.57459	0.01546
1901.61029	0.01555
1900.64598	0.01556
1899.68168	0.0156
1898.71737	0.01575
1897.75307	0.01598
1896.78876	0.01622
1895.82446	0.0164
1894.86015	0.01651
1893.89584	0.01665
1892.93154	0.01685
1891.96723	0.01712
1891.00293	0.01741
1890.03862	0.01761
1889.07432	0.01773
1888.11001	0.0178
1887.14571	0.01786
1886.1814	0.01795
1885.2171	0.01804
1884.25279	0.01807
1883.28849	0.01799
1882.32418	0.01787
1881.35987	0.01777
1880.39557	0.01775
1879.43126	0.01778
1878.46696	0.01782
1877.50265	0.0178
1876.53835	0.01775
1875.57404	0.01777
1874.60974	0.01789
1873.64543	0.0181
1872.68113	0.01833
1871.71682	0.01854
1870.75251	0.01873
1869.78821	0.01893
1868.8239	0.01921
1867.8596	0.01955
1866.89529	0.01988
1865.93099	0.02014
1864.96668	0.02032
1864.00238	0.02045
1863.03807	0.0206
1862.07377	0.02078
1861.10946	0.02097
1860.14516	0.02115
1859.18085	0.02132
1858.21654	0.02148
1857.25224	0.02169
1856.28793	0.02199
1855.32363	0.02237
1854.35932	0.02276
1853.39502	0.02315
1852.43071	0.02354
1851.46641	0.02397
1850.5021	0.02445
1849.5378	0.02499
1848.57349	0.02556
1847.60918	0.02612
1846.64488	0.02669
1845.68057	0.02725
1844.71627	0.02777
1843.75196	0.02835
1842.78766	0.02899
1841.82335	0.02957
1840.85905	0.03009
1839.89474	0.03059
1838.93044	0.03111
1837.96613	0.0317
1837.00182	0.03238
1836.03752	0.03313
1835.07321	0.03393
1834.10891	0.03477
1833.1446	0.03569
1832.1803	0.03671
1831.21599	0.03778
1830.25169	0.03894
1829.28738	0.04018
1828.32308	0.04141
1827.35877	0.04265
1826.39447	0.04387
1825.43016	0.04512
1824.46585	0.04643
1823.50155	0.04774
1822.53724	0.049
1821.57294	0.05025
1820.60863	0.05154
1819.64433	0.05297
1818.68002	0.05454
1817.71572	0.05625
1816.75141	0.05813
1815.78711	0.06018
1814.8228	0.06243
1813.85849	0.06496
1812.89419	0.0678
1811.92988	0.07094
1810.96558	0.07441
1810.00127	0.07822
1809.03697	0.08239
1808.07266	0.087
1807.10836	0.09208
1806.14405	0.09765
1805.17975	0.10371
1804.21544	0.11026
1803.25114	0.11731
1802.28683	0.1249
1801.32252	0.13306
1800.35822	0.14176
1799.39391	0.15096
1798.42961	0.16064
1797.4653	0.17076
1796.501	0.18129
1795.53669	0.19228
1794.57239	0.20375
1793.60808	0.21574
1792.64378	0.22844
1791.67947	0.24207
1790.71516	0.25683
1789.75086	0.2731
1788.78655	0.29125
1787.82225	0.3117
1786.85794	0.33481
1785.89364	0.36095
1784.92933	0.39061
1783.96503	0.42419
1783.00072	0.462
1782.03642	0.50457
1781.07211	0.5526
1780.10781	0.60664
1779.1435	0.66718
1778.17919	0.73396
1777.21489	0.80525
1776.25058	0.87653
1775.28628	0.94012
1774.32197	0.98554
1773.35767	1
1772.39336	0.9772
1771.42906	0.92199
1770.46475	0.8481
1769.50045	0.76942
1768.53614	0.69454
1767.57183	0.62833
1766.60753	0.57248
1765.64322	0.52662
1764.67892	0.48965
1763.71461	0.45998
1762.75031	0.43589
1761.786	0.416
1760.8217	0.39943
1759.85739	0.38562
1758.89309	0.37427
1757.92878	0.36542
1756.96448	0.35934
1756.00017	0.35656
1755.03586	0.35786
1754.07156	0.36465
1753.10725	0.37935
1752.14295	0.40445
1751.17864	0.43973
1750.21434	0.47638
1749.25003	0.49534
1748.28573	0.48561
1747.32142	0.46237
1746.35712	0.4467
1745.39281	0.44451
1744.4285	0.44556
1743.4642	0.43589
1742.49989	0.41704
1741.53559	0.40265
1740.57128	0.40124
1739.60698	0.41334
1738.64267	0.43512
1737.67837	0.46031
1736.71406	0.481
1735.74976	0.48906
1734.78545	0.48011
1733.82115	0.45572
1732.85684	0.42184
1731.89253	0.3848
1730.92823	0.34871
1729.96392	0.31569
1728.99962	0.28652
1728.03531	0.26121
1727.07101	0.23947
1726.1067	0.22096
1725.1424	0.2052
1724.17809	0.19182
1723.21379	0.18034
1722.24948	0.17032
1721.28517	0.16123
1720.32087	0.15277
1719.35656	0.14481
1718.39226	0.13739
1717.42795	0.13058
1716.46365	0.12433
1715.49934	0.11849
1714.53504	0.11301
1713.57073	0.10789
1712.60643	0.10314
1711.64212	0.09884
1710.67781	0.09505
1709.71351	0.09182
1708.7492	0.0892
1707.7849	0.08716
1706.82059	0.08571
1705.85629	0.08485
1704.89198	0.08451
1703.92768	0.08457
1702.96337	0.08483
1701.99907	0.08514
1701.03476	0.08548
1700.07046	0.08614
1699.10615	0.08721
1698.14184	0.08843
1697.17754	0.08966
1696.21323	0.09098
1695.24893	0.09254
1694.28462	0.09433
1693.32032	0.09631
1692.35601	0.09855
1691.39171	0.10114
1690.4274	0.10412
1689.4631	0.10746
1688.49879	0.11107
1687.53448	0.11499
1686.57018	0.1193
1685.60587	0.12424
1684.64157	0.13035
1683.67726	0.13827
1682.71296	0.14886
1681.74865	0.16295
1680.78435	0.17985
1679.82004	0.19476
1678.85574	0.19986
1677.89143	0.19284
1676.92713	0.18014
1675.96282	0.16876
1674.99851	0.16144
1674.03421	0.15797
1673.0699	0.15737
1672.1056	0.15897
1671.14129	0.16245
1670.17699	0.16772
1669.21268	0.17501
1668.24838	0.1849
1667.28407	0.19806
1666.31977	0.21548
1665.35546	0.23838
1664.39115	0.26836
1663.42685	0.3073
1662.46254	0.35723
1661.49824	0.4195
1660.53393	0.4938
1659.56963	0.57758
1658.60532	0.66273
1657.64102	0.73439
1656.67671	0.77194
1655.71241	0.76168
1654.7481	0.70843
1653.7838	0.63101
1652.81949	0.54817
1651.85518	0.47174
1650.89088	0.40702
1649.92657	0.35466
1648.96227	0.31383
1647.99796	0.28288
1647.03366	0.26004
1646.06935	0.2437
1645.10505	0.23261
1644.14074	0.22579
1643.17644	0.22236
1642.21213	0.22152
1641.24782	0.22258
1640.28352	0.22512
1639.31921	0.22908
1638.35491	0.23455
1637.3906	0.24176
1636.4263	0.25091
1635.46199	0.26237
1634.49769	0.27677
1633.53338	0.2948
1632.56908	0.31765
1631.60477	0.34691
1630.64047	0.38416
1629.67616	0.43016
1628.71185	0.48319
1627.74755	0.5373
1626.78324	0.58303
1625.81894	0.61137
1624.85463	0.61572
1623.89033	0.59328
1622.92602	0.54743
1621.96172	0.48886
1620.99741	0.42809
1620.03311	0.37211
1619.0688	0.32401
1618.10449	0.28421
1617.14019	0.25158
1616.17588	0.2247
1615.21158	0.20241
1614.24727	0.18367
1613.28297	0.1679
1612.31866	0.15476
1611.35436	0.14385
1610.39005	0.13478
1609.42575	0.12723
1608.46144	0.12101
1607.49714	0.1159
1606.53283	0.11171
1605.56852	0.10822
1604.60422	0.10522
1603.63991	0.10262
1602.67561	0.10045
1601.7113	0.09887
1600.747	0.09801
1599.78269	0.09789
1598.81839	0.09846
1597.85408	0.09973
1596.88978	0.10176
1595.92547	0.10489
1594.96116	0.10962
1593.99686	0.11645
1593.03255	0.1256
1592.06825	0.13682
1591.10394	0.14901
1590.13964	0.15955
1589.17533	0.16457
1588.21103	0.16145
1587.24672	0.15162
1586.28242	0.13933
1585.31811	0.12831
1584.3538	0.12032
1583.3895	0.11564
1582.42519	0.1139
1581.46089	0.11459
1580.49658	0.11729
1579.53228	0.12176
1578.56797	0.12799
1577.60367	0.13608
1576.63936	0.14624
1575.67506	0.15875
1574.71075	0.17362
1573.74645	0.19079
1572.78214	0.21028
1571.81783	0.23191
1570.85353	0.25511
1569.88922	0.27874
1568.92492	0.30099
1567.96061	0.31958
1566.99631	0.33268
1566.032	0.33951
1565.0677	0.3409
1564.10339	0.33872
1563.13909	0.33444
1562.17478	0.32812
1561.21047	0.31899
1560.24617	0.30712
1559.28186	0.29392
1558.31756	0.28091
1557.35325	0.26882
1556.38895	0.25755
1555.42464	0.24673
1554.46034	0.23647
1553.49603	0.22773
1552.53173	0.22182
1551.56742	0.22002
1550.60312	0.22284
1549.63881	0.22879
1548.6745	0.23383
1547.7102	0.23342
1546.74589	0.22622
1545.78159	0.21462
1544.81728	0.20171
1543.85298	0.18939
1542.88867	0.17826
1541.92437	0.1685
1540.96006	0.1601
1539.99576	0.15279
1539.03145	0.14633
1538.06714	0.14056
1537.10284	0.13527
1536.13853	0.13044
1535.17423	0.12614
1534.20992	0.12231
1533.24562	0.11893
1532.28131	0.11591
1531.31701	0.11301
1530.3527	0.11022
1529.3884	0.10753
1528.42409	0.10494
1527.45979	0.10247
1526.49548	0.10005
1525.53117	0.09764
1524.56687	0.09524
1523.60256	0.09282
1522.63826	0.09038
1521.67395	0.08795
1520.70965	0.08559
1519.74534	0.0833
1518.78104	0.081
1517.81673	0.07862
1516.85243	0.07632
1515.88812	0.07416
1514.92381	0.07208
1513.95951	0.07009
1512.9952	0.06815
1512.0309	0.0663
1511.06659	0.06456
1510.10229	0.06288
1509.13798	0.06124
1508.17368	0.05968
1507.20937	0.05817
1506.24507	0.0568
1505.28076	0.05559
1504.31646	0.0545
1503.35215	0.0535
1502.38784	0.05263
1501.42354	0.05194
1500.45923	0.05143
1499.49493	0.05106
1498.53062	0.05084
1497.56632	0.05074
1496.60201	0.05071
1495.63771	0.05092
1494.6734	0.0514
1493.7091	0.05211
1492.74479	0.05311
1491.78048	0.05442
1490.81618	0.05618
1489.85187	0.05864
1488.88757	0.06197
1487.92326	0.06635
1486.95896	0.07211
1485.99465	0.0796
1485.03035	0.0889
1484.06604	0.09965
1483.10174	0.11047
1482.13743	0.11888
1481.17313	0.12232
1480.20882	0.11989
1479.24451	0.11294
1478.28021	0.10401
1477.3159	0.09527
1476.3516	0.08801
1475.38729	0.08272
1474.42299	0.07936
1473.45868	0.07783
1472.49438	0.0781
1471.53007	0.08023
1470.56577	0.08417
1469.60146	0.08962
1468.63715	0.09576
1467.67285	0.10167
1466.70854	0.10708
1465.74424	0.11234
1464.77993	0.11798
1463.81563	0.12425
1462.85132	0.13089
1461.88702	0.13729
1460.92271	0.14259
1459.95841	0.14577
1458.9941	0.14611
1458.02979	0.14374
1457.06549	0.13957
1456.10118	0.13491
1455.13688	0.13074
1454.17257	0.12752
1453.20827	0.12545
1452.24396	0.12451
1451.27966	0.12449
1450.31535	0.12497
1449.35105	0.1256
1448.38674	0.12624
1447.42244	0.12686
1446.45813	0.12749
1445.49382	0.12823
1444.52952	0.12909
1443.56521	0.13005
1442.60091	0.13094
1441.6366	0.13147
1440.6723	0.13126
1439.70799	0.12999
1438.74369	0.12755
1437.77938	0.12406
1436.81508	0.11986
1435.85077	0.11534
1434.88646	0.11056
1433.92216	0.10556
1432.95785	0.10055
1431.99355	0.09578
1431.02924	0.09154
1430.06494	0.08797
1429.10063	0.08506
1428.13633	0.08267
1427.17202	0.0807
1426.20772	0.07918
1425.24341	0.07811
1424.27911	0.07752
1423.3148	0.07747
1422.35049	0.07796
1421.38619	0.07903
1420.42188	0.08077
1419.45758	0.08365
1418.49327	0.08823
1417.52897	0.09385
1416.56466	0.09791
1415.60036	0.09942
1414.63605	0.10073
1413.67175	0.10343
1412.70744	0.10665
1411.74313	0.10891
1410.77883	0.10901
1409.81452	0.10676
1408.85022	0.10305
1407.88591	0.09927
1406.92161	0.09675
1405.9573	0.09627
1404.993	0.09816
1404.02869	0.10254
1403.06439	0.10952
1402.10008	0.1193
1401.13578	0.1318
1400.17147	0.14583
1399.20716	0.15879
1398.24286	0.16833
1397.27855	0.17439
1396.31425	0.17901
1395.34994	0.18425
1394.38564	0.19083
1393.42133	0.19788
1392.45703	0.20333
1391.49272	0.20537
1390.52842	0.20351
1389.56411	0.19899
1388.5998	0.19414
1387.6355	0.19122
1386.67119	0.19126
1385.70689	0.19333
1384.74258	0.19489
1383.77828	0.19359
1382.81397	0.18948
1381.84967	0.18518
1380.88536	0.18341
1379.92106	0.18483
1378.95675	0.18751
1377.99245	0.18836
1377.02814	0.18544
1376.06383	0.17931
1375.09953	0.17225
1374.13522	0.16666
1373.17092	0.16423
1372.20661	0.16538
1371.24231	0.16774
1370.278	0.16654
1369.3137	0.15967
1368.34939	0.1501
1367.38509	0.1414
1366.42078	0.1346
1365.45647	0.12877
1364.49217	0.12276
1363.52786	0.11651
1362.56356	0.1105
1361.59925	0.10492
1360.63495	0.09959
1359.67064	0.09447
1358.70634	0.08968
1357.74203	0.08543
1356.77773	0.08188
1355.81342	0.07894
1354.84911	0.07641
1353.88481	0.07417
1352.9205	0.07224
1351.9562	0.0707
1350.99189	0.06962
1350.02759	0.0689
1349.06328	0.06843
1348.09898	0.06816
1347.13467	0.06816
1346.17037	0.06855
1345.20606	0.06937
1344.24176	0.07055
1343.27745	0.07193
1342.31314	0.07342
1341.34884	0.07493
1340.38453	0.0765
1339.42023	0.07813
1338.45592	0.0797
1337.49162	0.0811
1336.52731	0.08237
1335.56301	0.08364
1334.5987	0.08507
1333.6344	0.08684
1332.67009	0.08903
1331.70578	0.09173
1330.74148	0.09502
1329.77717	0.09911
1328.81287	0.10429
1327.84856	0.11078
1326.88426	0.11879
1325.91995	0.12855
1324.95565	0.14031
1323.99134	0.15427
1323.02704	0.17048
1322.06273	0.18825
1321.09843	0.20601
1320.13412	0.22127
1319.16981	0.23107
1318.20551	0.23328
1317.2412	0.22777
1316.2769	0.21643
1315.31259	0.202
1314.34829	0.18687
1313.38398	0.17249
1312.41968	0.15946
1311.45537	0.14797
1310.49107	0.13806
1309.52676	0.12965
1308.56245	0.12253
1307.59815	0.11645
1306.63384	0.11121
1305.66954	0.10673
1304.70523	0.10288
1303.74093	0.0996
1302.77662	0.0968
1301.81232	0.09437
1300.84801	0.09228
1299.88371	0.09051
1298.9194	0.08908
1297.9551	0.08797
1296.99079	0.08716
1296.02648	0.08662
1295.06218	0.08636
1294.09787	0.08645
1293.13357	0.08688
1292.16926	0.08751
1291.20496	0.08814
1290.24065	0.08869
1289.27635	0.08928
1288.31204	0.09021
1287.34774	0.09182
1286.38343	0.09431
1285.41912	0.09777
1284.45482	0.10227
1283.49051	0.10791
1282.52621	0.11478
1281.5619	0.12275
1280.5976	0.13137
1279.63329	0.13946
1278.66899	0.14536
1277.70468	0.14775
1276.74038	0.14651
1275.77607	0.14268
1274.81177	0.1376
1273.84746	0.13222
1272.88315	0.127
1271.91885	0.12235
1270.95454	0.11891
1269.99024	0.1173
1269.02593	0.11791
1268.06163	0.12095
1267.09732	0.12628
1266.13302	0.13339
1265.16871	0.14131
1264.20441	0.14865
1263.2401	0.15401
1262.27579	0.15634
1261.31149	0.15529
1260.34718	0.15113
1259.38288	0.14465
1258.41857	0.13707
1257.45427	0.12947
1256.48996	0.12261
1255.52566	0.1169
1254.56135	0.11247
1253.59705	0.10919
1252.63274	0.10669
1251.66844	0.1045
1250.70413	0.10212
1249.73982	0.09927
1248.77552	0.09607
1247.81121	0.09289
1246.84691	0.09005
1245.8826	0.08767
1244.9183	0.08578
1243.95399	0.08428
1242.98969	0.08313
1242.02538	0.08241
1241.06108	0.08226
1240.09677	0.08272
1239.13246	0.08376
1238.16816	0.08539
1237.20385	0.08765
1236.23955	0.09067
1235.27524	0.09466
1234.31094	0.09961
1233.34663	0.10538
1232.38233	0.11206
1231.41802	0.12002
1230.45372	0.12983
1229.48941	0.14203
1228.5251	0.15699
1227.5608	0.17457
1226.59649	0.19365
1225.63219	0.21201
1224.66788	0.2264
1223.70358	0.23332
1222.73927	0.23089
1221.77497	0.21999
1220.81066	0.20355
1219.84636	0.18487
1218.88205	0.16642
1217.91775	0.14953
1216.95344	0.13475
1215.98913	0.12215
1215.02483	0.1115
1214.06052	0.10243
1213.09622	0.09466
1212.13191	0.08817
1211.16761	0.08302
1210.2033	0.07912
1209.239	0.07625
1208.27469	0.07396
1207.31039	0.07179
1206.34608	0.0696
1205.38177	0.06763
1204.41747	0.06619
1203.45316	0.06536
1202.48886	0.06509
1201.52455	0.06531
1200.56025	0.06611
1199.59594	0.06763
1198.63164	0.07003
1197.66733	0.07331
1196.70303	0.07751
1195.73872	0.08273
1194.77442	0.08896
1193.81011	0.09587
1192.8458	0.10263
1191.8815	0.10862
1190.91719	0.11411
1189.95289	0.12008
1188.98858	0.12735
1188.02428	0.1358
1187.05997	0.14451
1186.09567	0.15275
1185.13136	0.16105
1184.16706	0.17062
1183.20275	0.18135
1182.23844	0.19084
1181.27414	0.19613
1180.30983	0.19629
1179.34553	0.19278
1178.38122	0.18742
1177.41692	0.18083
1176.45261	0.17294
1175.48831	0.16399
1174.524	0.15501
1173.5597	0.14735
1172.59539	0.14212
1171.63109	0.14002
1170.66678	0.14146
1169.70247	0.14658
1168.73817	0.15528
1167.77386	0.16679
1166.80956	0.17909
1165.84525	0.18877
1164.88095	0.19225
1163.91664	0.18859
1162.95234	0.18068
1161.98803	0.17279
1161.02373	0.16795
1160.05942	0.16744
1159.09511	0.17161
1158.13081	0.18016
1157.1665	0.19181
1156.2022	0.20388
1155.23789	0.21308
1154.27359	0.21817
1153.30928	0.22195
1152.34498	0.22958
1151.38067	0.24437
1150.41637	0.26341
1149.45206	0.27538
1148.48776	0.26765
1147.52345	0.2415
1146.55914	0.21027
1145.59484	0.18428
1144.63053	0.16638
1143.66623	0.15562
1142.70192	0.15038
1141.73762	0.14961
1140.77331	0.15285
1139.80901	0.16016
1138.8447	0.17176
1137.8804	0.188
1136.91609	0.20944
1135.95178	0.23685
1134.98748	0.27089
1134.02317	0.31119
1133.05887	0.35547
1132.09456	0.39891
1131.13026	0.43452
1130.16595	0.45524
1129.20165	0.45681
1128.23734	0.44028
1127.27304	0.41114
1126.30873	0.37601
1125.34443	0.33999
1124.38012	0.30627
1123.41581	0.27644
1122.45151	0.25109
1121.4872	0.23041
1120.5229	0.21439
1119.55859	0.20295
1118.59429	0.1962
1117.62998	0.19425
1116.66568	0.19715
1115.70137	0.20457
1114.73707	0.21516
1113.77276	0.22614
1112.80845	0.23364
1111.84415	0.23452
1110.87984	0.22793
1109.91554	0.21549
1108.95123	0.19996
1107.98693	0.18394
1107.02262	0.16926
1106.05832	0.15669
1105.09401	0.14635
1104.12971	0.13804
1103.1654	0.13136
1102.20109	0.12591
1101.23679	0.12131
1100.27248	0.11727
1099.30818	0.11349
1098.34387	0.10977
1097.37957	0.10598
1096.41526	0.10201
1095.45096	0.09789
1094.48665	0.09373
1093.52235	0.08956
1092.55804	0.08542
1091.59374	0.08136
1090.62943	0.07747
1089.66512	0.07377
1088.70082	0.07038
1087.73651	0.06741
1086.77221	0.06486
1085.8079	0.06263
1084.8436	0.06068
1083.87929	0.05911
1082.91499	0.05806
1081.95068	0.05765
1080.98638	0.05783
1080.02207	0.05833
1079.05776	0.05893
1078.09346	0.05958
1077.12915	0.06042
1076.16485	0.06165
1075.20054	0.06333
1074.23624	0.06536
1073.27193	0.06761
1072.30763	0.07013
1071.34332	0.07312
1070.37902	0.07663
1069.41471	0.08041
1068.45041	0.08404
1067.4861	0.0872
1066.52179	0.08998
1065.55749	0.09279
1064.59318	0.09608
1063.62888	0.10013
1062.66457	0.10492
1061.70027	0.11032
1060.73596	0.11636
1059.77166	0.12328
1058.80735	0.13131
1057.84305	0.14058
1056.87874	0.15102
1055.91443	0.16269
1054.95013	0.17584
1053.98582	0.1909
1053.02152	0.20817
1052.05721	0.22776
1051.09291	0.24957
1050.1286	0.27389
1049.1643	0.30135
1048.19999	0.33173
1047.23569	0.36185
1046.27138	0.38451
1045.30708	0.39396
1044.34277	0.39347
1043.37846	0.39275
1042.41416	0.40012
1041.44985	0.41934
1040.48555	0.44961
1039.52124	0.48546
1038.55694	0.51739
1037.59263	0.53582
1036.62833	0.53703
1035.66402	0.52466
1034.69972	0.50496
1033.73541	0.48253
1032.7711	0.45866
1031.8068	0.43174
1030.84249	0.40006
1029.87819	0.36457
1028.91388	0.32884
1027.94958	0.29625
1026.98527	0.2681
1026.02097	0.24418
1025.05666	0.22371
1024.09236	0.20591
1023.12805	0.19034
1022.16375	0.17676
1021.19944	0.16481
1020.23513	0.15429
1019.27083	0.14538
1018.30652	0.13852
1017.34222	0.13424
1016.37791	0.13294
1015.41361	0.1343
1014.4493	0.13742
1013.485	0.14133
1012.52069	0.14518
1011.55639	0.14809
1010.59208	0.14931
1009.62777	0.14855
1008.66347	0.14576
1007.69916	0.14127
1006.73486	0.13579
1005.77055	0.1299
1004.80625	0.12427
1003.84194	0.1196
1002.87764	0.11632
1001.91333	0.11456
1000.94903	0.11441
999.98472	0.11626
999.02042	0.12062
998.05611	0.12795
997.0918	0.13876
996.1275	0.15363
995.16319	0.17317
994.19889	0.19815
993.23458	0.22913
992.27028	0.26562
991.30597	0.30523
990.34167	0.34347
989.37736	0.37438
988.41306	0.39241
987.44875	0.39501
986.48444	0.38365
985.52014	0.36222
984.55583	0.33512
983.59153	0.30591
982.62722	0.277
981.66292	0.24981
980.69861	0.22509
979.73431	0.20307
978.77	0.18367
977.8057	0.16661
976.84139	0.15155
975.87708	0.13834
974.91278	0.12701
973.94847	0.11764
972.98417	0.11008
972.01986	0.10403
971.05556	0.09931
970.09125	0.09616
969.12695	0.095
968.16264	0.09642
967.19834	0.10116
966.23403	0.10949
965.26973	0.11997
964.30542	0.12845
963.34111	0.13023
962.37681	0.12449
961.4125	0.11487
960.4482	0.10537
959.48389	0.09815
958.51959	0.09391
957.55528	0.09282
956.59098	0.09446
955.62667	0.09738
954.66237	0.09938
953.69806	0.09892
952.73375	0.09631
951.76945	0.09334
950.80514	0.09148
949.84084	0.09105
948.87653	0.09155
947.91223	0.09281
946.94792	0.09536
945.98362	0.09955
945.01931	0.10464
944.05501	0.1086
943.0907	0.10921
942.1264	0.10569
941.16209	0.09913
940.19778	0.09123
939.23348	0.08306
938.26917	0.07522
937.30487	0.06815
936.34056	0.06212
935.37626	0.05711
934.41195	0.053
933.44765	0.04975
932.48334	0.04747
931.51904	0.04636
930.55473	0.04654
929.59042	0.04789
928.62612	0.05001
927.66181	0.05221
926.69751	0.05353
925.7332	0.05307
924.7689	0.05065
923.80459	0.04685
922.84029	0.04255
921.87598	0.03838
920.91168	0.03469
919.94737	0.03166
918.98307	0.02932
918.01876	0.02754
917.05445	0.02604
916.09015	0.02458
915.12584	0.02315
914.16154	0.02188
913.19723	0.02085
912.23293	0.02003
911.26862	0.01934
910.30432	0.0186
909.34001	0.01772
908.37571	0.01684
907.4114	0.01614
906.44709	0.01569
905.48279	0.01533
904.51848	0.01491
903.55418	0.01437
902.58987	0.01379
901.62557	0.01333
900.66126	0.01307
899.69696	0.01297
898.73265	0.01287
897.76835	0.01273
896.80404	0.01249
895.83974	0.01227
894.87543	0.01223
893.91112	0.01236
892.94682	0.01262
891.98251	0.01291
891.01821	0.01319
890.0539	0.01351
889.0896	0.01413
888.12529	0.0152
887.16099	0.01669
886.19668	0.01859
885.23238	0.02097
884.26807	0.02412
883.30376	0.02843
882.33946	0.03399
881.37515	0.03986
880.41085	0.04391
879.44654	0.04424
878.48224	0.0409
877.51793	0.03576
876.55363	0.03083
875.58932	0.027
874.62502	0.02424
873.66071	0.02228
872.69641	0.02095
871.7321	0.02018
870.76779	0.01999
869.80349	0.02046
868.83918	0.02156
867.87488	0.02318
866.91057	0.02538
865.94627	0.02846
864.98196	0.03293
864.01766	0.03962
863.05335	0.04943
862.08905	0.06293
861.12474	0.07995
860.16043	0.09878
859.19613	0.11529
858.23182	0.12354
857.26752	0.11967
856.30321	0.10634
855.33891	0.08997
854.3746	0.07511
853.4103	0.06336
852.44599	0.05479
851.48169	0.04888
850.51738	0.04491
849.55307	0.04216
848.58877	0.04018
847.62446	0.039
846.66016	0.03897
845.69585	0.04023
844.73155	0.04208
843.76724	0.04303
842.80294	0.04203
841.83863	0.0394
840.87433	0.03634
839.91002	0.03386
838.94572	0.03222
837.98141	0.03119
837.0171	0.03041
836.0528	0.02972
835.08849	0.02916
834.12419	0.02902
833.15988	0.02946
832.19558	0.0302
831.23127	0.0309
830.26697	0.03146
829.30266	0.03203
828.33836	0.03285
827.37405	0.03413
826.40974	0.03586
825.44544	0.03767
824.48113	0.03926
823.51683	0.04065
822.55252	0.04208
821.58822	0.04378
820.62391	0.04579
819.65961	0.04788
818.6953	0.04988
817.731	0.052
816.76669	0.05445
815.80239	0.05733
814.83808	0.06047
813.87377	0.06356
812.90947	0.06629
811.94516	0.06855
810.98086	0.07077
810.01655	0.07362
809.05225	0.07747
808.08794	0.08235
807.12364	0.08828
806.15933	0.095
805.19503	0.10136
804.23072	0.10521
803.26641	0.10485
802.30211	0.10079
801.3378	0.09505
800.3735	0.08919
799.40919	0.08384
798.44489	0.07924
797.48058	0.07577
796.51628	0.07345
795.55197	0.07188
794.58767	0.07059
793.62336	0.06899
792.65906	0.06672
791.69475	0.06416
790.73044	0.06179
789.76614	0.0595
788.80183	0.05707
787.83753	0.05456
786.87322	0.05229
785.90892	0.05065
784.94461	0.04979
783.98031	0.04952
783.016	0.04943
782.0517	0.0494
781.08739	0.04984
780.12308	0.05141
779.15878	0.05472
778.19447	0.06005
777.23017	0.0678
776.26586	0.07855
775.30156	0.09253
774.33725	0.10767
773.37295	0.11909
772.40864	0.12206
771.44434	0.11531
770.48003	0.10262
769.51573	0.08897
768.55142	0.07683
767.58711	0.06773
766.62281	0.06214
765.6585	0.05874
764.6942	0.0563
763.72989	0.05455
762.76559	0.0541
761.80128	0.05575
760.83698	0.06006
759.87267	0.0673
758.90837	0.07693
757.94406	0.08737
756.97975	0.09723
756.01545	0.10673
755.05114	0.11425
754.08684	0.11496
753.12253	0.10712
752.15823	0.09528
751.19392	0.0849
750.22962	0.07825
749.26531	0.07522
748.30101	0.07495
747.3367	0.07611
746.3724	0.07709
745.40809	0.07662
744.44378	0.07474
743.47948	0.07232
742.51517	0.06977
741.55087	0.06662
740.58656	0.06228
739.62226	0.05735
738.65795	0.05335
737.69365	0.05152
736.72934	0.05242
735.76504	0.05626
734.80073	0.06298
733.83642	0.07157
732.87212	0.07928
731.90781	0.0826
730.94351	0.0802
729.9792	0.07393
729.0149	0.06648
728.05059	0.05938
727.08629	0.05327
726.12198	0.04851
725.15768	0.04522
724.19337	0.04282
723.22906	0.04059
722.26476	0.03857
721.30045	0.03703
720.33615	0.03602
719.37184	0.03569
718.40754	0.0359
717.44323	0.03633
716.47893	0.03685
715.51462	0.03747
714.55032	0.03785
713.58601	0.03768
712.62171	0.03704
711.6574	0.03627
710.69309	0.03572
709.72879	0.03569
708.76448	0.03649
707.80018	0.03795
706.83587	0.03981
705.87157	0.0421
704.90726	0.04493
703.94296	0.04844
702.97865	0.0528
702.01435	0.05776
701.05004	0.06226
700.08573	0.06489
699.12143	0.06482
698.15712	0.06257
697.19282	0.05942
696.22851	0.05638
695.26421	0.05378
694.2999	0.05148
693.3356	0.04954
692.37129	0.04813
691.40699	0.04701
690.44268	0.0459
689.47838	0.04474
688.51407	0.04359
687.54976	0.04261
686.58546	0.04201
685.62115	0.04166
684.65685	0.04117
683.69254	0.0405
682.72824	0.03986
681.76393	0.03944
680.79963	0.03938
679.83532	0.03958
678.87102	0.03977
677.90671	0.03975
676.9424	0.03971
675.9781	0.03995
675.01379	0.04056
674.04949	0.04157
673.08518	0.04288
672.12088	0.04423
671.15657	0.04576
670.19227	0.04802
669.22796	0.05155
668.26366	0.05643
667.29935	0.06262
666.33505	0.06966
665.37074	0.07619
664.40643	0.08027
663.44213	0.08035
662.47782	0.07639
661.51352	0.06971
660.54921	0.06207
659.58491	0.05481
658.6206	0.04848
657.6563	0.0435
656.69199	0.03996
655.72769	0.03728
654.76338	0.03473
653.79907	0.03214
652.83477	0.02983
651.87046	0.02802
650.90616	0.02693
649.94185	0.02629
648.97755	0.02539
648.01324	0.02396
647.04894	0.0225
646.08463	0.02156
645.12033	0.02125
644.15602	0.02131
643.19172	0.02113
642.22741	0.02034
641.2631	0.01941
640.2988	0.01912
639.33449	0.01959
638.37019	0.02051
637.40588	0.02165
636.44158	0.02279
635.47727	0.02435
634.51297	0.0273
633.54866	0.03194
632.58436	0.03701
631.62005	0.04055
630.65574	0.04145
629.69144	0.04007
628.72713	0.03762
627.76283	0.0353
626.79852	0.03358
625.83422	0.03197
624.86991	0.03
623.90561	0.0279
622.9413	0.02625
621.977	0.02547
621.01269	0.02537
620.04839	0.02531
619.08408	0.02477
618.11977	0.024
617.15547	0.02353
616.19116	0.02369
615.22686	0.02453
614.26255	0.02563
613.29825	0.02637
612.33394	0.02658
611.36964	0.02683
610.40533	0.02753
609.44103	0.02835
608.47672	0.02887
607.51241	0.02905
606.54811	0.02912
605.5838	0.02958
604.6195	0.03143
603.65519	0.0349
602.69089	0.03898
601.72658	0.04222
600.76228	0.04315
599.79797	0.04139
598.83367	0.03829
597.86936	0.03537
596.90505	0.03283
595.94075	0.03042
594.97644	0.0283
594.01214	0.02669
593.04783	0.02577
592.08353	0.02548
591.11922	0.02555
590.15492	0.02536
589.19061	0.0249
588.22631	0.02473
587.262	0.02528
586.2977	0.02654
585.33339	0.02817
584.36908	0.03013
583.40478	0.03243
582.44047	0.03523
581.47617	0.0382
580.51186	0.04033
579.54756	0.04111
578.58325	0.04071
577.61895	0.03973
576.65464	0.03904
575.69034	0.03921
574.72603	0.04006
573.76172	0.04092
572.79742	0.04134
571.83311	0.04159
570.86881	0.04201
569.9045	0.04272
568.9402	0.04368
567.97589	0.04403
567.01159	0.043
566.04728	0.04101
565.08298	0.03904
564.11867	0.03755
563.15437	0.03645
562.19006	0.03547
561.22575	0.03426
560.26145	0.03317
559.29714	0.0329
558.33284	0.0335
557.36853	0.03438
556.40423	0.03518
555.43992	0.03616
554.47562	0.03753
553.51131	0.03975
552.54701	0.04318
551.5827	0.04753
550.61839	0.05205
549.65409	0.05637
548.68978	0.06072
547.72548	0.06485
546.76117	0.06822
545.79687	0.07036
544.83256	0.07098
543.86826	0.0706
542.90395	0.07017
541.93965	0.07037
540.97534	0.0709
540.01104	0.07061
539.04673	0.06826
538.08242	0.06328
537.11812	0.05669
536.15381	0.05051
535.18951	0.04562
534.2252	0.04183
533.2609	0.03877
532.29659	0.03597
531.33229	0.03362
530.36798	0.03245
529.40368	0.03283
528.43937	0.03422
527.47506	0.03569
526.51076	0.03709
525.54645	0.03923
524.58215	0.04279
523.61784	0.04753
522.65354	0.05208
521.68923	0.05412
520.72493	0.05268
519.76062	0.04897
518.79632	0.04483
517.83201	0.04153
516.86771	0.03906
515.9034	0.03675
514.93909	0.03402
513.97479	0.03142
513.01048	0.0301
512.04618	0.03001
511.08187	0.03048
510.11757	0.03094
509.15326	0.03092
508.18896	0.03057
507.22465	0.03111
506.26035	0.03308
505.29604	0.03565
504.33173	0.03759
503.36743	0.03793
502.40312	0.03701
501.43882	0.03578
500.47451	0.03505
499.51021	0.03458
498.5459	0.03343
497.5816	0.0316
496.61729	0.02974
495.65299	0.02855
494.68868	0.02828
493.72438	0.02885
492.76007	0.02922
491.79576	0.02846
490.83146	0.02735
489.86715	0.02699
488.90285	0.02767
487.93854	0.02874
486.97424	0.02938
486.00993	0.02919
485.04563	0.02883
484.08132	0.02899
483.11702	0.02985
482.15271	0.03122
481.1884	0.03214
480.2241	0.03227
479.25979	0.03209
478.29549	0.0322
477.33118	0.03299
476.36688	0.03407
475.40257	0.03468
474.43827	0.03452
473.47396	0.03417
472.50966	0.03417
471.54535	0.03485
470.58104	0.03591
469.61674	0.03658
468.65243	0.03657
467.68813	0.03612
466.72382	0.03624
465.75952	0.03693
464.79521	0.03753
463.83091	0.03763
462.8666	0.03722
461.9023	0.03681
460.93799	0.03648
459.97369	0.03635
459.00938	0.03636
458.04507	0.03622
457.08077	0.03546
456.11646	0.03414
455.15216	0.0332
454.18785	0.03285
453.22355	0.03237
452.25924	0.03145
451.29494	0.03055
450.33063	0.0295
449.36633	0.02838
448.40202	0.02767
447.43771	0.02711
446.47341	0.02649
445.5091	0.02577
444.5448	0.02493
443.58049	0.02404
442.61619	0.02332
441.65188	0.02277
440.68758	0.02225
439.72327	0.02181
438.75897	0.02149
437.79466	0.02133
436.83036	0.02093
435.86605	0.02037
434.90174	0.02007
433.93744	0.0199
432.97313	0.01988
432.00883	0.01997
431.04452	0.02002
430.08022	0.01976
429.11591	0.01997
428.15161	0.02113
427.1873	0.02248
426.223	0.02382
425.25869	0.02504
424.29438	0.02634
423.33008	0.02823
422.36577	0.0309
421.40147	0.03389
420.43716	0.0366
419.47286	0.03926
418.50855	0.04204
417.54425	0.04456
416.57994	0.0464
415.61564	0.04717
414.65133	0.04597
413.68703	0.04362
412.72272	0.04241
411.75841	0.04336
410.79411	0.04615
409.8298	0.0494
408.8655	0.05162
407.90119	0.05299
406.93689	0.05457
405.97258	0.05683
405.00828	0.0592
404.04397	0.06088
403.07967	0.06134
402.11536	0.06056
401.15105	0.06045
400.18675	0.06197