401	0.03661
402	0.03661
403	0.03661
404	0.03661
405	0.03661
406	0.03661
407	0.03661
408	0.03661
409	0.03661
410	0.03661
411	0.03661
412	0.03661
413	0.03661
414	0.03661
415	0.03661
416	0.03661
417	0.03661
418	0.03653
419	0.03631
420	0.0361
421	0.03595
422	0.03587
423	0.03595
424	0.03626
425	0.0368
426	0.03754
427	0.03841
428	0.03934
429	0.04027
430	0.0412
431	0.04213
432	0.04304
433	0.04387
434	0.04457
435	0.04516
436	0.04562
437	0.04592
438	0.04601
439	0.04583
440	0.04536
441	0.04457
442	0.04344
443	0.0421
444	0.04068
445	0.03922
446	0.0378
447	0.03648
448	0.03524
449	0.03403
450	0.03283
451	0.03162
452	0.03039
453	0.02916
454	0.028
455	0.02692
456	0.02589
457	0.02492
458	0.0241
459	0.0235
460	0.02312
461	0.02295
462	0.02296
463	0.0232
464	0.02367
465	0.02438
466	0.02533
467	0.02646
468	0.02781
469	0.02941
470	0.0312
471	0.03307
472	0.03495
473	0.03688
474	0.03881
475	0.0406
476	0.04214
477	0.04337
478	0.0443
479	0.04494
480	0.04527
481	0.04535
482	0.04523
483	0.04497
484	0.0446
485	0.04416
486	0.04372
487	0.04333
488	0.04302
489	0.0428
490	0.04265
491	0.04259
492	0.04269
493	0.04295
494	0.04332
495	0.04376
496	0.04429
497	0.04491
498	0.04553
499	0.04603
500	0.04634
501	0.0465
502	0.04658
503	0.04662
504	0.04659
505	0.0465
506	0.04642
507	0.04643
508	0.04657
509	0.04687
510	0.0474
511	0.04821
512	0.04934
513	0.05077
514	0.05249
515	0.05454
516	0.05696
517	0.05975
518	0.06282
519	0.06609
520	0.06951
521	0.07301
522	0.0764
523	0.07954
524	0.08233
525	0.08473
526	0.08668
527	0.08803
528	0.08869
529	0.08863
530	0.08788
531	0.08648
532	0.08442
533	0.08175
534	0.07859
535	0.07505
536	0.0712
537	0.06712
538	0.06293
539	0.05882
540	0.05492
541	0.05133
542	0.04805
543	0.04515
544	0.0427
545	0.04074
546	0.03921
547	0.03808
548	0.03734
549	0.03699
550	0.03699
551	0.03727
552	0.0378
553	0.03862
554	0.03978
555	0.04127
556	0.04307
557	0.04521
558	0.04775
559	0.05072
560	0.05415
561	0.05802
562	0.06236
563	0.06721
564	0.07257
565	0.07835
566	0.08443
567	0.09074
568	0.09724
569	0.10381
570	0.11024
571	0.11634
572	0.12196
573	0.12699
574	0.1313
575	0.13477
576	0.13731
577	0.13893
578	0.13962
579	0.13939
580	0.13826
581	0.13628
582	0.13359
583	0.13032
584	0.12657
585	0.12244
586	0.11811
587	0.11373
588	0.10947
589	0.10542
590	0.1017
591	0.09845
592	0.09578
593	0.09375
594	0.09236
595	0.09161
596	0.09152
597	0.09205
598	0.09314
599	0.09464
600	0.09644
601	0.09843
602	0.10049
603	0.1025
604	0.1043
605	0.10577
606	0.1068
607	0.1073
608	0.10719
609	0.10641
610	0.10494
611	0.10283
612	0.10015
613	0.09697
614	0.09338
615	0.08949
616	0.08546
617	0.08147
618	0.07768
619	0.07417
620	0.07098
621	0.06812
622	0.06563
623	0.06349
624	0.06171
625	0.06029
626	0.05927
627	0.05862
628	0.05827
629	0.05815
630	0.05818
631	0.05831
632	0.05847
633	0.05862
634	0.0587
635	0.05869
636	0.05857
637	0.05832
638	0.05793
639	0.05744
640	0.05687
641	0.05627
642	0.05557
643	0.05465
644	0.0534
645	0.0521
646	0.05115
647	0.05071
648	0.05072
649	0.05107
650	0.05166
651	0.05232
652	0.05291
653	0.05335
654	0.05354
655	0.05343
656	0.05299
657	0.05215
658	0.05091
659	0.04926
660	0.0472
661	0.04474
662	0.04191
663	0.03878
664	0.03539
665	0.0318
666	0.02812
667	0.02458
668	0.02166
669	0.02016
670	0.02018
671	0.02127
672	0.02303
673	0.02522
674	0.02771
675	0.03042
676	0.0333
677	0.03633
678	0.03947
679	0.04267
680	0.04593
681	0.04927
682	0.05274
683	0.05636
684	0.06017
685	0.06424
686	0.06866
687	0.07352
688	0.07892
689	0.08496
690	0.09176
691	0.09948
692	0.10817
693	0.11769
694	0.1275
695	0.13712
696	0.14637
697	0.1551
698	0.16316
699	0.17033
700	0.1764
701	0.18119
702	0.18457
703	0.18643
704	0.18673
705	0.18554
706	0.18295
707	0.17909
708	0.17412
709	0.16824
710	0.16169
711	0.15472
712	0.14755
713	0.14037
714	0.13338
715	0.12675
716	0.12063
717	0.11511
718	0.11024
719	0.10609
720	0.10272
721	0.10017
722	0.09834
723	0.09705
724	0.09617
725	0.09561
726	0.09527
727	0.09504
728	0.09485
729	0.09464
730	0.0944
731	0.0941
732	0.09372
733	0.09326
734	0.09279
735	0.0924
736	0.09213
737	0.09205
738	0.09223
739	0.09277
740	0.09377
741	0.0953
742	0.0974
743	0.10011
744	0.10346
745	0.1074
746	0.1118
747	0.11653
748	0.12145
749	0.12648
750	0.13145
751	0.13618
752	0.14048
753	0.14421
754	0.14727
755	0.14955
756	0.15094
757	0.1514
758	0.1509
759	0.1495
760	0.14723
761	0.14415
762	0.14033
763	0.13592
764	0.13105
765	0.12588
766	0.12051
767	0.11506
768	0.10965
769	0.10439
770	0.09933
771	0.09449
772	0.08992
773	0.08566
774	0.08173
775	0.07811
776	0.07478
777	0.07172
778	0.06894
779	0.06643
780	0.06416
781	0.06208
782	0.06017
783	0.05844
784	0.05686
785	0.0554
786	0.054
787	0.05268
788	0.05142
789	0.05023
790	0.04906
791	0.04788
792	0.04668
793	0.04548
794	0.04427
795	0.04305
796	0.04179
797	0.04054
798	0.03932
799	0.03811
800	0.03693
801	0.03578
802	0.03469
803	0.0337
804	0.03277
805	0.0319
806	0.03108
807	0.03031
808	0.0296
809	0.02893
810	0.02826
811	0.0276
812	0.02697
813	0.02638
814	0.02581
815	0.02527
816	0.02477
817	0.02436
818	0.02404
819	0.02383
820	0.02374
821	0.02378
822	0.024
823	0.02443
824	0.02507
825	0.02594
826	0.02706
827	0.02847
828	0.03015
829	0.03208
830	0.03425
831	0.03666
832	0.03929
833	0.0421
834	0.04503
835	0.04806
836	0.05116
837	0.05429
838	0.0574
839	0.06044
840	0.06337
841	0.06618
842	0.06884
843	0.07132
844	0.07359
845	0.07567
846	0.07757
847	0.07932
848	0.08091
849	0.08237
850	0.08371
851	0.08497
852	0.08613
853	0.08719
854	0.08811
855	0.08888
856	0.08947
857	0.08985
858	0.08995
859	0.08974
860	0.0892
861	0.08828
862	0.08695
863	0.0852
864	0.083
865	0.08037
866	0.07733
867	0.07391
868	0.07017
869	0.06619
870	0.06204
871	0.05782
872	0.0536
873	0.04948
874	0.04555
875	0.0419
876	0.03856
877	0.03558
878	0.03299
879	0.03079
880	0.02899
881	0.02756
882	0.02647
883	0.02567
884	0.02513
885	0.02481
886	0.02465
887	0.02459
888	0.02462
889	0.02472
890	0.02487
891	0.02506
892	0.02532
893	0.02565
894	0.02608
895	0.02664
896	0.02734
897	0.02821
898	0.02928
899	0.03055
900	0.03204
901	0.03371
902	0.03556
903	0.03757
904	0.03974
905	0.04202
906	0.0444
907	0.04686
908	0.04938
909	0.05195
910	0.05455
911	0.05718
912	0.05988
913	0.06267
914	0.06559
915	0.06867
916	0.07198
917	0.07558
918	0.07956
919	0.08395
920	0.0888
921	0.09413
922	0.09993
923	0.10621
924	0.11291
925	0.11999
926	0.12741
927	0.13513
928	0.14309
929	0.15122
930	0.15941
931	0.16751
932	0.17541
933	0.18291
934	0.18986
935	0.19605
936	0.20135
937	0.20563
938	0.20878
939	0.21072
940	0.2114
941	0.21084
942	0.20904
943	0.20605
944	0.20191
945	0.19669
946	0.19056
947	0.1837
948	0.17635
949	0.16879
950	0.16134
951	0.15431
952	0.14803
953	0.14273
954	0.1386
955	0.13579
956	0.1344
957	0.13451
958	0.1361
959	0.13915
960	0.14362
961	0.14943
962	0.1565
963	0.16466
964	0.17378
965	0.18368
966	0.19417
967	0.20508
968	0.21619
969	0.22733
970	0.23837
971	0.24921
972	0.25976
973	0.26998
974	0.27985
975	0.28938
976	0.29862
977	0.30761
978	0.31641
979	0.32509
980	0.33378
981	0.3426
982	0.35169
983	0.36117
984	0.37117
985	0.38184
986	0.39327
987	0.4055
988	0.41851
989	0.43222
990	0.44649
991	0.46108
992	0.4757
993	0.49001
994	0.5037
995	0.51643
996	0.52792
997	0.53794
998	0.54633
999	0.55301
1000	0.55799
1001	0.5614
1002	0.56343
1003	0.56438
1004	0.56466
1005	0.56479
1006	0.56533
1007	0.56688
1008	0.57008
1009	0.57553
1010	0.58375
1011	0.59515
1012	0.60996
1013	0.62825
1014	0.64995
1015	0.67479
1016	0.70236
1017	0.7321
1018	0.76335
1019	0.79539
1020	0.82743
1021	0.85865
1022	0.88825
1023	0.91546
1024	0.93962
1025	0.96018
1026	0.9767
1027	0.98889
1028	0.99664
1029	1
1030	0.99916
1031	0.99442
1032	0.9862
1033	0.97498
1034	0.9613
1035	0.94571
1036	0.92874
1037	0.91092
1038	0.89274
1039	0.87465
1040	0.85705
1041	0.84024
1042	0.82448
1043	0.80995
1044	0.79674
1045	0.78491
1046	0.7744
1047	0.76512
1048	0.75692
1049	0.74955
1050	0.74271
1051	0.73605
1052	0.72915
1053	0.7216
1054	0.713
1055	0.70299
1056	0.69128
1057	0.67771
1058	0.66224
1059	0.645
1060	0.62624
1061	0.60636
1062	0.5859
1063	0.56549
1064	0.54581
1065	0.52756
1066	0.51142
1067	0.49803
1068	0.4879
1069	0.48144
1070	0.47881
1071	0.48002
1072	0.4848
1073	0.4927
1074	0.50304
1075	0.51497
1076	0.52757
1077	0.53987
1078	0.55095
1079	0.55998
1080	0.56629
1081	0.56942
1082	0.56914
1083	0.56542
1084	0.55847
1085	0.54868
1086	0.53659
1087	0.52287
1088	0.50826
1089	0.49351
1090	0.47937
1091	0.46652
1092	0.45554
1093	0.44686
1094	0.44077
1095	0.43738
1096	0.43662
1097	0.4383
1098	0.44206
1099	0.44747
1100	0.45402
1101	0.46119
1102	0.46846
1103	0.47536
1104	0.48146
1105	0.48641
1106	0.48999
1107	0.49203
1108	0.49244
1109	0.49121
1110	0.4884
1111	0.48415
1112	0.47864
1113	0.47208
1114	0.4647
1115	0.45677
1116	0.44852
1117	0.44018
1118	0.43193
1119	0.42391
1120	0.41626
1121	0.40903
1122	0.40228
1123	0.39598
1124	0.39014
1125	0.38471
1126	0.37965
1127	0.37493
1128	0.37053
1129	0.36646
1130	0.36275
1131	0.35946
1132	0.35666
1133	0.35445
1134	0.353
1135	0.35247
1136	0.35307
1137	0.35497
1138	0.35834
1139	0.36334
1140	0.37009
1141	0.37863
1142	0.38897
1143	0.40103
1144	0.4147
1145	0.42976
1146	0.44595
1147	0.46291
1148	0.48022
1149	0.49744
1150	0.51409
1151	0.52967
1152	0.54367
1153	0.55562
1154	0.56508
1155	0.5717
1156	0.57517
1157	0.57529
1158	0.57194
1159	0.56515
1160	0.55501
1161	0.54173
1162	0.52558
1163	0.50696
1164	0.4863
1165	0.46409
1166	0.44084
1167	0.41704
1168	0.3932
1169	0.36979
1170	0.34721
1171	0.32579
1172	0.30581
1173	0.28746
1174	0.27088
1175	0.25612
1176	0.24317
1177	0.23195
1178	0.22234
1179	0.21421
1180	0.20738
1181	0.20168
1182	0.19692
1183	0.19297
1184	0.18968
1185	0.18696
1186	0.1847
1187	0.18284
1188	0.18137
1189	0.18026
1190	0.17952
1191	0.17913
1192	0.17908
1193	0.17938
1194	0.18
1195	0.18091
1196	0.18206
1197	0.18337
1198	0.18478
1199	0.18617
1200	0.18744
1201	0.18847
1202	0.18913
1203	0.18936
1204	0.18907
1205	0.18822
1206	0.18674
1207	0.18465
1208	0.18195
1209	0.1787
1210	0.17496
1211	0.1708
1212	0.16634
1213	0.16171
1214	0.15702
1215	0.15238
1216	0.1479
1217	0.14369
1218	0.13986
1219	0.13649
1220	0.13363
1221	0.13132
1222	0.12959
1223	0.12845
1224	0.12789
1225	0.12788
1226	0.12842
1227	0.12945
1228	0.13095
1229	0.13287
1230	0.13514
1231	0.13771
1232	0.14052
1233	0.14351
1234	0.14664
1235	0.14983
1236	0.15304
1237	0.15622
1238	0.15933
1239	0.1623
1240	0.16509
1241	0.16765
1242	0.16994
1243	0.17195
1244	0.17362
1245	0.17495
1246	0.1759
1247	0.17648
1248	0.17671
1249	0.17659
1250	0.17612
1251	0.17531
1252	0.17418
1253	0.17276
1254	0.17104
1255	0.16906
1256	0.16686
1257	0.16446
1258	0.16192
1259	0.15928
1260	0.15661
1261	0.15396
1262	0.15139
1263	0.14895
1264	0.1467
1265	0.14469
1266	0.14297
1267	0.14159
1268	0.1406
1269	0.14001
1270	0.13984
1271	0.14009
1272	0.14077
1273	0.14185
1274	0.14328
1275	0.145
1276	0.14698
1277	0.14915
1278	0.15147
1279	0.1539
1280	0.15638
1281	0.15892
1282	0.16148
1283	0.16407
1284	0.16668
1285	0.16931
1286	0.17197
1287	0.17465
1288	0.17736
1289	0.18009
1290	0.18283
1291	0.18556
1292	0.18824
1293	0.19083
1294	0.19326
1295	0.1955
1296	0.19748
1297	0.19917
1298	0.20052
1299	0.20147
1300	0.20199
1301	0.20207
1302	0.20171
1303	0.20094
1304	0.19979
1305	0.19832
1306	0.19661
1307	0.19473
1308	0.19278
1309	0.19085
1310	0.18904
1311	0.18741
1312	0.18606
1313	0.18507
1314	0.1845
1315	0.1844
1316	0.18482
1317	0.18579
1318	0.18733
1319	0.18939
1320	0.19192
1321	0.1948
1322	0.1979
1323	0.20111
1324	0.20431
1325	0.20736
1326	0.21018
1327	0.21267
1328	0.21474
1329	0.21631
1330	0.21732
1331	0.21774
1332	0.21756
1333	0.21679
1334	0.21545
1335	0.21359
1336	0.21129
1337	0.20865
1338	0.20577
1339	0.20279
1340	0.19988
1341	0.19712
1342	0.1945
1343	0.19198
1344	0.18954
1345	0.18719
1346	0.18497
1347	0.1829
1348	0.18101
1349	0.17932
1350	0.17787
1351	0.17673
1352	0.17596
1353	0.1756
1354	0.17567
1355	0.17618
1356	0.17715
1357	0.17852
1358	0.18027
1359	0.18233
1360	0.1847
1361	0.18737
1362	0.19035
1363	0.19357
1364	0.19687
1365	0.19995
1366	0.20247
1367	0.20416
1368	0.20485
1369	0.20441
1370	0.20273
1371	0.19979
1372	0.19564
1373	0.19038
1374	0.1842
1375	0.17731
1376	0.16993
1377	0.16221
1378	0.15434
1379	0.14652
1380	0.13893
1381	0.1318
1382	0.12538
1383	0.11993
1384	0.11569
1385	0.1128
1386	0.11124
1387	0.11088
1388	0.11149
1389	0.11277
1390	0.11446
1391	0.11638
1392	0.11838
1393	0.12033
1394	0.1222
1395	0.124
1396	0.12578
1397	0.12757
1398	0.12932
1399	0.131
1400	0.13259
1401	0.13409
1402	0.13548
1403	0.1368
1404	0.13809
1405	0.13942
1406	0.1409
1407	0.14254
1408	0.14429
1409	0.14608
1410	0.1478
1411	0.14935
1412	0.15064
1413	0.15163
1414	0.15232
1415	0.15274
1416	0.15293
1417	0.15294
1418	0.15285
1419	0.15273
1420	0.1526
1421	0.1524
1422	0.15204
1423	0.15151
1424	0.15085
1425	0.1501
1426	0.14926
1427	0.14829
1428	0.14719
1429	0.146
1430	0.14476
1431	0.14347
1432	0.14212
1433	0.14075
1434	0.13948
1435	0.13839
1436	0.13755
1437	0.13701
1438	0.13672
1439	0.13659
1440	0.13654
1441	0.13658
1442	0.13673
1443	0.13701
1444	0.13739
1445	0.13785
1446	0.13837
1447	0.13897
1448	0.13968
1449	0.14056
1450	0.14158
1451	0.14274
1452	0.14401
1453	0.14539
1454	0.14682
1455	0.14823
1456	0.14957
1457	0.15082
1458	0.15194
1459	0.15281
1460	0.15322
1461	0.15296
1462	0.1519
1463	0.15002
1464	0.14745
1465	0.1444
1466	0.14108
1467	0.13767
1468	0.13431
1469	0.13108
1470	0.12807
1471	0.12536
1472	0.1231
1473	0.12143
1474	0.12043
1475	0.12002
1476	0.12013
1477	0.12066
1478	0.12144
1479	0.12228
1480	0.12301
1481	0.12346
1482	0.12343
1483	0.12282
1484	0.1217
1485	0.12021
1486	0.11848
1487	0.11666
1488	0.11487
1489	0.11322
1490	0.11175
1491	0.11047
1492	0.10923
1493	0.10797
1494	0.10673
1495	0.10558
1496	0.10453
1497	0.10361
1498	0.10278
1499	0.102
1500	0.10121
1501	0.10028
1502	0.09911
1503	0.09766
1504	0.09593
1505	0.09402
1506	0.09209
1507	0.09043
1508	0.08924
1509	0.08851
1510	0.08815
1511	0.08812
1512	0.08834
1513	0.08871
1514	0.08912
1515	0.08943
1516	0.08965
1517	0.08999
1518	0.09055
1519	0.09129
1520	0.09211
1521	0.09304
1522	0.09413
1523	0.09529
1524	0.09629
1525	0.09696
1526	0.09724
1527	0.09718
1528	0.09679
1529	0.09611
1530	0.09512
1531	0.09384
1532	0.09226
1533	0.09034
1534	0.08809
1535	0.0856
1536	0.083
1537	0.08042
1538	0.07792
1539	0.07561
1540	0.07373
1541	0.07238
1542	0.07144
1543	0.07078
1544	0.07032
1545	0.06998
1546	0.0697
1547	0.06928
1548	0.06856
1549	0.06748
1550	0.06604
1551	0.06426
1552	0.06206
1553	0.05945
1554	0.05653
1555	0.05344
1556	0.0503
1557	0.04716
1558	0.04406
1559	0.04116
1560	0.03859
1561	0.03635
1562	0.03442
1563	0.03285
1564	0.03164
1565	0.03075
1566	0.03009
1567	0.02961
1568	0.02926
1569	0.02902
1570	0.02889
1571	0.02881
1572	0.02874
1573	0.02866
1574	0.02859
1575	0.02851
1576	0.02843
1577	0.0284
1578	0.02844
1579	0.02853
1580	0.02861
1581	0.02865
1582	0.02865
1583	0.02865
1584	0.02865
1585	0.02865
1586	0.02865
1587	0.02865
1588	0.02865
1589	0.02865
1590	0.02865
1591	0.02865
1592	0.02865
1593	0.02865
1594	0.02865
1595	0.02865
1596	0.02865
1597	0.02865
1598	0.02865
1599	0.02865
1600	0.02865
1601	0.02865
1602	0.02865
1603	0.02865
1604	0.02865
1605	0.02865
1606	0.02865
1607	0.02865
1608	0.02865
1609	0.02865
1610	0.02865
1611	0.02865
1612	0.02865
1613	0.02865
1614	0.02865
1615	0.02865
1616	0.02865
1617	0.02865
1618	0.02865
1619	0.02865
1620	0.02865
1621	0.02865
1622	0.02865
1623	0.02865
1624	0.02865
1625	0.02865
1626	0.02865
1627	0.02865
1628	0.02865
1629	0.02865
1630	0.02865
1631	0.02865
1632	0.02865
1633	0.02865
1634	0.02865
1635	0.02865
1636	0.02865
1637	0.02865
1638	0.02865
1639	0.02865
1640	0.02865
1641	0.02865
1642	0.02865
1643	0.02865
1644	0.02865
1645	0.02865
1646	0.02865
1647	0.02865
1648	0.02865
1649	0.02865
1650	0.02865
1651	0.02865
1652	0.02865
1653	0.02865
1654	0.02865
1655	0.02865
1656	0.02865
1657	0.02865
1658	0.02865
1659	0.02865
1660	0.02865
1661	0.02865
1662	0.02851
1663	0.02819
1664	0.02779
1665	0.02738
1666	0.02705
1667	0.02689
1668	0.02699
1669	0.02744
1670	0.0283
1671	0.02959
1672	0.03133
1673	0.03357
1674	0.03633
1675	0.03964
1676	0.0435
1677	0.04789
1678	0.05277
1679	0.05806
1680	0.06366
1681	0.0695
1682	0.07545
1683	0.08144
1684	0.0874
1685	0.09323
1686	0.09867
1687	0.10365
1688	0.10817
1689	0.11217
1690	0.11561
1691	0.11846
1692	0.12074
1693	0.12242
1694	0.12352
1695	0.12411
1696	0.12429
1697	0.12414
1698	0.12361
1699	0.1227
1700	0.12141
1701	0.11978
1702	0.11779
1703	0.11539
1704	0.1126
1705	0.1095
1706	0.10616
1707	0.10274
1708	0.09926
1709	0.09566
1710	0.09188
1711	0.08804
1712	0.08429
1713	0.08067
1714	0.07722
1715	0.07405
1716	0.07127
1717	0.06899
1718	0.06732
1719	0.06628
1720	0.0658
1721	0.06577
1722	0.06608
1723	0.06668
1724	0.06758
1725	0.06875
1726	0.07009
1727	0.07158
1728	0.07325
1729	0.07512
1730	0.07722
1731	0.07955
1732	0.08204
1733	0.08473
1734	0.08776
1735	0.0913
1736	0.09527
1737	0.09963
1738	0.10446
1739	0.10992
1740	0.11611
1741	0.12307
1742	0.13074
1743	0.13908
1744	0.14805
1745	0.15762
1746	0.16775
1747	0.17834
1748	0.18935
1749	0.20068
1750	0.21221
1751	0.22371
1752	0.23497
1753	0.24569
1754	0.25559
1755	0.26444
1756	0.27205
1757	0.27839
1758	0.28344
1759	0.28711
1760	0.28935
1761	0.29024
1762	0.29003
1763	0.28894
1764	0.28712
1765	0.28471
1766	0.28188
1767	0.27887
1768	0.27593
1769	0.27331
1770	0.27118
1771	0.26967
1772	0.26892
1773	0.26896
1774	0.26969
1775	0.27093
1776	0.27249
1777	0.2742
1778	0.27592
1779	0.27751
1780	0.27889
1781	0.27997
1782	0.28061
1783	0.28066
1784	0.28005
1785	0.2788
1786	0.27692
1787	0.27441
1788	0.27129
1789	0.26764
1790	0.26358
1791	0.25923
1792	0.25475
1793	0.25023
1794	0.24569
1795	0.24114
1796	0.23659
1797	0.23205
1798	0.22743
1799	0.22271
1800	0.2179
1801	0.21301
1802	0.20805
1803	0.20303
1804	0.1979
1805	0.19259
1806	0.18709
1807	0.18143
1808	0.17568
1809	0.16987
1810	0.16403
1811	0.15821
1812	0.15245
1813	0.14679
1814	0.14126
1815	0.13587
1816	0.13064
1817	0.12557
1818	0.12065
1819	0.11588
1820	0.11127
1821	0.10689
1822	0.10276
1823	0.09892
1824	0.09539
1825	0.0922
1826	0.08936
1827	0.0868
1828	0.08447
1829	0.08236
1830	0.08051
1831	0.07894
1832	0.07755
1833	0.07628
1834	0.07507
1835	0.07391
1836	0.07276
1837	0.07161
1838	0.07045
1839	0.0693
1840	0.06812
1841	0.06694
1842	0.06575
1843	0.06462
1844	0.06361
1845	0.06282
1846	0.06227
1847	0.06195
1848	0.06183
1849	0.06187
1850	0.06199
1851	0.06211
1852	0.06219
1853	0.06222
1854	0.06216
1855	0.06196
1856	0.06157
1857	0.061
1858	0.06025
1859	0.05935
1860	0.05832
1861	0.05719
1862	0.056
1863	0.05476
1864	0.05349
1865	0.05226
1866	0.05114
1867	0.05026
1868	0.04969
1869	0.04946
1870	0.04954
1871	0.04984
1872	0.05029
1873	0.05081
1874	0.05135
1875	0.05187
1876	0.05233
1877	0.05271
1878	0.05298
1879	0.05313
1880	0.05316
1881	0.05306
1882	0.05283
1883	0.05247
1884	0.052
1885	0.05144
1886	0.05083
1887	0.0502
1888	0.04959
1889	0.04904
1890	0.04863
1891	0.04837
1892	0.04824
1893	0.04818
1894	0.04816
1895	0.04818
1896	0.04823
1897	0.04831
1898	0.04835
1899	0.04835
1900	0.04831
1901	0.04823
1902	0.0481
1903	0.04791
1904	0.04763
1905	0.04725
1906	0.04679
1907	0.04625
1908	0.04566
1909	0.04504
1910	0.04443
1911	0.04383
1912	0.04325
1913	0.04268
1914	0.04212
1915	0.04156
1916	0.04101
1917	0.04049
1918	0.04005
1919	0.03973
1920	0.03954
1921	0.03944
1922	0.03943
1923	0.03954
1924	0.03977
1925	0.04006
1926	0.04036
1927	0.04063
1928	0.04084
1929	0.04098
1930	0.04104
1931	0.04101
1932	0.04091
1933	0.04074
1934	0.0405
1935	0.04017
1936	0.03976
1937	0.03927
1938	0.03873
1939	0.03817
1940	0.0376
1941	0.03707
1942	0.03663
1943	0.03633
1944	0.03617
1945	0.03614
1946	0.03624
1947	0.03646
1948	0.03673
1949	0.037
1950	0.03725
1951	0.03745
1952	0.03761
1953	0.03771
1954	0.03775
1955	0.03773
1956	0.03765
1957	0.03752
1958	0.03732
1959	0.03706
1960	0.03674
1961	0.03638
1962	0.036
1963	0.0356
1964	0.03521
1965	0.03485
1966	0.03457
1967	0.03438
1968	0.03429
1969	0.03427
1970	0.03431
1971	0.03439
1972	0.03448
1973	0.03455
1974	0.03461
1975	0.03462
1976	0.0346
1977	0.03454
1978	0.03442
1979	0.03425
1980	0.03403
1981	0.03375
1982	0.03342
1983	0.03304
1984	0.03261
1985	0.03215
1986	0.03167
1987	0.0312
1988	0.03075
1989	0.03034
1990	0.03001
1991	0.02974
1992	0.02956
1993	0.02947
1994	0.02945
1995	0.02948
1996	0.02955
1997	0.02964
1998	0.02973
1999	0.02981
2000	0.02988
2001	0.02992
2002	0.02992
2003	0.02987
2004	0.02978
2005	0.02963
2006	0.02944
2007	0.0292
2008	0.02893
2009	0.02864
2010	0.02832
2011	0.02801
2012	0.0277
2013	0.02741
2014	0.02715
2015	0.02693
2016	0.02677
2017	0.02667
2018	0.02663
2019	0.02666
2020	0.02673
2021	0.02683
2022	0.02695
2023	0.02708
2024	0.02721
2025	0.02734
2026	0.02745
2027	0.02754
2028	0.02762
2029	0.02766
2030	0.02768
2031	0.02768
2032	0.02764
2033	0.02758
2034	0.0275
2035	0.02739
2036	0.02727
2037	0.02715
2038	0.02702
2039	0.02691
2040	0.02681
2041	0.02675
2042	0.02673
2043	0.02674
2044	0.02677
2045	0.02681
2046	0.02686
2047	0.0269
2048	0.02694
2049	0.02696
2050	0.02697
2051	0.02696
2052	0.02692
2053	0.02687
2054	0.02679
2055	0.0267
2056	0.02658
2057	0.02646
2058	0.02631
2059	0.02616
2060	0.026
2061	0.02585
2062	0.0257
2063	0.02555
2064	0.02543
2065	0.02534
2066	0.02528
2067	0.02526
2068	0.02525
2069	0.02526
2070	0.02527
2071	0.02528
2072	0.02529
2073	0.0253
2074	0.0253
2075	0.02529
2076	0.02529
2077	0.02527
2078	0.02525
2079	0.02522
2080	0.02519
2081	0.02515
2082	0.0251
2083	0.02505
2084	0.025
2085	0.02494
2086	0.02489
2087	0.02484
2088	0.02481
2089	0.02479
2090	0.0248
2091	0.02481
2092	0.02483
2093	0.02485
2094	0.02487
2095	0.0249
2096	0.02492
2097	0.02494
2098	0.02495
2099	0.02497
2100	0.02498
2101	0.02498
2102	0.02498
2103	0.02498
2104	0.02497
2105	0.02495
2106	0.02493
2107	0.0249
2108	0.02487
2109	0.02484
2110	0.02481
2111	0.02479
2112	0.02478
2113	0.02478
2114	0.0248
2115	0.02482
2116	0.02486
2117	0.0249
2118	0.02495
2119	0.02501
2120	0.02506
2121	0.02512
2122	0.02518
2123	0.02524
2124	0.02529
2125	0.02534
2126	0.02539
2127	0.02543
2128	0.02546
2129	0.02549
2130	0.02551
2131	0.02553
2132	0.02554
2133	0.02556
2134	0.02557
2135	0.02558
2136	0.0256
2137	0.02562
2138	0.02564
2139	0.02567
2140	0.0257
2141	0.02573
2142	0.02576
2143	0.02579
2144	0.02581
2145	0.02582
2146	0.02583
2147	0.02583
2148	0.02583
2149	0.02581
2150	0.02579
2151	0.02576
2152	0.02573
2153	0.02569
2154	0.02565
2155	0.0256
2156	0.02555
2157	0.0255
2158	0.02545
2159	0.02539
2160	0.02534
2161	0.02529
2162	0.02524
2163	0.02519
2164	0.02514
2165	0.02509
2166	0.02503
2167	0.02498
2168	0.02491
2169	0.02484
2170	0.02477
2171	0.02469
2172	0.0246
2173	0.02451
2174	0.02442
2175	0.02433
2176	0.02423
2177	0.02414
2178	0.02404
2179	0.02395
2180	0.02385
2181	0.02376
2182	0.02367
2183	0.02358
2184	0.02349
2185	0.02341
2186	0.02333
2187	0.02325
2188	0.02316
2189	0.02307
2190	0.02298
2191	0.02288
2192	0.02277
2193	0.02264
2194	0.02251
2195	0.02237
2196	0.02222
2197	0.02207
2198	0.0219
2199	0.02173
2200	0.02156
2201	0.02138
2202	0.02121
2203	0.02104
2204	0.02087
2205	0.02071
2206	0.02056
2207	0.02041
2208	0.02027
2209	0.02015
2210	0.02003
2211	0.01992
2212	0.01982
2213	0.01972
2214	0.01962
2215	0.01952
2216	0.01943
2217	0.01933
2218	0.01924
2219	0.01914
2220	0.01904
2221	0.01895
2222	0.01885
2223	0.01875
2224	0.01866
2225	0.01856
2226	0.01846
2227	0.01835
2228	0.01825
2229	0.01814
2230	0.01803
2231	0.01791
2232	0.01779
2233	0.01767
2234	0.01753
2235	0.01738
2236	0.01722
2237	0.01704
2238	0.01684
2239	0.01662
2240	0.01638
2241	0.01612
2242	0.01584
2243	0.01553
2244	0.01521
2245	0.01487
2246	0.01449
2247	0.01408
2248	0.01364
2249	0.01318
2250	0.01268
2251	0.01215
2252	0.0116
2253	0.01102
2254	0.01042
2255	0.00981
2256	0.0092
2257	0.00858
2258	0.00797
2259	0.00738
2260	0.0068
2261	0.00626
2262	0.00576
2263	0.00529
2264	0.00488
2265	0.00452
2266	0.00422
2267	0.00398
2268	0.00379
2269	0.00365
2270	0.00355
2271	0.00348
2272	0.00345
2273	0.00343
2274	0.00344
2275	0.00346
2276	0.00349
2277	0.00352
2278	0.00355
2279	0.00358
2280	0.00361
2281	0.00363
2282	0.00364
2283	0.00365
2284	0.00365
2285	0.00365
2286	0.00365
2287	0.00364
2288	0.00364
2289	0.00364
2290	0.00364
2291	0.00364
2292	0.00364
2293	0.00364
2294	0.00364
2295	0.00364
2296	0.00364
2297	0.00364
2298	0.00364
2299	0.00364
2300	0.00364
2301	0.00364
2302	0.00364
2303	0.00364
2304	0.00364
2305	0.00364
2306	0.00364
2307	0.00364
2308	0.00364
2309	0.00364
2310	0.00364
2311	0.00364
2312	0.00364
2313	0.00364
2314	0.00364
2315	0.00364
2316	0.00364
2317	0.00364
2318	0.00364
2319	0.00364
2320	0.00364
2321	0.00364
2322	0.00364
2323	0.00364
2324	0.00364
2325	0.00364
2326	0.00364
2327	0.00364
2328	0.00364
2329	0.00364
2330	0.00364
2331	0.00364
2332	0.00364
2333	0.00364
2334	0.00364
2335	0.00364
2336	0.00364
2337	0.00364
2338	0.00364
2339	0.00364
2340	0.00364
2341	0.00364
2342	0.00364
2343	0.00364
2344	0.00364
2345	0.00364
2346	0.00364
2347	0.00364
2348	0.00364
2349	0.00364
2350	0.00364
2351	0.00364
2352	0.00364
2353	0.00364
2354	0.00364
2355	0.00364
2356	0.00364
2357	0.00364
2358	0.00364
2359	0.00364
2360	0.00364
2361	0.00364
2362	0.00364
2363	0.00364
2364	0.00364
2365	0.00364
2366	0.00364
2367	0.00364
2368	0.00364
2369	0.00364
2370	0.00364
2371	0.00364
2372	0.00364
2373	0.00364
2374	0.00364
2375	0.00364
2376	0.00366
2377	0.00369
2378	0.00371
2379	0.0037
2380	0.00366
2381	0.0036
2382	0.00352
2383	0.00341
2384	0.00331
2385	0.00321
2386	0.00312
2387	0.00308
2388	0.00308
2389	0.00314
2390	0.00327
2391	0.00348
2392	0.00378
2393	0.00419
2394	0.00469
2395	0.00529
2396	0.00599
2397	0.00679
2398	0.00766
2399	0.00862
2400	0.00962
2401	0.01058
2402	0.01149
2403	0.01231
2404	0.01306
2405	0.01371
2406	0.01427
2407	0.01474
2408	0.01511
2409	0.0154
2410	0.0156
2411	0.01574
2412	0.01581
2413	0.01584
2414	0.01582
2415	0.01579
2416	0.01574
2417	0.0157
2418	0.01567
2419	0.01567
2420	0.0157
2421	0.01577
2422	0.01586
2423	0.01597
2424	0.01609
2425	0.0162
2426	0.01632
2427	0.01645
2428	0.0166
2429	0.01676
2430	0.01693
2431	0.01712
2432	0.01731
2433	0.01751
2434	0.01771
2435	0.01791
2436	0.01811
2437	0.0183
2438	0.01848
2439	0.01867
2440	0.01884
2441	0.01901
2442	0.01918
2443	0.01934
2444	0.01948
2445	0.01962
2446	0.01975
2447	0.01987
2448	0.01997
2449	0.02008
2450	0.02017
2451	0.02027
2452	0.02036
2453	0.02046
2454	0.02056
2455	0.02066
2456	0.02076
2457	0.02087
2458	0.02098
2459	0.02109
2460	0.02121
2461	0.02134
2462	0.02147
2463	0.02161
2464	0.02175
2465	0.0219
2466	0.02204
2467	0.02218
2468	0.02232
2469	0.02245
2470	0.02257
2471	0.02268
2472	0.02279
2473	0.02289
2474	0.02299
2475	0.02309
2476	0.02318
2477	0.02327
2478	0.02336
2479	0.02345
2480	0.02354
2481	0.02364
2482	0.02375
2483	0.02386
2484	0.02397
2485	0.02408
2486	0.0242
2487	0.02431
2488	0.02442
2489	0.02453
2490	0.02464
2491	0.02475
2492	0.02486
2493	0.02496
2494	0.02506
2495	0.02517
2496	0.02527
2497	0.02536
2498	0.02546
2499	0.02555
2500	0.02565
2501	0.02575
2502	0.02585
2503	0.02595
2504	0.02606
2505	0.02617
2506	0.02629
2507	0.02641
2508	0.02654
2509	0.02666
2510	0.0268
2511	0.02694
2512	0.02709
2513	0.02724
2514	0.0274
2515	0.02757
2516	0.02774
2517	0.02791
2518	0.02809
2519	0.02827
2520	0.02845
2521	0.02863
2522	0.02881
2523	0.02899
2524	0.02917
2525	0.02935
2526	0.02952
2527	0.0297
2528	0.02988
2529	0.03006
2530	0.03025
2531	0.03044
2532	0.03063
2533	0.03082
2534	0.03102
2535	0.03123
2536	0.03144
2537	0.03165
2538	0.03187
2539	0.03208
2540	0.03229
2541	0.0325
2542	0.03271
2543	0.03292
2544	0.03313
2545	0.03334
2546	0.03355
2547	0.03375
2548	0.03395
2549	0.03415
2550	0.03435
2551	0.03457
2552	0.03478
2553	0.03501
2554	0.03524
2555	0.03548
2556	0.03573
2557	0.036
2558	0.03628
2559	0.03657
2560	0.03687
2561	0.03719
2562	0.03751
2563	0.03784
2564	0.03819
2565	0.03855
2566	0.03891
2567	0.03929
2568	0.03967
2569	0.04005
2570	0.04044
2571	0.04084
2572	0.04124
2573	0.04165
2574	0.04206
2575	0.04247
2576	0.04288
2577	0.04328
2578	0.04369
2579	0.04409
2580	0.04448
2581	0.04488
2582	0.04527
2583	0.04566
2584	0.04604
2585	0.04643
2586	0.0468
2587	0.04717
2588	0.04754
2589	0.04789
2590	0.04825
2591	0.04861
2592	0.04896
2593	0.04932
2594	0.04967
2595	0.05004
2596	0.0504
2597	0.05077
2598	0.05113
2599	0.0515
2600	0.05187
2601	0.05225
2602	0.05262
2603	0.05301
2604	0.0534
2605	0.05379
2606	0.05419
2607	0.05459
2608	0.05499
2609	0.05539
2610	0.05579
2611	0.05618
2612	0.05657
2613	0.05696
2614	0.05734
2615	0.05773
2616	0.0581
2617	0.05847
2618	0.05884
2619	0.0592
2620	0.05955
2621	0.05989
2622	0.06022
2623	0.06055
2624	0.06087
2625	0.06118
2626	0.06149
2627	0.06179
2628	0.06208
2629	0.06237
2630	0.06266
2631	0.06293
2632	0.0632
2633	0.06347
2634	0.06372
2635	0.06397
2636	0.06422
2637	0.06445
2638	0.06468
2639	0.0649
2640	0.06512
2641	0.06532
2642	0.06551
2643	0.0657
2644	0.06587
2645	0.06604
2646	0.06619
2647	0.06634
2648	0.06648
2649	0.06661
2650	0.06674
2651	0.06686
2652	0.06697
2653	0.06708
2654	0.06718
2655	0.06728
2656	0.06737
2657	0.06746
2658	0.06756
2659	0.06765
2660	0.06774
2661	0.06782
2662	0.06791
2663	0.068
2664	0.06808
2665	0.06817
2666	0.06825
2667	0.06833
2668	0.0684
2669	0.06848
2670	0.06855
2671	0.06862
2672	0.0687
2673	0.06877
2674	0.06883
2675	0.06889
2676	0.06896
2677	0.06902
2678	0.06909
2679	0.06915
2680	0.06922
2681	0.0693
2682	0.06938
2683	0.06946
2684	0.06955
2685	0.06964
2686	0.06974
2687	0.06984
2688	0.06994
2689	0.07004
2690	0.07014
2691	0.07024
2692	0.07034
2693	0.07044
2694	0.07055
2695	0.07065
2696	0.07076
2697	0.07087
2698	0.07099
2699	0.07111
2700	0.07125
2701	0.07139
2702	0.07155
2703	0.07171
2704	0.07189
2705	0.07208
2706	0.07229
2707	0.07252
2708	0.07275
2709	0.073
2710	0.07325
2711	0.07351
2712	0.07378
2713	0.07405
2714	0.07431
2715	0.07458
2716	0.07485
2717	0.07512
2718	0.07539
2719	0.07565
2720	0.07592
2721	0.07618
2722	0.07644
2723	0.07671
2724	0.07698
2725	0.07724
2726	0.07751
2727	0.07777
2728	0.07803
2729	0.07829
2730	0.07855
2731	0.07881
2732	0.07907
2733	0.07933
2734	0.07959
2735	0.07986
2736	0.08013
2737	0.0804
2738	0.08067
2739	0.08094
2740	0.08122
2741	0.0815
2742	0.08178
2743	0.08207
2744	0.08237
2745	0.08267
2746	0.08297
2747	0.08327
2748	0.08356
2749	0.08385
2750	0.08412
2751	0.08438
2752	0.08462
2753	0.08486
2754	0.0851
2755	0.08533
2756	0.08556
2757	0.08578
2758	0.086
2759	0.08622
2760	0.08644
2761	0.08665
2762	0.08688
2763	0.0871
2764	0.08734
2765	0.08758
2766	0.08783
2767	0.08809
2768	0.08836
2769	0.08864
2770	0.08892
2771	0.08921
2772	0.0895
2773	0.0898
2774	0.0901
2775	0.09042
2776	0.09074
2777	0.09108
2778	0.09143
2779	0.09179
2780	0.09215
2781	0.09253
2782	0.09291
2783	0.0933
2784	0.0937
2785	0.09411
2786	0.09454
2787	0.09497
2788	0.09542
2789	0.09589
2790	0.09637
2791	0.09686
2792	0.09738
2793	0.0979
2794	0.09844
2795	0.099
2796	0.09957
2797	0.10016
2798	0.10076
2799	0.10138
2800	0.10201
2801	0.10265
2802	0.1033
2803	0.10396
2804	0.10462
2805	0.10529
2806	0.10595
2807	0.10662
2808	0.10728
2809	0.10795
2810	0.10861
2811	0.10927
2812	0.10993
2813	0.11059
2814	0.11125
2815	0.1119
2816	0.11254
2817	0.11319
2818	0.11383
2819	0.11446
2820	0.1151
2821	0.11573
2822	0.11635
2823	0.11697
2824	0.11758
2825	0.11819
2826	0.11879
2827	0.1194
2828	0.12
2829	0.12058
2830	0.12113
2831	0.1216
2832	0.12195
2833	0.12213
2834	0.1221
2835	0.1218
2836	0.12119
2837	0.12022
2838	0.11888
2839	0.11715
2840	0.11503
2841	0.11257
2842	0.10979
2843	0.10677
2844	0.10358
2845	0.10033
2846	0.09714
2847	0.09412
2848	0.09144
2849	0.08921
2850	0.08757
2851	0.08663
2852	0.08645
2853	0.08705
2854	0.08845
2855	0.09061
2856	0.09346
2857	0.09694
2858	0.10094
2859	0.10536
2860	0.11008
2861	0.115
2862	0.11999
2863	0.12497
2864	0.12984
2865	0.13453
2866	0.13899
2867	0.14317
2868	0.14707
2869	0.15068
2870	0.15402
2871	0.15712
2872	0.16
2873	0.1627
2874	0.16525
2875	0.16766
2876	0.16994
2877	0.1721
2878	0.17413
2879	0.17604
2880	0.17782
2881	0.17948
2882	0.181
2883	0.18238
2884	0.18363
2885	0.18473
2886	0.18568
2887	0.1865
2888	0.1872
2889	0.18779
2890	0.18827
2891	0.18869
2892	0.18905
2893	0.18938
2894	0.18972
2895	0.19006
2896	0.19043
2897	0.19081
2898	0.19118
2899	0.19152
2900	0.19177
2901	0.19189
2902	0.19182
2903	0.19152
2904	0.19093
2905	0.19002
2906	0.18876
2907	0.18714
2908	0.18518
2909	0.1829
2910	0.18035
2911	0.17759
2912	0.17472
2913	0.17186
2914	0.16911
2915	0.16662
2916	0.16452
2917	0.16294
2918	0.16199
2919	0.16175
2920	0.16226
2921	0.16353
2922	0.16552
2923	0.16819
2924	0.17144
2925	0.17518
2926	0.17928
2927	0.18362
2928	0.18807
2929	0.19251
2930	0.19682
2931	0.20087
2932	0.20457
2933	0.20783
2934	0.21058
2935	0.21279
2936	0.21441
2937	0.21546
2938	0.21594
2939	0.21589
2940	0.21534
2941	0.21435
2942	0.21296
2943	0.21125
2944	0.20925
2945	0.20702
2946	0.20462
2947	0.2021
2948	0.19954
2949	0.19697
2950	0.19447
2951	0.19207
2952	0.18985
2953	0.18783
2954	0.18606
2955	0.18455
2956	0.18332
2957	0.18237
2958	0.1817
2959	0.18129
2960	0.18114
2961	0.18121
2962	0.18146
2963	0.18188
2964	0.18243
2965	0.18306
2966	0.18376
2967	0.18448
2968	0.18518
2969	0.18583
2970	0.18638
2971	0.18681
2972	0.18709
2973	0.18719
2974	0.18711
2975	0.18682
2976	0.18632
2977	0.18559
2978	0.18462
2979	0.18343
2980	0.182
2981	0.18036
2982	0.17851
2983	0.17647
2984	0.17426
2985	0.1719
2986	0.16941
2987	0.16684
2988	0.16422
2989	0.16158
2990	0.15895
2991	0.15636
2992	0.15384
2993	0.15141
2994	0.14908
2995	0.14689
2996	0.14483
2997	0.14292
2998	0.14117
2999	0.13958
3000	0.13813
3001	0.13684
3002	0.1357
3003	0.1347
3004	0.13383
3005	0.13309
3006	0.13246
3007	0.13193
3008	0.13149
3009	0.13113
3010	0.13087
3011	0.1307
3012	0.1306
3013	0.13059
3014	0.13064
3015	0.13074
3016	0.13089
3017	0.13107
3018	0.1313
3019	0.13156
3020	0.13185
3021	0.13218
3022	0.13253
3023	0.13292
3024	0.13334
3025	0.13379
3026	0.13428
3027	0.1348
3028	0.13534
3029	0.1359
3030	0.13648
3031	0.13709
3032	0.13772
3033	0.13837
3034	0.13904
3035	0.13973
3036	0.1404
3037	0.14107
3038	0.1417
3039	0.1423
3040	0.14287
3041	0.1434
3042	0.14389
3043	0.14437
3044	0.14481
3045	0.14522
3046	0.14561
3047	0.14598
3048	0.14633
3049	0.14667
3050	0.147
3051	0.14732
3052	0.14763
3053	0.14793
3054	0.14824
3055	0.14855
3056	0.14888
3057	0.14922
3058	0.14957
3059	0.14993
3060	0.15027
3061	0.15061
3062	0.15094
3063	0.15125
3064	0.15154
3065	0.15181
3066	0.15207
3067	0.1523
3068	0.15252
3069	0.1527
3070	0.15286
3071	0.15298
3072	0.15307
3073	0.15315
3074	0.15321
3075	0.15326
3076	0.15331
3077	0.15336
3078	0.15343
3079	0.15353
3080	0.15368
3081	0.15388
3082	0.15412
3083	0.15438
3084	0.15467
3085	0.15499
3086	0.15533
3087	0.1557
3088	0.15608
3089	0.15649
3090	0.15691
3091	0.15734
3092	0.15779
3093	0.15824
3094	0.15871
3095	0.15919
3096	0.1597
3097	0.16023
3098	0.16079
3099	0.16136
3100	0.16197
3101	0.16262
3102	0.16331
3103	0.16403
3104	0.16479
3105	0.16556
3106	0.16635
3107	0.16715
3108	0.16796
3109	0.16877
3110	0.16961
3111	0.17045
3112	0.17131
3113	0.17219
3114	0.17309
3115	0.17402
3116	0.17499
3117	0.176
3118	0.17706
3119	0.17816
3120	0.17932
3121	0.18052
3122	0.18176
3123	0.18304
3124	0.18436
3125	0.1857
3126	0.18708
3127	0.18847
3128	0.18987
3129	0.19129
3130	0.19272
3131	0.19416
3132	0.1956
3133	0.19706
3134	0.19851
3135	0.19996
3136	0.20141
3137	0.20285
3138	0.20427
3139	0.20569
3140	0.20712
3141	0.20853
3142	0.20994
3143	0.21134
3144	0.21273
3145	0.21411
3146	0.21547
3147	0.21682
3148	0.21816
3149	0.21948
3150	0.2208
3151	0.22212
3152	0.22345
3153	0.22478
3154	0.22612
3155	0.22746
3156	0.22881
3157	0.23015
3158	0.23148
3159	0.2328
3160	0.23409
3161	0.23536
3162	0.23661
3163	0.23784
3164	0.23905
3165	0.24022
3166	0.24136
3167	0.24247
3168	0.24355
3169	0.24461
3170	0.24563
3171	0.24662
3172	0.24759
3173	0.24854
3174	0.24948
3175	0.25041
3176	0.25134
3177	0.25226
3178	0.25319
3179	0.25411
3180	0.25503
3181	0.25594
3182	0.25683
3183	0.25771
3184	0.25856
3185	0.25939
3186	0.26019
3187	0.26096
3188	0.2617
3189	0.26239
3190	0.26305
3191	0.26367
3192	0.26426
3193	0.26481
3194	0.26533
3195	0.26581
3196	0.26625
3197	0.26669
3198	0.26711
3199	0.26753
3200	0.26794
3201	0.26835
3202	0.26875
3203	0.26913
3204	0.26952
3205	0.26989
3206	0.27025
3207	0.2706
3208	0.27095
3209	0.27128
3210	0.27161
3211	0.27193
3212	0.27225
3213	0.27256
3214	0.27286
3215	0.27316
3216	0.27344
3217	0.2737
3218	0.27393
3219	0.27414
3220	0.27433
3221	0.27451
3222	0.27466
3223	0.27478
3224	0.27486
3225	0.27491
3226	0.27492
3227	0.27489
3228	0.27482
3229	0.27472
3230	0.27459
3231	0.27442
3232	0.27424
3233	0.27404
3234	0.27385
3235	0.27365
3236	0.27345
3237	0.27325
3238	0.27304
3239	0.27283
3240	0.2726
3241	0.27235
3242	0.2721
3243	0.27183
3244	0.27156
3245	0.27128
3246	0.271
3247	0.27073
3248	0.27047
3249	0.27022
3250	0.26997
3251	0.26974
3252	0.26952
3253	0.26932
3254	0.26914
3255	0.26899
3256	0.26887
3257	0.26879
3258	0.26872
3259	0.26867
3260	0.26863
3261	0.26859
3262	0.26854
3263	0.26848
3264	0.26839
3265	0.26828
3266	0.26816
3267	0.26802
3268	0.26787
3269	0.26772
3270	0.26758
3271	0.26745
3272	0.26733
3273	0.26722
3274	0.26712
3275	0.26702
3276	0.26692
3277	0.26681
3278	0.26669
3279	0.26654
3280	0.26634
3281	0.26609
3282	0.26579
3283	0.26541
3284	0.26495
3285	0.26442
3286	0.2638
3287	0.26309
3288	0.2623
3289	0.26144
3290	0.2605
3291	0.2595
3292	0.25844
3293	0.25733
3294	0.25616
3295	0.25495
3296	0.25368
3297	0.25235
3298	0.25096
3299	0.24951
3300	0.24799
3301	0.24641
3302	0.24475
3303	0.24303
3304	0.24124
3305	0.23939
3306	0.23748
3307	0.2355
3308	0.23345
3309	0.23134
3310	0.22917
3311	0.22694
3312	0.22464
3313	0.22226
3314	0.21981
3315	0.21728
3316	0.21468
3317	0.21198
3318	0.20919
3319	0.20631
3320	0.20332
3321	0.20022
3322	0.19703
3323	0.19372
3324	0.1903
3325	0.18677
3326	0.18314
3327	0.17942
3328	0.17561
3329	0.17172
3330	0.16773
3331	0.16364
3332	0.15946
3333	0.15519
3334	0.15085
3335	0.14642
3336	0.14191
3337	0.13734
3338	0.13269
3339	0.12799
3340	0.12321
3341	0.11834
3342	0.1134
3343	0.10837
3344	0.10325
3345	0.09803
3346	0.09272
3347	0.08699
3348	0.08099
3349	0.07484
3350	0.06867
3351	0.06258
3352	0.05668
3353	0.05103
3354	0.04571
3355	0.0408
3356	0.03634
3357	0.03238
3358	0.02894
3359	0.02606
3360	0.02372
3361	0.02193
3362	0.02065
3363	0.01984
3364	0.01945
3365	0.01941
3366	0.01966
3367	0.02009
3368	0.02061
3369	0.02109
3370	0.0214
3371	0.0214
3372	0.0214
3373	0.0214
3374	0.0214
3375	0.0214
3376	0.0214
3377	0.0214
3378	0.0214
3379	0.0214
3380	0.0214
3381	0.0214
3382	0.0214
3383	0.0214
3384	0.0214
3385	0.0214
3386	0.0214
3387	0.0214
3388	0.0214
3389	0.0214
3390	0.0214
3391	0.0214
3392	0.0214
3393	0.0214
3394	0.0214
3395	0.0214
3396	0.0214
3397	0.0214
3398	0.0214
3399	0.0214
3400	0.0214
3401	0.0214
3402	0.0214
3403	0.0214
3404	0.0214
3405	0.0214
3406	0.0214
3407	0.0214
3408	0.0214
3409	0.0214
3410	0.0214
3411	0.0214
3412	0.0214
3413	0.0214
3414	0.0214
3415	0.0214
3416	0.0214
3417	0.0214
3418	0.0214
3419	0.0214
3420	0.0214
3421	0.0214
3422	0.0214
3423	0.0214
3424	0.0214
3425	0.0214
3426	0.0214
3427	0.0214
3428	0.0214
3429	0.0214
3430	0.0214
3431	0.0214
3432	0.0214
3433	0.0214
3434	0.0214
3435	0.0214
3436	0.0214
3437	0.0214
3438	0.0214
3439	0.0214
3440	0.0214
3441	0.0214
3442	0.0214
3443	0.0214
3444	0.0214
3445	0.0214
3446	0.0214
3447	0.0214
3448	0.0214
3449	0.0214
3450	0.0214
3451	0.0214
3452	0.0214
3453	0.0214
3454	0.0214
3455	0.0214
3456	0.0214
3457	0.0214
3458	0.0214
3459	0.0214
3460	0.0214
3461	0.0214
3462	0.0214
3463	0.0214
3464	0.0214
3465	0.0214
3466	0.0214
3467	0.0214
3468	0.0214
3469	0.0214
3470	0.0214
3471	0.0214
3472	0.0214
3473	0.0214
3474	0.0214
3475	0.0214
3476	0.0214
3477	0.0214
3478	0.0214
3479	0.0214
3480	0.0214
3481	0.0214
3482	0.0214
3483	0.0214
3484	0.0214
3485	0.0214
3486	0.0214
3487	0.0214
3488	0.0214
3489	0.0214
3490	0.0214
3491	0.0214
3492	0.0214
3493	0.0214
3494	0.0214
3495	0.0214
3496	0.0214
3497	0.0214
3498	0.0214
3499	0.0214
3500	0.0214
3501	0.0214
3502	0.0214
3503	0.0214
3504	0.0214
3505	0.0214
3506	0.0214
3507	0.0214
3508	0.0214
3509	0.0214
3510	0.0214
3511	0.0214
3512	0.0214
3513	0.0214
3514	0.0214
3515	0.0214
3516	0.0214
3517	0.0214
3518	0.0214
3519	0.0214
3520	0.0214
3521	0.0214
3522	0.0214
3523	0.0214
3524	0.0214
3525	0.0214
3526	0.0214
3527	0.0214
3528	0.0214
3529	0.0214
3530	0.0214
3531	0.0214
3532	0.0214
3533	0.0214
3534	0.0214
3535	0.0214
3536	0.0214
3537	0.0214
3538	0.0214
3539	0.0214
3540	0.0214
3541	0.0214
3542	0.0214
3543	0.0214
3544	0.0214
3545	0.0214
3546	0.0214
3547	0.0214
3548	0.0214
3549	0.0214
3550	0.0214
3551	0.0214
3552	0.0214
3553	0.0214
3554	0.0214
3555	0.0214
3556	0.0214
3557	0.0214
3558	0.0214
3559	0.0214
3560	0.0214
3561	0.0214
3562	0.0214
3563	0.0214
3564	0.0214
3565	0.0214
3566	0.0214
3567	0.0214
3568	0.0214
3569	0.0214
3570	0.0214
3571	0.0214
3572	0.0214
3573	0.0214
3574	0.0214
3575	0.0214
3576	0.0214
3577	0.0214
3578	0.0214
3579	0.0214
3580	0.0214
3581	0.0214
3582	0.0214
3583	0.0214
3584	0.0214
3585	0.0214
3586	0.0214
3587	0.0214
3588	0.0214
3589	0.0214
3590	0.0214
3591	0.0214
3592	0.0214
3593	0.0214
3594	0.0214
3595	0.0214
3596	0.0214
3597	0.0214
3598	0.0214
3599	0.02139
3600	0.02129
3601	0.02115
3602	0.021
3603	0.02084
3604	0.0207
3605	0.02062
3606	0.02069
3607	0.021
3608	0.02157
3609	0.02239
3610	0.0234
3611	0.02456
3612	0.02583
3613	0.02717
3614	0.02858
3615	0.03004
3616	0.03153
3617	0.03301
3618	0.03448
3619	0.03596
3620	0.03744
3621	0.03891
3622	0.04032
3623	0.04162
3624	0.04285
3625	0.04415
3626	0.0456
3627	0.04731
3628	0.04939
3629	0.05191
3630	0.05488
3631	0.05813
3632	0.06144
3633	0.06465
3634	0.06769
3635	0.07046
3636	0.07289
3637	0.0749
3638	0.07647
3639	0.07757
3640	0.07818
3641	0.07831
3642	0.07802
3643	0.07738
3644	0.07641
3645	0.07518
3646	0.07382
3647	0.07259
3648	0.07173
3649	0.0714
3650	0.07165
3651	0.07252
3652	0.07395
3653	0.07582
3654	0.07794
3655	0.08011
3656	0.08222
3657	0.08424
3658	0.08606
3659	0.0875
3660	0.08845
3661	0.08883
3662	0.08861
3663	0.08776
3664	0.08628
3665	0.08422
3666	0.0817
3667	0.07883
3668	0.07581
3669	0.07282
3670	0.07007
3671	0.06771
3672	0.06572
3673	0.06404
3674	0.06264
3675	0.06154
3676	0.0608
3677	0.06037
3678	0.06012
3679	0.05999
3680	0.05993
3681	0.05986
3682	0.05966
3683	0.05923
3684	0.05856
3685	0.05762
3686	0.05645
3687	0.05509
3688	0.05368
3689	0.05235
3690	0.05121
3691	0.0503
3692	0.04963
3693	0.04911
3694	0.04863
3695	0.04811
3696	0.0475
3697	0.04682
3698	0.04613
3699	0.04547
3700	0.04489
3701	0.04432
3702	0.04375
3703	0.04322
3704	0.04273
3705	0.04223
3706	0.04167
3707	0.04104
3708	0.04035
3709	0.03964
3710	0.039
3711	0.03849
3712	0.03823
3713	0.03824
3714	0.03838
3715	0.03846
3716	0.03828
3717	0.03773
3718	0.03674
3719	0.03533
3720	0.03355
3721	0.03144
3722	0.02911
3723	0.02666
3724	0.0242
3725	0.02175
3726	0.01939
3727	0.01719
3728	0.0152
3729	0.01343
3730	0.0119
3731	0.01061
3732	0.00961
3733	0.00895
3734	0.00868
3735	0.00886
3736	0.00955
3737	0.01067
3738	0.01199
3739	0.01335
3740	0.01464
3741	0.01579
3742	0.0168
3743	0.0177
3744	0.01851
3745	0.01928
3746	0.02008
3747	0.02091
3748	0.02179
3749	0.02273
3750	0.02377
3751	0.02495
3752	0.02626
3753	0.02764
3754	0.029
3755	0.03031
3756	0.03156
3757	0.03281
3758	0.0341
3759	0.03545
3760	0.03684
3761	0.03815
3762	0.03927
3763	0.04015
3764	0.0408
3765	0.04124
3766	0.04151
3767	0.04165
3768	0.04168
3769	0.04161
3770	0.04148
3771	0.04133
3772	0.04116
3773	0.04098
3774	0.04081
3775	0.04064
3776	0.04044
3777	0.04019
3778	0.03989
3779	0.03964
3780	0.03953
3781	0.03955
3782	0.03962
3783	0.03968
3784	0.03971
3785	0.0397
3786	0.03962
3787	0.03943
3788	0.03907
3789	0.03852
3790	0.03775
3791	0.03674
3792	0.0355
3793	0.03411
3794	0.03261
3795	0.03105
3796	0.02944
3797	0.02786
3798	0.02644
3799	0.02525
3800	0.02431
3801	0.02365
3802	0.02333
3803	0.02334
3804	0.02358
3805	0.02392
3806	0.02427
3807	0.02459
3808	0.02489
3809	0.02511
3810	0.02513
3811	0.02489
3812	0.02435
3813	0.02353
3814	0.02246
3815	0.02122
3816	0.01993
3817	0.01871
3818	0.01761
3819	0.01664
3820	0.01584
3821	0.01532
3822	0.01513
3823	0.01517
3824	0.01531
3825	0.0155
3826	0.01566
3827	0.01575
3828	0.01571
3829	0.01551
3830	0.01519
3831	0.01482
3832	0.0144
3833	0.01391
3834	0.01331
3835	0.01264
3836	0.01191
3837	0.01114
3838	0.01039
3839	0.00973
3840	0.00921
3841	0.00888
3842	0.00869
3843	0.00861
3844	0.0086
3845	0.00862
3846	0.00856
3847	0.00835
3848	0.00799
3849	0.0075
3850	0.00691
3851	0.00629
3852	0.0057
3853	0.00524
3854	0.00496
3855	0.00485
3856	0.0048
3857	0.00474
3858	0.00469
3859	0.00464
3860	0.00454
3861	0.00438
3862	0.00423
3863	0.00414
3864	0.00416
3865	0.00425
3866	0.00436
3867	0.00438
3868	0.00429
3869	0.0041
3870	0.00393
3871	0.00386
3872	0.00388
3873	0.00393
3874	0.00401
3875	0.00416
3876	0.0044
3877	0.00469
3878	0.00495
3879	0.00515
3880	0.0053
3881	0.00549
3882	0.00575
3883	0.00603
3884	0.00631
3885	0.00659
3886	0.00687
3887	0.00712
3888	0.00724
3889	0.00718
3890	0.00688
3891	0.00639
3892	0.00577
3893	0.00514
3894	0.00453
3895	0.00391
3896	0.00323
3897	0.00249
3898	0.00175
3899	0.00109
3900	5.45571E-4
3901	1.54995E-4
3902	0
3903	1.61001E-4
3904	6.65944E-4
3905	0.00149
3906	0.00255
3907	0.00376
3908	0.005
3909	0.0062
3910	0.00731
3911	0.00825
3912	0.00896
3913	0.00945
3914	0.0097
3915	0.00974
3916	0.00959
3917	0.00929
3918	0.00884
3919	0.00827
3920	0.00761
3921	0.00693
3922	0.00628
3923	0.00568
3924	0.00516
3925	0.00481
3926	0.00464
3927	0.00466
3928	0.00479
3929	0.00501
3930	0.00529
3931	0.00561
3932	0.00595
3933	0.00631
3934	0.00666
3935	0.00698
3936	0.00722
3937	0.00736
3938	0.0074
3939	0.00735
3940	0.00725
3941	0.00711
3942	0.00696
3943	0.00681
3944	0.0067
3945	0.00661
3946	0.00652
3947	0.00644
3948	0.00642
3949	0.00651
3950	0.00667
3951	0.0069
3952	0.00718
3953	0.0075
3954	0.00787
3955	0.00826
3956	0.00864
3957	0.009
3958	0.00929
3959	0.00952
3960	0.00968
3961	0.00976
3962	0.00979
3963	0.00979
3964	0.00975
3965	0.00968
3966	0.00959
3967	0.00949
3968	0.00937
3969	0.00924
3970	0.00912
3971	0.00903
3972	0.00899
3973	0.00901
3974	0.00908
3975	0.00918
3976	0.00929
3977	0.00941
3978	0.00952
3979	0.00962
3980	0.0097
3981	0.00977
3982	0.00983
3983	0.00988
3984	0.00992
3985	0.00996
3986	0.00999
3987	0.01
3988	0.00999
3989	0.01
3990	0.01
3991	0.00999
3992	0.00998
3993	0.00995
3994	0.00992
3995	0.00988
3996	0.00984
3997	0.00978
3998	0.00972
3999	0.00965
4000	0.00957