4000.18193	0.00801
3999.21756	0.00837
3998.2532	0.00871
3997.28884	0.00905
3996.32447	0.00937
3995.36011	0.00967
3994.39574	0.00996
3993.43138	0.01024
3992.46702	0.01051
3991.50265	0.01076
3990.53829	0.011
3989.57392	0.01122
3988.60956	0.01144
3987.6452	0.01144
3986.68083	0.01145
3985.71647	0.01152
3984.7521	0.01162
3983.78774	0.01183
3982.82338	0.01218
3981.85901	0.01255
3980.89465	0.01287
3979.93028	0.01324
3978.96592	0.01376
3978.00156	0.01435
3977.03719	0.01486
3976.07283	0.01521
3975.10846	0.0154
3974.1441	0.01546
3973.17974	0.01553
3972.21537	0.01574
3971.25101	0.01603
3970.28664	0.01634
3969.32228	0.01663
3968.35792	0.01689
3967.39355	0.01715
3966.42919	0.01735
3965.46482	0.01746
3964.50046	0.0176
3963.5361	0.01781
3962.57173	0.01795
3961.60737	0.01802
3960.643	0.01822
3959.67864	0.01864
3958.71428	0.01931
3957.74991	0.02023
3956.78555	0.02117
3955.82118	0.02183
3954.85682	0.02219
3953.89246	0.02263
3952.92809	0.02338
3951.96373	0.02425
3950.99936	0.0251
3950.035	0.02597
3949.07064	0.02683
3948.10627	0.02751
3947.14191	0.02789
3946.17754	0.02796
3945.21318	0.02776
3944.24882	0.02736
3943.28445	0.02697
3942.32009	0.02675
3941.35572	0.02676
3940.39136	0.02699
3939.427	0.02735
3938.46263	0.02775
3937.49827	0.02804
3936.5339	0.02821
3935.56954	0.02867
3934.60518	0.02953
3933.64081	0.03038
3932.67645	0.03099
3931.71208	0.03162
3930.74772	0.03262
3929.78336	0.03362
3928.81899	0.03422
3927.85463	0.03477
3926.89026	0.03556
3925.9259	0.03636
3924.96154	0.03688
3923.99717	0.037
3923.03281	0.03679
3922.06844	0.03641
3921.10408	0.03607
3920.13972	0.03588
3919.17535	0.03559
3918.21099	0.0349
3917.24662	0.0338
3916.28226	0.03255
3915.3179	0.03146
3914.35353	0.0308
3913.38917	0.03104
3912.4248	0.03236
3911.46044	0.03409
3910.49608	0.0358
3909.53171	0.03777
3908.56735	0.04014
3907.60298	0.04263
3906.63862	0.0448
3905.67426	0.04668
3904.70989	0.04851
3903.74553	0.05001
3902.78116	0.05121
3901.8168	0.05252
3900.85244	0.05375
3899.88807	0.05452
3898.92371	0.0545
3897.95934	0.05351
3896.99498	0.05185
3896.03062	0.05008
3895.06625	0.04845
3894.10189	0.04714
3893.13752	0.04619
3892.17316	0.04569
3891.2088	0.04614
3890.24443	0.04744
3889.28007	0.04899
3888.3157	0.05034
3887.35134	0.05146
3886.38698	0.05216
3885.42261	0.05244
3884.45825	0.05257
3883.49388	0.05236
3882.52952	0.05169
3881.56516	0.051
3880.60079	0.05154
3879.63643	0.05338
3878.67206	0.05555
3877.7077	0.05689
3876.74333	0.05717
3875.77897	0.0572
3874.81461	0.05765
3873.85024	0.05879
3872.88588	0.06065
3871.92151	0.06263
3870.95715	0.0642
3869.99279	0.06515
3869.02842	0.06578
3868.06406	0.06654
3867.09969	0.06692
3866.13533	0.06619
3865.17097	0.06414
3864.2066	0.06267
3863.24224	0.06279
3862.27787	0.0642
3861.31351	0.06619
3860.34915	0.06806
3859.38478	0.06977
3858.42042	0.0717
3857.45605	0.07385
3856.49169	0.075
3855.52733	0.0749
3854.56296	0.07426
3853.5986	0.07363
3852.63423	0.07326
3851.66987	0.07293
3850.70551	0.07275
3849.74114	0.07285
3848.77678	0.07311
3847.81241	0.0731
3846.84805	0.0728
3845.88369	0.07255
3844.91932	0.07246
3843.95496	0.07227
3842.99059	0.07203
3842.02623	0.07267
3841.06187	0.07514
3840.0975	0.07793
3839.13314	0.07976
3838.16877	0.08088
3837.20441	0.08161
3836.24005	0.08173
3835.27568	0.08101
3834.31132	0.07939
3833.34695	0.07684
3832.38259	0.07434
3831.41823	0.07315
3830.45386	0.07271
3829.4895	0.07253
3828.52513	0.0727
3827.56077	0.07355
3826.59641	0.07543
3825.63204	0.07803
3824.66768	0.08068
3823.70331	0.08307
3822.73895	0.08502
3821.77459	0.08627
3820.81022	0.08677
3819.84586	0.08664
3818.88149	0.08589
3817.91713	0.08485
3816.95277	0.08381
3815.9884	0.08268
3815.02404	0.08133
3814.05967	0.07947
3813.09531	0.07736
3812.13095	0.07602
3811.16658	0.07552
3810.20222	0.07572
3809.23785	0.077
3808.27349	0.07929
3807.30913	0.08175
3806.34476	0.08413
3805.3804	0.08638
3804.41603	0.08874
3803.45167	0.09119
3802.48731	0.09303
3801.52294	0.09397
3800.55858	0.09406
3799.59421	0.09339
3798.62985	0.09199
3797.66549	0.08988
3796.70112	0.0874
3795.73676	0.08529
3794.77239	0.08397
3793.80803	0.08279
3792.84367	0.08111
3791.8793	0.079
3790.91494	0.07721
3789.95057	0.07686
3788.98621	0.07804
3788.02185	0.07949
3787.05748	0.0807
3786.09312	0.08181
3785.12875	0.08309
3784.16439	0.08451
3783.20003	0.08555
3782.23566	0.08598
3781.2713	0.08621
3780.30693	0.08676
3779.34257	0.08753
3778.37821	0.08818
3777.41384	0.08864
3776.44948	0.08921
3775.48511	0.08998
3774.52075	0.09091
3773.55639	0.092
3772.59202	0.09307
3771.62766	0.09368
3770.66329	0.09406
3769.69893	0.09473
3768.73457	0.09578
3767.7702	0.09737
3766.80584	0.09945
3765.84147	0.10135
3764.87711	0.10258
3763.91275	0.10285
3762.94838	0.10286
3761.98402	0.10352
3761.01965	0.10509
3760.05529	0.10747
3759.09093	0.11051
3758.12656	0.11418
3757.1622	0.11808
3756.19783	0.1216
3755.23347	0.12515
3754.26911	0.12887
3753.30474	0.13262
3752.34038	0.13596
3751.37601	0.13856
3750.41165	0.1402
3749.44729	0.14082
3748.48292	0.14067
3747.51856	0.14024
3746.55419	0.14038
3745.58983	0.14129
3744.62547	0.14239
3743.6611	0.1433
3742.69674	0.14395
3741.73237	0.14434
3740.76801	0.14462
3739.80365	0.14527
3738.83928	0.14621
3737.87492	0.14707
3736.91055	0.14787
3735.94619	0.14849
3734.98182	0.14876
3734.01746	0.1488
3733.0531	0.1492
3732.08873	0.15
3731.12437	0.15038
3730.16	0.15022
3729.19564	0.14967
3728.23128	0.14856
3727.26691	0.1467
3726.30255	0.14428
3725.33818	0.14171
3724.37382	0.13939
3723.40946	0.13814
3722.44509	0.13832
3721.48073	0.13935
3720.51636	0.1412
3719.552	0.14354
3718.58764	0.14571
3717.62327	0.14731
3716.65891	0.14835
3715.69454	0.14909
3714.73018	0.14982
3713.76582	0.15064
3712.80145	0.15163
3711.83709	0.15288
3710.87272	0.15445
3709.90836	0.15616
3708.944	0.15741
3707.97963	0.15814
3707.01527	0.1586
3706.0509	0.15868
3705.08654	0.15811
3704.12218	0.15685
3703.15781	0.15492
3702.19345	0.1528
3701.22908	0.15141
3700.26472	0.15157
3699.30036	0.15386
3698.33599	0.15756
3697.37163	0.16176
3696.40726	0.16574
3695.4429	0.16922
3694.47854	0.17224
3693.51417	0.17474
3692.54981	0.1766
3691.58544	0.17784
3690.62108	0.17894
3689.65672	0.1803
3688.69235	0.18158
3687.72799	0.18203
3686.76362	0.18221
3685.79926	0.18376
3684.8349	0.18623
3683.87053	0.18883
3682.90617	0.1908
3681.9418	0.19191
3680.97744	0.19327
3680.01308	0.19584
3679.04871	0.1998
3678.08435	0.20481
3677.11998	0.21014
3676.15562	0.21536
3675.19126	0.21997
3674.22689	0.22363
3673.26253	0.22629
3672.29816	0.22804
3671.3338	0.22897
3670.36944	0.22906
3669.40507	0.22835
3668.44071	0.22695
3667.47634	0.22541
3666.51198	0.22433
3665.54762	0.22368
3664.58325	0.22341
3663.61889	0.22407
3662.65452	0.22533
3661.69016	0.2258
3660.7258	0.22659
3659.76143	0.22847
3658.79707	0.23228
3657.8327	0.23885
3656.86834	0.24703
3655.90398	0.25517
3654.93961	0.26246
3653.97525	0.26877
3653.01088	0.27437
3652.04652	0.27934
3651.08216	0.28355
3650.11779	0.2869
3649.15343	0.28952
3648.18906	0.29153
3647.2247	0.29286
3646.26034	0.29332
3645.29597	0.29312
3644.33161	0.29295
3643.36724	0.29289
3642.40288	0.2922
3641.43852	0.29032
3640.47415	0.28759
3639.50979	0.28603
3638.54542	0.28687
3637.58106	0.29038
3636.6167	0.29545
3635.65233	0.30131
3634.68797	0.30729
3633.7236	0.31256
3632.75924	0.3168
3631.79488	0.32013
3630.83051	0.323
3629.86615	0.32609
3628.90178	0.3296
3627.93742	0.33314
3626.97306	0.33634
3626.00869	0.33916
3625.04433	0.34165
3624.07996	0.3439
3623.1156	0.34609
3622.15124	0.34832
3621.18687	0.35033
3620.22251	0.35171
3619.25814	0.35276
3618.29378	0.35415
3617.32942	0.35668
3616.36505	0.3607
3615.40069	0.36472
3614.43632	0.36795
3613.47196	0.37018
3612.5076	0.37149
3611.54323	0.37216
3610.57887	0.37255
3609.6145	0.37293
3608.65014	0.37343
3607.68578	0.37418
3606.72141	0.37544
3605.75705	0.3771
3604.79268	0.3788
3603.82832	0.3805
3602.86396	0.38239
3601.89959	0.3845
3600.93523	0.3865
3599.97086	0.38793
3599.0065	0.38891
3598.04214	0.3903
3597.07777	0.39269
3596.11341	0.39615
3595.14904	0.40015
3594.18468	0.404
3593.22031	0.40728
3592.25595	0.40983
3591.29159	0.41182
3590.32722	0.41353
3589.36286	0.41516
3588.39849	0.41681
3587.43413	0.41849
3586.46977	0.42006
3585.5054	0.42139
3584.54104	0.42256
3583.57667	0.42374
3582.61231	0.42496
3581.64795	0.42607
3580.68358	0.42683
3579.71922	0.42682
3578.75485	0.42603
3577.79049	0.42552
3576.82613	0.42642
3575.86176	0.42927
3574.8974	0.43373
3573.93303	0.43872
3572.96867	0.44349
3572.00431	0.44782
3571.03994	0.45178
3570.07558	0.45547
3569.11121	0.45882
3568.14685	0.46182
3567.18249	0.46449
3566.21812	0.46669
3565.25376	0.46833
3564.28939	0.4695
3563.32503	0.47043
3562.36067	0.47132
3561.3963	0.4721
3560.43194	0.47246
3559.46757	0.47218
3558.50321	0.47138
3557.53885	0.47036
3556.57448	0.46965
3555.61012	0.47012
3554.64575	0.47241
3553.68139	0.47591
3552.71703	0.47953
3551.75266	0.48277
3550.7883	0.4856
3549.82393	0.48809
3548.85957	0.49024
3547.89521	0.49218
3546.93084	0.49406
3545.96648	0.49588
3545.00211	0.49749
3544.03775	0.49876
3543.07339	0.49963
3542.10902	0.50024
3541.14466	0.50079
3540.18029	0.50147
3539.21593	0.5023
3538.25157	0.50319
3537.2872	0.50405
3536.32284	0.50493
3535.35847	0.50601
3534.39411	0.50767
3533.42975	0.51017
3532.46538	0.51332
3531.50102	0.51663
3530.53665	0.51967
3529.57229	0.52231
3528.60793	0.52461
3527.64356	0.52663
3526.6792	0.52838
3525.71483	0.52989
3524.75047	0.53131
3523.78611	0.53275
3522.82174	0.53401
3521.85738	0.53487
3520.89301	0.53537
3519.92865	0.53586
3518.96429	0.53656
3517.99992	0.53739
3517.03556	0.53823
3516.07119	0.53913
3515.10683	0.54013
3514.14247	0.54132
3513.1781	0.54292
3512.21374	0.54508
3511.24937	0.54776
3510.28501	0.55071
3509.32065	0.55355
3508.35628	0.55606
3507.39192	0.5583
3506.42755	0.56051
3505.46319	0.56272
3504.49883	0.56481
3503.53446	0.56668
3502.5701	0.56832
3501.60573	0.5698
3500.64137	0.57111
3499.67701	0.57226
3498.71264	0.57339
3497.74828	0.57472
3496.78391	0.57632
3495.81955	0.57793
3494.85519	0.57924
3493.89082	0.58023
3492.92646	0.58118
3491.96209	0.58249
3490.99773	0.58439
3490.03337	0.58679
3489.069	0.58928
3488.10464	0.59156
3487.14027	0.59357
3486.17591	0.59539
3485.21155	0.59715
3484.24718	0.59898
3483.28282	0.60087
3482.31845	0.6027
3481.35409	0.60439
3480.38973	0.60592
3479.42536	0.6073
3478.461	0.60854
3477.49663	0.60972
3476.53227	0.61093
3475.56791	0.61223
3474.60354	0.61353
3473.63918	0.61474
3472.67481	0.61589
3471.71045	0.61707
3470.74609	0.61834
3469.78172	0.61981
3468.81736	0.62147
3467.85299	0.62318
3466.88863	0.62481
3465.92427	0.62631
3464.9599	0.62772
3463.99554	0.62906
3463.03117	0.63038
3462.06681	0.63171
3461.10245	0.633
3460.13808	0.63414
3459.17372	0.63507
3458.20935	0.63588
3457.24499	0.63684
3456.28062	0.63802
3455.31626	0.63932
3454.3519	0.64061
3453.38753	0.64186
3452.42317	0.64311
3451.4588	0.64436
3450.49444	0.64563
3449.53008	0.6469
3448.56571	0.64813
3447.60135	0.64924
3446.63698	0.65021
3445.67262	0.65106
3444.70826	0.6518
3443.74389	0.65244
3442.77953	0.65298
3441.81516	0.65342
3440.8508	0.65377
3439.88644	0.654
3438.92207	0.65413
3437.95771	0.65416
3436.99334	0.65415
3436.02898	0.65415
3435.06462	0.65431
3434.10025	0.65471
3433.13589	0.65518
3432.17152	0.65554
3431.20716	0.6559
3430.2428	0.65648
3429.27843	0.65727
3428.31407	0.65808
3427.3497	0.65879
3426.38534	0.65941
3425.42098	0.65994
3424.45661	0.6604
3423.49225	0.6608
3422.52788	0.66114
3421.56352	0.66141
3420.59916	0.6616
3419.63479	0.66174
3418.67043	0.66185
3417.70606	0.6619
3416.7417	0.66188
3415.77734	0.66177
3414.81297	0.66161
3413.84861	0.66143
3412.88424	0.66122
3411.91988	0.66097
3410.95552	0.66075
3409.99115	0.66058
3409.02679	0.66049
3408.06242	0.66058
3407.09806	0.66087
3406.1337	0.66121
3405.16933	0.66146
3404.20497	0.66163
3403.2406	0.66182
3402.27624	0.66213
3401.31188	0.66252
3400.34751	0.66291
3399.38315	0.66325
3398.41878	0.66351
3397.45442	0.66367
3396.49006	0.66378
3395.52569	0.66385
3394.56133	0.66393
3393.59696	0.66399
3392.6326	0.66401
3391.66824	0.66398
3390.70387	0.66394
3389.73951	0.66388
3388.77514	0.66377
3387.81078	0.66362
3386.84642	0.66342
3385.88205	0.66321
3384.91769	0.66302
3383.95332	0.66286
3382.98896	0.66263
3382.0246	0.66229
3381.06023	0.66194
3380.09587	0.66165
3379.1315	0.66139
3378.16714	0.66104
3377.20278	0.66061
3376.23841	0.66013
3375.27405	0.65964
3374.30968	0.65911
3373.34532	0.65857
3372.38096	0.65804
3371.41659	0.65756
3370.45223	0.65707
3369.48786	0.65653
3368.5235	0.65595
3367.55914	0.65533
3366.59477	0.65471
3365.63041	0.65408
3364.66604	0.65344
3363.70168	0.65277
3362.73732	0.65203
3361.77295	0.65124
3360.80859	0.65039
3359.84422	0.6495
3358.87986	0.64855
3357.9155	0.64757
3356.95113	0.64658
3355.98677	0.6456
3355.0224	0.64464
3354.05804	0.64371
3353.09368	0.64278
3352.12931	0.64186
3351.16495	0.64094
3350.20058	0.64001
3349.23622	0.63908
3348.27186	0.63817
3347.30749	0.63729
3346.34313	0.63644
3345.37876	0.63563
3344.4144	0.63486
3343.45004	0.63412
3342.48567	0.63338
3341.52131	0.6326
3340.55694	0.63178
3339.59258	0.63091
3338.62822	0.63002
3337.66385	0.62913
3336.69949	0.62824
3335.73512	0.62734
3334.77076	0.62642
3333.8064	0.6255
3332.84203	0.62458
3331.87767	0.62363
3330.9133	0.62261
3329.94894	0.62157
3328.98458	0.62053
3328.02021	0.61947
3327.05585	0.6184
3326.09148	0.61731
3325.12712	0.61623
3324.16276	0.61518
3323.19839	0.61418
3322.23403	0.61318
3321.26966	0.61216
3320.3053	0.61114
3319.34094	0.61013
3318.37657	0.60919
3317.41221	0.60828
3316.44784	0.60738
3315.48348	0.6065
3314.51911	0.60562
3313.55475	0.60474
3312.59039	0.60385
3311.62602	0.60295
3310.66166	0.60205
3309.69729	0.60113
3308.73293	0.60018
3307.76857	0.59923
3306.8042	0.59831
3305.83984	0.59739
3304.87547	0.59644
3303.91111	0.59545
3302.94675	0.59446
3301.98238	0.5935
3301.01802	0.59259
3300.05365	0.59174
3299.08929	0.59092
3298.12493	0.59014
3297.16056	0.58941
3296.1962	0.58873
3295.23183	0.58808
3294.26747	0.58743
3293.30311	0.5868
3292.33874	0.58616
3291.37438	0.58552
3290.41001	0.5849
3289.44565	0.58427
3288.48129	0.58364
3287.51692	0.58303
3286.55256	0.58246
3285.58819	0.58195
3284.62383	0.5815
3283.65947	0.58111
3282.6951	0.58076
3281.73074	0.58043
3280.76637	0.58014
3279.80201	0.57991
3278.83765	0.57972
3277.87328	0.57953
3276.90892	0.57933
3275.94455	0.57914
3274.98019	0.57897
3274.01583	0.57879
3273.05146	0.5786
3272.0871	0.5784
3271.12273	0.57822
3270.15837	0.57802
3269.19401	0.57777
3268.22964	0.57749
3267.26528	0.57718
3266.30091	0.57683
3265.33655	0.57645
3264.37219	0.57611
3263.40782	0.57581
3262.44346	0.57551
3261.47909	0.57521
3260.51473	0.5749
3259.55037	0.57456
3258.586	0.57415
3257.62164	0.57368
3256.65727	0.5732
3255.69291	0.57276
3254.72855	0.57241
3253.76418	0.57213
3252.79982	0.5719
3251.83545	0.57171
3250.87109	0.57157
3249.90673	0.57147
3248.94236	0.57142
3247.978	0.57142
3247.01363	0.57148
3246.04927	0.57159
3245.08491	0.57173
3244.12054	0.57188
3243.15618	0.57205
3242.19181	0.57225
3241.22745	0.57246
3240.26309	0.57264
3239.29872	0.57276
3238.33436	0.57282
3237.36999	0.57284
3236.40563	0.57279
3235.44127	0.57265
3234.4769	0.57242
3233.51254	0.57214
3232.54817	0.57183
3231.58381	0.57145
3230.61945	0.57096
3229.65508	0.57038
3228.69072	0.56973
3227.72635	0.56902
3226.76199	0.5682
3225.79763	0.56727
3224.83326	0.56627
3223.8689	0.56526
3222.90453	0.56421
3221.94017	0.56305
3220.97581	0.56181
3220.01144	0.56055
3219.04708	0.55924
3218.08271	0.55788
3217.11835	0.55646
3216.15399	0.55497
3215.18962	0.55345
3214.22526	0.55187
3213.26089	0.55022
3212.29653	0.54851
3211.33217	0.54673
3210.3678	0.54489
3209.40344	0.54303
3208.43907	0.5412
3207.47471	0.53944
3206.51035	0.53773
3205.54598	0.53601
3204.58162	0.53426
3203.61725	0.5325
3202.65289	0.53077
3201.68853	0.52909
3200.72416	0.52744
3199.7598	0.52579
3198.79543	0.52413
3197.83107	0.52248
3196.86671	0.52085
3195.90234	0.51922
3194.93798	0.5176
3193.97361	0.51599
3193.00925	0.51437
3192.04489	0.51274
3191.08052	0.51106
3190.11616	0.50934
3189.15179	0.50761
3188.18743	0.50593
3187.22307	0.50431
3186.2587	0.50275
3185.29434	0.50125
3184.32997	0.49977
3183.36561	0.49828
3182.40125	0.49677
3181.43688	0.49527
3180.47252	0.4938
3179.50815	0.49237
3178.54379	0.49097
3177.57943	0.4896
3176.61506	0.48827
3175.6507	0.48699
3174.68633	0.48574
3173.72197	0.48454
3172.7576	0.48336
3171.79324	0.4822
3170.82888	0.48102
3169.86451	0.47977
3168.90015	0.47843
3167.93578	0.47698
3166.97142	0.47543
3166.00706	0.47378
3165.04269	0.47201
3164.07833	0.47003
3163.11396	0.46781
3162.1496	0.46537
3161.18524	0.46274
3160.22087	0.45992
3159.25651	0.45691
3158.29214	0.45373
3157.32778	0.45038
3156.36342	0.4469
3155.39905	0.44332
3154.43469	0.43965
3153.47032	0.43596
3152.50596	0.43228
3151.5416	0.42863
3150.57723	0.42503
3149.61287	0.42151
3148.6485	0.41809
3147.68414	0.41478
3146.71978	0.41157
3145.75541	0.40844
3144.79105	0.4054
3143.82668	0.40251
3142.86232	0.39977
3141.89796	0.39715
3140.93359	0.39465
3139.96923	0.39224
3139.00486	0.3899
3138.0405	0.38765
3137.07614	0.38549
3136.11177	0.38339
3135.14741	0.38132
3134.18304	0.37929
3133.21868	0.37734
3132.25432	0.37549
3131.28995	0.37371
3130.32559	0.37199
3129.36122	0.37035
3128.39686	0.36878
3127.4325	0.36727
3126.46813	0.36582
3125.50377	0.36444
3124.5394	0.3631
3123.57504	0.36176
3122.61068	0.3604
3121.64631	0.35907
3120.68195	0.35776
3119.71758	0.35645
3118.75322	0.35511
3117.78886	0.35374
3116.82449	0.35234
3115.86013	0.3509
3114.89576	0.34944
3113.9314	0.34795
3112.96704	0.34643
3112.00267	0.34492
3111.03831	0.34349
3110.07394	0.34219
3109.10958	0.34093
3108.14522	0.33967
3107.18085	0.33847
3106.21649	0.33738
3105.25212	0.33638
3104.28776	0.33548
3103.3234	0.33467
3102.35903	0.3339
3101.39467	0.33315
3100.4303	0.33242
3099.46594	0.33173
3098.50158	0.3311
3097.53721	0.33052
3096.57285	0.32998
3095.60848	0.32949
3094.64412	0.32903
3093.67976	0.3286
3092.71539	0.3282
3091.75103	0.32785
3090.78666	0.32758
3089.8223	0.32746
3088.85794	0.3275
3087.89357	0.32767
3086.92921	0.32789
3085.96484	0.32815
3085.00048	0.32847
3084.03612	0.32889
3083.07175	0.32942
3082.10739	0.33002
3081.14302	0.33068
3080.17866	0.33139
3079.2143	0.33216
3078.24993	0.33301
3077.28557	0.33395
3076.3212	0.33495
3075.35684	0.33603
3074.39248	0.33717
3073.42811	0.33833
3072.46375	0.33947
3071.49938	0.3406
3070.53502	0.34172
3069.57066	0.34283
3068.60629	0.34389
3067.64193	0.3449
3066.67756	0.34587
3065.7132	0.34674
3064.74884	0.34743
3063.78447	0.3479
3062.82011	0.34819
3061.85574	0.34834
3060.89138	0.34841
3059.92702	0.34844
3058.96265	0.34849
3057.99829	0.34853
3057.03392	0.34857
3056.06956	0.34861
3055.1052	0.34864
3054.14083	0.34863
3053.17647	0.3485
3052.2121	0.34823
3051.24774	0.34778
3050.28338	0.34712
3049.31901	0.34626
3048.35465	0.34521
3047.39028	0.344
3046.42592	0.34266
3045.46156	0.34123
3044.49719	0.33973
3043.53283	0.33817
3042.56846	0.33655
3041.6041	0.33492
3040.63974	0.33333
3039.67537	0.33178
3038.71101	0.33028
3037.74664	0.32885
3036.78228	0.32754
3035.81792	0.32633
3034.85355	0.32518
3033.88919	0.32404
3032.92482	0.32291
3031.96046	0.32174
3030.99609	0.32048
3030.03173	0.31913
3029.06737	0.31769
3028.103	0.31616
3027.13864	0.31458
3026.17427	0.313
3025.20991	0.31144
3024.24555	0.30997
3023.28118	0.30866
3022.31682	0.30756
3021.35245	0.30668
3020.38809	0.30601
3019.42373	0.30553
3018.45936	0.30516
3017.495	0.30479
3016.53063	0.30436
3015.56627	0.30389
3014.60191	0.30343
3013.63754	0.30298
3012.67318	0.30252
3011.70881	0.30201
3010.74445	0.30146
3009.78009	0.30089
3008.81572	0.30033
3007.85136	0.2998
3006.88699	0.29933
3005.92263	0.29893
3004.95827	0.29866
3003.9939	0.29859
3003.02954	0.29879
3002.06517	0.29928
3001.10081	0.30011
3000.13645	0.30133
2999.17208	0.30297
2998.20772	0.30504
2997.24335	0.30752
2996.27899	0.31037
2995.31463	0.31355
2994.35026	0.31707
2993.3859	0.32092
2992.42153	0.3251
2991.45717	0.32957
2990.49281	0.33428
2989.52844	0.33916
2988.56408	0.34419
2987.59971	0.34933
2986.63535	0.35455
2985.67099	0.35986
2984.70662	0.36524
2983.74226	0.37064
2982.77789	0.37603
2981.81353	0.38131
2980.84917	0.38639
2979.8848	0.39117
2978.92044	0.39559
2977.95607	0.39958
2976.99171	0.40313
2976.02735	0.40625
2975.06298	0.40896
2974.09862	0.41124
2973.13425	0.41311
2972.16989	0.41458
2971.20553	0.41569
2970.24116	0.41647
2969.2768	0.41697
2968.31243	0.4172
2967.34807	0.4172
2966.38371	0.41697
2965.41934	0.41658
2964.45498	0.41605
2963.49061	0.41542
2962.52625	0.41475
2961.56189	0.41403
2960.59752	0.41326
2959.63316	0.41246
2958.66879	0.41165
2957.70443	0.41087
2956.74007	0.41021
2955.7757	0.40977
2954.81134	0.40963
2953.84697	0.40988
2952.88261	0.41063
2951.91825	0.41195
2950.95388	0.41389
2949.98952	0.4165
2949.02515	0.41976
2948.06079	0.42367
2947.09643	0.42817
2946.13206	0.4332
2945.1677	0.43866
2944.20333	0.44443
2943.23897	0.45036
2942.27461	0.45632
2941.31024	0.46217
2940.34588	0.46779
2939.38151	0.47308
2938.41715	0.47794
2937.45279	0.48233
2936.48842	0.48623
2935.52406	0.48965
2934.55969	0.49258
2933.59533	0.49501
2932.63097	0.49695
2931.6666	0.4984
2930.70224	0.49935
2929.73787	0.49982
2928.77351	0.49982
2927.80915	0.49938
2926.84478	0.49852
2925.88042	0.49725
2924.91605	0.49558
2923.95169	0.49351
2922.98733	0.49103
2922.02296	0.48816
2921.0586	0.48491
2920.09423	0.48132
2919.12987	0.47743
2918.16551	0.47329
2917.20114	0.46896
2916.23678	0.46449
2915.27241	0.45991
2914.30805	0.45527
2913.34369	0.45058
2912.37932	0.44587
2911.41496	0.44114
2910.45059	0.43639
2909.48623	0.43161
2908.52187	0.42679
2907.5575	0.42196
2906.59314	0.41714
2905.62877	0.41234
2904.66441	0.40756
2903.70005	0.4028
2902.73568	0.39808
2901.77132	0.39339
2900.80695	0.38874
2899.84259	0.38415
2898.87823	0.37965
2897.91386	0.3753
2896.9495	0.37113
2895.98513	0.36718
2895.02077	0.36347
2894.05641	0.36001
2893.09204	0.3568
2892.12768	0.35384
2891.16331	0.35112
2890.19895	0.34862
2889.23458	0.34635
2888.27022	0.34433
2887.30586	0.34256
2886.34149	0.34105
2885.37713	0.3398
2884.41276	0.3388
2883.4484	0.33804
2882.48404	0.33746
2881.51967	0.337
2880.55531	0.3366
2879.59094	0.33618
2878.62658	0.33569
2877.66222	0.33506
2876.69785	0.33425
2875.73349	0.33319
2874.76912	0.33186
2873.80476	0.33023
2872.8404	0.3283
2871.87603	0.32608
2870.91167	0.32358
2869.9473	0.32085
2868.98294	0.31795
2868.01858	0.31493
2867.05421	0.31187
2866.08985	0.30882
2865.12548	0.30588
2864.16112	0.30309
2863.19676	0.30052
2862.23239	0.29819
2861.26803	0.29608
2860.30366	0.29417
2859.3393	0.29239
2858.37494	0.29067
2857.41057	0.28889
2856.44621	0.28696
2855.48184	0.28481
2854.51748	0.28239
2853.55312	0.27967
2852.58875	0.27662
2851.62439	0.27325
2850.66002	0.26958
2849.69566	0.26568
2848.7313	0.2616
2847.76693	0.2574
2846.80257	0.25314
2845.8382	0.24886
2844.87384	0.24466
2843.90948	0.24058
2842.94511	0.23668
2841.98075	0.233
2841.01638	0.2296
2840.05202	0.22649
2839.08766	0.22369
2838.12329	0.22116
2837.15893	0.21888
2836.19456	0.21679
2835.2302	0.21486
2834.26584	0.21302
2833.30147	0.21124
2832.33711	0.20951
2831.37274	0.20783
2830.40838	0.20619
2829.44402	0.20459
2828.47965	0.20302
2827.51529	0.20148
2826.55092	0.19998
2825.58656	0.19852
2824.6222	0.19711
2823.65783	0.19573
2822.69347	0.19439
2821.7291	0.1931
2820.76474	0.19187
2819.80038	0.19068
2818.83601	0.18954
2817.87165	0.18843
2816.90728	0.18735
2815.94292	0.1863
2814.97856	0.18527
2814.01419	0.18424
2813.04983	0.18321
2812.08546	0.18219
2811.1211	0.18116
2810.15674	0.18013
2809.19237	0.1791
2808.22801	0.17807
2807.26364	0.17702
2806.29928	0.17596
2805.33492	0.17488
2804.37055	0.17379
2803.40619	0.17268
2802.44182	0.17156
2801.47746	0.17044
2800.5131	0.16932
2799.54873	0.16819
2798.58437	0.16704
2797.62	0.16588
2796.65564	0.16471
2795.69128	0.1635
2794.72691	0.16225
2793.76255	0.16098
2792.79818	0.15967
2791.83382	0.15832
2790.86946	0.15694
2789.90509	0.15551
2788.94073	0.15406
2787.97636	0.15257
2787.012	0.15108
2786.04764	0.14957
2785.08327	0.14805
2784.11891	0.14653
2783.15454	0.145
2782.19018	0.14347
2781.22582	0.14194
2780.26145	0.14042
2779.29709	0.13891
2778.33272	0.13741
2777.36836	0.13594
2776.404	0.13449
2775.43963	0.13307
2774.47527	0.13167
2773.5109	0.13032
2772.54654	0.129
2771.58218	0.12773
2770.61781	0.12651
2769.65345	0.12533
2768.68908	0.12419
2767.72472	0.12311
2766.76036	0.1221
2765.79599	0.12116
2764.83163	0.12028
2763.86726	0.11948
2762.9029	0.11874
2761.93854	0.11808
2760.97417	0.11747
2760.00981	0.11692
2759.04544	0.11642
2758.08108	0.116
2757.11672	0.11565
2756.15235	0.11534
2755.18799	0.11506
2754.22362	0.11483
2753.25926	0.11463
2752.2949	0.11446
2751.33053	0.11429
2750.36617	0.11411
2749.4018	0.11392
2748.43744	0.11371
2747.47307	0.11349
2746.50871	0.11323
2745.54435	0.11295
2744.57998	0.11263
2743.61562	0.11226
2742.65125	0.11184
2741.68689	0.11137
2740.72253	0.11084
2739.75816	0.11027
2738.7938	0.10967
2737.82943	0.10903
2736.86507	0.10839
2735.90071	0.10775
2734.93634	0.10712
2733.97198	0.10649
2733.00761	0.10587
2732.04325	0.10526
2731.07889	0.10468
2730.11452	0.10412
2729.15016	0.1036
2728.18579	0.1031
2727.22143	0.10264
2726.25707	0.10221
2725.2927	0.10183
2724.32834	0.10148
2723.36397	0.10118
2722.39961	0.10089
2721.43525	0.10061
2720.47088	0.10036
2719.50652	0.10013
2718.54215	0.0999
2717.57779	0.09968
2716.61343	0.09944
2715.64906	0.09921
2714.6847	0.09898
2713.72033	0.09875
2712.75597	0.09849
2711.79161	0.09821
2710.82724	0.09791
2709.86288	0.0976
2708.89851	0.09729
2707.93415	0.09696
2706.96979	0.09663
2706.00542	0.0963
2705.04106	0.09598
2704.07669	0.09564
2703.11233	0.09529
2702.14797	0.09494
2701.1836	0.0946
2700.21924	0.09425
2699.25487	0.09389
2698.29051	0.09352
2697.32615	0.09313
2696.36178	0.09274
2695.39742	0.09231
2694.43305	0.09186
2693.46869	0.09136
2692.50433	0.09083
2691.53996	0.09026
2690.5756	0.08965
2689.61123	0.08901
2688.64687	0.08834
2687.68251	0.08766
2686.71814	0.08696
2685.75378	0.08625
2684.78941	0.08552
2683.82505	0.08478
2682.86069	0.08403
2681.89632	0.08329
2680.93196	0.08255
2679.96759	0.08182
2679.00323	0.0811
2678.03887	0.08038
2677.0745	0.07968
2676.11014	0.079
2675.14577	0.07835
2674.18141	0.0777
2673.21705	0.07709
2672.25268	0.0765
2671.28832	0.07595
2670.32395	0.07543
2669.35959	0.07495
2668.39523	0.07453
2667.43086	0.07418
2666.4665	0.07389
2665.50213	0.07368
2664.53777	0.07355
2663.57341	0.0735
2662.60904	0.07354
2661.64468	0.07367
2660.68031	0.07389
2659.71595	0.07419
2658.75159	0.07456
2657.78722	0.075
2656.82286	0.0755
2655.85849	0.07604
2654.89413	0.0766
2653.92977	0.07718
2652.9654	0.07776
2652.00104	0.07831
2651.03667	0.0788
2650.07231	0.07921
2649.10795	0.07952
2648.14358	0.07972
2647.17922	0.07978
2646.21485	0.07969
2645.25049	0.07944
2644.28613	0.07904
2643.32176	0.07851
2642.3574	0.07785
2641.39303	0.07706
2640.42867	0.07617
2639.46431	0.07519
2638.49994	0.07415
2637.53558	0.07307
2636.57121	0.07198
2635.60685	0.07089
2634.64249	0.06985
2633.67812	0.06886
2632.71376	0.06796
2631.74939	0.06715
2630.78503	0.06645
2629.82067	0.06586
2628.8563	0.06539
2627.89194	0.06504
2626.92757	0.06481
2625.96321	0.06468
2624.99885	0.06465
2624.03448	0.06471
2623.07012	0.06483
2622.10575	0.06502
2621.14139	0.06524
2620.17703	0.06548
2619.21266	0.06574
2618.2483	0.066
2617.28393	0.06625
2616.31957	0.06648
2615.35521	0.06669
2614.39084	0.0669
2613.42648	0.06708
2612.46211	0.06723
2611.49775	0.06735
2610.53339	0.06742
2609.56902	0.06747
2608.60466	0.06746
2607.64029	0.0674
2606.67593	0.0673
2605.71156	0.06715
2604.7472	0.06696
2603.78284	0.06672
2602.81847	0.06642
2601.85411	0.06604
2600.88974	0.0656
2599.92538	0.06509
2598.96102	0.06451
2597.99665	0.06386
2597.03229	0.06315
2596.06792	0.06239
2595.10356	0.0616
2594.1392	0.06081
2593.17483	0.06001
2592.21047	0.0592
2591.2461	0.05842
2590.28174	0.05765
2589.31738	0.05691
2588.35301	0.05617
2587.38865	0.05544
2586.42428	0.05472
2585.45992	0.05401
2584.49556	0.0533
2583.53119	0.05259
2582.56683	0.05188
2581.60246	0.05116
2580.6381	0.05043
2579.67374	0.04968
2578.70937	0.04891
2577.74501	0.04812
2576.78064	0.04732
2575.81628	0.04652
2574.85192	0.04572
2573.88755	0.04491
2572.92319	0.04412
2571.95882	0.04334
2570.99446	0.04259
2570.0301	0.04185
2569.06573	0.04113
2568.10137	0.04045
2567.137	0.03981
2566.17264	0.03919
2565.20828	0.0386
2564.24391	0.03804
2563.27955	0.0375
2562.31518	0.03698
2561.35082	0.03648
2560.38646	0.03599
2559.42209	0.03551
2558.45773	0.03504
2557.49336	0.03458
2556.529	0.03413
2555.56464	0.03367
2554.60027	0.03321
2553.63591	0.03274
2552.67154	0.03229
2551.70718	0.03184
2550.74282	0.03138
2549.77845	0.03093
2548.81409	0.03048
2547.84972	0.03005
2546.88536	0.02962
2545.921	0.02921
2544.95663	0.0288
2543.99227	0.02841
2543.0279	0.02801
2542.06354	0.02763
2541.09918	0.02725
2540.13481	0.02687
2539.17045	0.02649
2538.20608	0.02612
2537.24172	0.02574
2536.27736	0.02537
2535.31299	0.02499
2534.34863	0.02461
2533.38426	0.02423
2532.4199	0.02386
2531.45554	0.02349
2530.49117	0.02312
2529.52681	0.02275
2528.56244	0.0224
2527.59808	0.02206
2526.63372	0.02172
2525.66935	0.02139
2524.70499	0.02108
2523.74062	0.02079
2522.77626	0.0205
2521.8119	0.02021
2520.84753	0.01993
2519.88317	0.01966
2518.9188	0.0194
2517.95444	0.01915
2516.99008	0.01891
2516.02571	0.01867
2515.06135	0.01844
2514.09698	0.01822
2513.13262	0.01801
2512.16826	0.0178
2511.20389	0.01761
2510.23953	0.01742
2509.27516	0.01724
2508.3108	0.01707
2507.34644	0.01691
2506.38207	0.01675
2505.41771	0.01661
2504.45334	0.01647
2503.48898	0.01634
2502.52462	0.01621
2501.56025	0.01608
2500.59589	0.01596
2499.63152	0.01584
2498.66716	0.01573
2497.7028	0.01562
2496.73843	0.01551
2495.77407	0.0154
2494.8097	0.01529
2493.84534	0.01517
2492.88098	0.01505
2491.91661	0.01493
2490.95225	0.01481
2489.98788	0.01468
2489.02352	0.01456
2488.05916	0.01444
2487.09479	0.01432
2486.13043	0.01419
2485.16606	0.01406
2484.2017	0.01392
2483.23734	0.01379
2482.27297	0.01366
2481.30861	0.01352
2480.34424	0.01339
2479.37988	0.01327
2478.41552	0.01315
2477.45115	0.01304
2476.48679	0.01295
2475.52242	0.01286
2474.55806	0.01278
2473.5937	0.01271
2472.62933	0.01264
2471.66497	0.01258
2470.7006	0.01252
2469.73624	0.01247
2468.77187	0.01243
2467.80751	0.01239
2466.84315	0.01236
2465.87878	0.01233
2464.91442	0.0123
2463.95005	0.01226
2462.98569	0.01222
2462.02133	0.01218
2461.05696	0.01214
2460.0926	0.0121
2459.12823	0.01206
2458.16387	0.01202
2457.19951	0.01198
2456.23514	0.01194
2455.27078	0.0119
2454.30641	0.01186
2453.34205	0.01182
2452.37769	0.01178
2451.41332	0.01174
2450.44896	0.0117
2449.48459	0.01166
2448.52023	0.01162
2447.55587	0.01158
2446.5915	0.01154
2445.62714	0.0115
2444.66277	0.01146
2443.69841	0.01142
2442.73405	0.01138
2441.76968	0.01134
2440.80532	0.0113
2439.84095	0.01126
2438.87659	0.01122
2437.91223	0.01118
2436.94786	0.01114
2435.9835	0.0111
2435.01913	0.01105
2434.05477	0.01101
2433.09041	0.01097
2432.12604	0.01093
2431.16168	0.01089
2430.19731	0.01085
2429.23295	0.01081
2428.26859	0.01077
2427.30422	0.01072
2426.33986	0.01066
2425.37549	0.01059
2424.41113	0.01053
2423.44677	0.01046
2422.4824	0.0104
2421.51804	0.01034
2420.55367	0.01027
2419.58931	0.01021
2418.62495	0.01015
2417.66058	0.01008
2416.69622	0.01002
2415.73185	0.00995
2414.76749	0.00989
2413.80313	0.00983
2412.83876	0.00976
2411.8744	0.0097
2410.91003	0.00964
2409.94567	0.00957
2408.98131	0.00951
2408.01694	0.00944
2407.05258	0.00938
2406.08821	0.00932
2405.12385	0.00925
2404.15949	0.00919
2403.19512	0.00913
2402.23076	0.00906
2401.26639	0.009
2400.30203	0.00893
2399.33767	0.00887
2398.3733	0.00881
2397.40894	0.00874
2396.44457	0.00868
2395.48021	0.00862
2394.51585	0.00855
2393.55148	0.00849
2392.58712	0.00842
2391.62275	0.00836
2390.65839	0.0083
2389.69403	0.00823
2388.72966	0.00817
2387.7653	0.00811
2386.80093	0.00804
2385.83657	0.00798
2384.87221	0.00791
2383.90784	0.00785
2382.94348	0.00779
2381.97911	0.00772
2381.01475	0.00766
2380.05039	0.0076
2379.08602	0.00753
2378.12166	0.00747
2377.15729	0.0074
2376.19293	0.00734
2375.22857	0.00728
2374.2642	0.00721
2373.29984	0.00715
2372.33547	0.00709
2371.37111	0.00702
2370.40675	0.00696
2369.44238	0.00689
2368.47802	0.00683
2367.51365	0.00677
2366.54929	0.0067
2365.58493	0.00664
2364.62056	0.00658
2363.6562	0.00651
2362.69183	0.00645
2361.72747	0.00638
2360.76311	0.00632
2359.79874	0.00626
2358.83438	0.00619
2357.87001	0.00613
2356.90565	0.00607
2355.94129	0.006
2354.97692	0.00594
2354.01256	0.00587
2353.04819	0.00581
2352.08383	0.00575
2351.11947	0.00568
2350.1551	0.00562
2349.19074	0.00556
2348.22637	0.00549
2347.26201	0.00543
2346.29765	0.00536
2345.33328	0.0053
2344.36892	0.00524
2343.40455	0.00517
2342.44019	0.00511
2341.47583	0.00505
2340.51146	0.00498
2339.5471	0.00492
2338.58273	0.00485
2337.61837	0.00479
2336.65401	0.00473
2335.68964	0.00466
2334.72528	0.0046
2333.76091	0.00454
2332.79655	0.00447
2331.83219	0.00441
2330.86782	0.00434
2329.90346	0.00428
2328.93909	0.00422
2327.97473	0.00415
2327.01036	0.00409
2326.046	0.00403
2325.08164	0.00396
2324.11727	0.0039
2323.15291	0.00383
2322.18854	0.00377
2321.22418	0.00371
2320.25982	0.00364
2319.29545	0.00358
2318.33109	0.00352
2317.36672	0.00345
2316.40236	0.00339
2315.438	0.00332
2314.47363	0.00326
2313.50927	0.0032
2312.5449	0.00313
2311.58054	0.00307
2310.61618	0.00301
2309.65181	0.00294
2308.68745	0.00288
2307.72308	0.00281
2306.75872	0.00275
2305.79436	0.00269
2304.82999	0.00262
2303.86563	0.00256
2302.90126	0.0025
2301.9369	0.00243
2300.97254	0.00237
2300.00817	0.0023
2299.04381	0.00224
2298.07944	0.00218
2297.11508	0.00209
2296.15072	0.00204
2295.18635	0.00201
2294.22199	0.00197
2293.25762	0.00191
2292.29326	0.00183
2291.3289	0.00174
2290.36453	0.00166
2289.40017	0.00157
2288.4358	0.00147
2287.47144	0.00137
2286.50708	0.00129
2285.54271	0.00123
2284.57835	0.00117
2283.61398	0.00112
2282.64962	0.00108
2281.68526	0.00106
2280.72089	0.00107
2279.75653	0.00109
2278.79216	0.00111
2277.8278	0.00114
2276.86344	0.00119
2275.89907	0.00125
2274.93471	0.00133
2273.97034	0.00139
2273.00598	0.0015
2272.04162	0.00158
2271.07725	0.00163
2270.11289	0.00166
2269.14852	0.00167
2268.18416	0.00167
2267.2198	0.00167
2266.25543	0.00165
2265.29107	0.00162
2264.3267	0.00157
2263.36234	0.00151
2262.39798	0.00145
2261.43361	0.00137
2260.46925	0.00128
2259.50488	0.00119
2258.54052	0.00109
2257.57616	9.87031E-4
2256.61179	8.79829E-4
2255.64743	7.65875E-4
2254.68306	6.50046E-4
2253.7187	5.39997E-4
2252.75434	4.3714E-4
2251.78997	3.40829E-4
2250.82561	2.51169E-4
2249.86124	1.73277E-4
2248.89688	1.10662E-4
2247.93252	6.3253E-5
2246.96815	2.91984E-5
2246.00379	8.64623E-6
2245.03942	0
2244.07506	5.05176E-6
2243.1107	2.37143E-5
2242.14633	5.40082E-5
2241.18197	9.30606E-5
2240.2176	1.41386E-4
2239.25324	1.9956E-4
2238.28888	2.68629E-4
2237.32451	3.4541E-4
2236.36015	4.28707E-4
2235.39578	5.15137E-4
2234.43142	6.07116E-4
2233.46706	7.07188E-4
2232.50269	8.10528E-4
2231.53833	9.14425E-4
2230.57396	0.00102
2229.6096	0.00113
2228.64524	0.00125
2227.68087	0.00137
2226.71651	0.00149
2225.75214	0.00161
2224.78778	0.00173
2223.82342	0.00186
2222.85905	0.00198
2221.89469	0.00209
2220.93032	0.0022
2219.96596	0.0023
2219.0016	0.0024
2218.03723	0.00249
2217.07287	0.00259
2216.1085	0.00268
2215.14414	0.00278
2214.17978	0.00288
2213.21541	0.00298
2212.25105	0.00309
2211.28668	0.0032
2210.32232	0.00331
2209.35796	0.00343
2208.39359	0.00357
2207.42923	0.00371
2206.46486	0.00386
2205.5005	0.00401
2204.53614	0.00418
2203.57177	0.00435
2202.60741	0.00454
2201.64304	0.00473
2200.67868	0.00491
2199.71432	0.0051
2198.74995	0.00529
2197.78559	0.00547
2196.82122	0.00566
2195.85686	0.00584
2194.8925	0.00602
2193.92813	0.0062
2192.96377	0.00637
2191.9994	0.00653
2191.03504	0.00669
2190.07068	0.00684
2189.10631	0.00698
2188.14195	0.00712
2187.17758	0.00723
2186.21322	0.00734
2185.24885	0.00745
2184.28449	0.00754
2183.32013	0.00762
2182.35576	0.00768
2181.3914	0.00774
2180.42703	0.00781
2179.46267	0.00787
2178.49831	0.00793
2177.53394	0.00798
2176.56958	0.00803
2175.60521	0.00808
2174.64085	0.00814
2173.67649	0.0082
2172.71212	0.00825
2171.74776	0.00832
2170.78339	0.00839
2169.81903	0.00848
2168.85467	0.00855
2167.8903	0.00862
2166.92594	0.00869
2165.96157	0.00876
2164.99721	0.00883
2164.03285	0.00889
2163.06848	0.00893
2162.10412	0.00897
2161.13975	0.00899
2160.17539	0.00901
2159.21103	0.00901
2158.24666	0.009
2157.2823	0.00897
2156.31793	0.00894
2155.35357	0.00891
2154.38921	0.00886
2153.42484	0.0088
2152.46048	0.00872
2151.49611	0.00865
2150.53175	0.00858
2149.56739	0.00851
2148.60302	0.00843
2147.63866	0.00835
2146.67429	0.00829
2145.70993	0.00826
2144.74557	0.00823
2143.7812	0.00819
2142.81684	0.00815
2141.85247	0.00812
2140.88811	0.00808
2139.92375	0.00803
2138.95938	0.00797
2137.99502	0.0079
2137.03065	0.00783
2136.06629	0.00776
2135.10193	0.00768
2134.13756	0.00759
2133.1732	0.0075
2132.20883	0.00742
2131.24447	0.00732
2130.28011	0.00721
2129.31574	0.00708
2128.35138	0.00694
2127.38701	0.0068
2126.42265	0.00667
2125.45829	0.00656
2124.49392	0.00649
2123.52956	0.00644
2122.56519	0.00639
2121.60083	0.00633
2120.63647	0.00625
2119.6721	0.00617
2118.70774	0.00608
2117.74337	0.006
2116.77901	0.00593
2115.81465	0.00586
2114.85028	0.00578
2113.88592	0.00572
2112.92155	0.00566
2111.95719	0.00561
2110.99283	0.00556
2110.02846	0.00551
2109.0641	0.00548
2108.09973	0.00545
2107.13537	0.00542
2106.17101	0.00539
2105.20664	0.00537
2104.24228	0.00536
2103.27791	0.00537
2102.31355	0.00537
2101.34919	0.00537
2100.38482	0.00541
2099.42046	0.00548
2098.45609	0.00557
2097.49173	0.00566
2096.52737	0.00574
2095.563	0.00582
2094.59864	0.00589
2093.63427	0.00596
2092.66991	0.00601
2091.70555	0.00605
2090.74118	0.00607
2089.77682	0.00609
2088.81245	0.00612
2087.84809	0.00615
2086.88373	0.00617
2085.91936	0.00617
2084.955	0.00617
2083.99063	0.00618
2083.02627	0.00617
2082.06191	0.00614
2081.09754	0.00611
2080.13318	0.00606
2079.16881	0.00601
2078.20445	0.00597
2077.24009	0.00591
2076.27572	0.0059
2075.31136	0.006
2074.34699	0.00618
2073.38263	0.00634
2072.41827	0.00646
2071.4539	0.00657
2070.48954	0.00669
2069.52517	0.0068
2068.56081	0.00688
2067.59645	0.00694
2066.63208	0.00698
2065.66772	0.00701
2064.70335	0.00702
2063.73899	0.007
2062.77463	0.00694
2061.81026	0.00688
2060.8459	0.0068
2059.88153	0.0067
2058.91717	0.00656
2057.95281	0.00641
2056.98844	0.00623
2056.02408	0.00603
2055.05971	0.00583
2054.09535	0.00567
2053.13099	0.00562
2052.16662	0.00573
2051.20226	0.00591
2050.23789	0.00607
2049.27353	0.00622
2048.30917	0.00638
2047.3448	0.00653
2046.38044	0.00666
2045.41607	0.00677
2044.45171	0.00685
2043.48734	0.0069
2042.52298	0.00693
2041.55862	0.00693
2040.59425	0.00692
2039.62989	0.00687
2038.66552	0.00679
2037.70116	0.0067
2036.7368	0.00658
2035.77243	0.00643
2034.80807	0.00625
2033.8437	0.00606
2032.87934	0.00588
2031.91498	0.00567
2030.95061	0.00543
2029.98625	0.00522
2029.02188	0.0051
2028.05752	0.00514
2027.09316	0.00534
2026.12879	0.00562
2025.16443	0.00589
2024.20006	0.00612
2023.2357	0.00631
2022.27134	0.00647
2021.30697	0.00657
2020.34261	0.00663
2019.37824	0.00667
2018.41388	0.00669
2017.44952	0.00671
2016.48515	0.00668
2015.52079	0.00661
2014.55642	0.0065
2013.59206	0.00635
2012.6277	0.00615
2011.66333	0.0059
2010.69897	0.00561
2009.7346	0.00529
2008.77024	0.00495
2007.80588	0.00462
2006.84151	0.00435
2005.87715	0.00416
2004.91278	0.00399
2003.94842	0.00383
2002.98406	0.00387
2002.01969	0.00413
2001.05533	0.00444
2000.09096	0.00472
1999.1266	0.00508
1998.16224	0.00555
1997.19787	0.00604
1996.23351	0.0065
1995.26914	0.00691
1994.30478	0.00727
1993.34042	0.00756
1992.37605	0.00777
1991.41169	0.00792
1990.44732	0.00799
1989.48296	0.00798
1988.5186	0.00791
1987.55423	0.00778
1986.58987	0.00762
1985.6255	0.00739
1984.66114	0.00709
1983.69678	0.00672
1982.73241	0.00629
1981.76805	0.00589
1980.80368	0.00567
1979.83932	0.00563
1978.87496	0.00563
1977.91059	0.00573
1976.94623	0.00613
1975.98186	0.00676
1975.0175	0.0074
1974.05314	0.00789
1973.08877	0.00826
1972.12441	0.00858
1971.16004	0.00886
1970.19568	0.00908
1969.23132	0.00922
1968.26695	0.00927
1967.30259	0.00924
1966.33822	0.00918
1965.37386	0.00917
1964.4095	0.00919
1963.44513	0.00918
1962.48077	0.00912
1961.5164	0.00901
1960.55204	0.00884
1959.58768	0.00858
1958.62331	0.00817
1957.65895	0.00767
1956.69458	0.00727
1955.73022	0.00706
1954.76586	0.00697
1953.80149	0.00704
1952.83713	0.00742
1951.87276	0.00794
1950.9084	0.0084
1949.94404	0.00875
1948.97967	0.00901
1948.01531	0.00913
1947.05094	0.00912
1946.08658	0.00899
1945.12222	0.00876
1944.15785	0.0085
1943.19349	0.00829
1942.22912	0.00808
1941.26476	0.00779
1940.3004	0.0074
1939.33603	0.00692
1938.37167	0.00636
1937.4073	0.0057
1936.44294	0.00488
1935.47858	0.00381
1934.51421	0.00277
1933.54985	0.00225
1932.58548	0.00222
1931.62112	0.00245
1930.65676	0.00295
1929.69239	0.00367
1928.72803	0.00455
1927.76366	0.00556
1926.7993	0.00654
1925.83494	0.00745
1924.87057	0.00824
1923.90621	0.00888
1922.94184	0.0093
1921.97748	0.00951
1921.01312	0.00971
1920.04875	0.01001
1919.08439	0.01039
1918.12002	0.0108
1917.15566	0.01112
1916.1913	0.01126
1915.22693	0.01123
1914.26257	0.01103
1913.2982	0.01069
1912.33384	0.01035
1911.36948	0.0103
1910.40511	0.0106
1909.44075	0.01082
1908.47638	0.01073
1907.51202	0.01044
1906.54766	0.01044
1905.58329	0.01102
1904.61893	0.01175
1903.65456	0.01226
1902.6902	0.01247
1901.72583	0.01241
1900.76147	0.01243
1899.79711	0.01282
1898.83274	0.01354
1897.86838	0.01448
1896.90401	0.01549
1895.93965	0.0165
1894.97529	0.01747
1894.01092	0.01829
1893.04656	0.01895
1892.08219	0.01947
1891.11783	0.01985
1890.15347	0.02011
1889.1891	0.02026
1888.22474	0.02026
1887.26037	0.02011
1886.29601	0.01984
1885.33165	0.01946
1884.36728	0.01906
1883.40292	0.01872
1882.43855	0.01832
1881.47419	0.01759
1880.50983	0.01677
1879.54546	0.0165
1878.5811	0.0172
1877.61673	0.01893
1876.65237	0.02119
1875.68801	0.02332
1874.72364	0.02516
1873.75928	0.02678
1872.79491	0.02831
1871.83055	0.02974
1870.86619	0.03096
1869.90182	0.03197
1868.93746	0.03286
1867.97309	0.03363
1867.00873	0.03423
1866.04437	0.0346
1865.08	0.03472
1864.11564	0.03459
1863.15127	0.03425
1862.18691	0.03368
1861.22255	0.03279
1860.25818	0.0316
1859.29382	0.03044
1858.32945	0.02978
1857.36509	0.02987
1856.40073	0.03067
1855.43636	0.0322
1854.472	0.03452
1853.50763	0.03722
1852.54327	0.03998
1851.57891	0.04262
1850.61454	0.04508
1849.65018	0.04733
1848.68581	0.0495
1847.72145	0.05176
1846.75709	0.05412
1845.79272	0.05637
1844.82836	0.0584
1843.86399	0.06016
1842.89963	0.06152
1841.93527	0.0623
1840.9709	0.06311
1840.00654	0.06468
1839.04217	0.06661
1838.07781	0.06833
1837.11345	0.06977
1836.14908	0.07154
1835.18472	0.07388
1834.22035	0.07651
1833.25599	0.0795
1832.29163	0.08318
1831.32726	0.08724
1830.3629	0.09107
1829.39853	0.09454
1828.43417	0.0978
1827.46981	0.10104
1826.50544	0.10439
1825.54108	0.10796
1824.57671	0.11172
1823.61235	0.11549
1822.64799	0.11935
1821.68362	0.12385
1820.71926	0.12964
1819.75489	0.13699
1818.79053	0.14642
1817.82617	0.15873
1816.8618	0.17361
1815.89744	0.18979
1814.93307	0.20659
1813.96871	0.22384
1813.00435	0.24151
1812.03998	0.25893
1811.07562	0.2754
1810.11125	0.29065
1809.14689	0.30421
1808.18253	0.31558
1807.21816	0.32478
1806.2538	0.33208
1805.28943	0.33736
1804.32507	0.34019
1803.36071	0.34092
1802.39634	0.3406
1801.43198	0.33965
1800.46761	0.33828
1799.50325	0.3368
1798.53889	0.33577
1797.57452	0.33558
1796.61016	0.33635
1795.64579	0.33863
1794.68143	0.34262
1793.71707	0.34773
1792.7527	0.35328
1791.78834	0.35908
1790.82397	0.36537
1789.85961	0.37209
1788.89525	0.37884
1787.93088	0.38525
1786.96652	0.39121
1786.00215	0.39683
1785.03779	0.40212
1784.07343	0.407
1783.10906	0.41251
1782.1447	0.41931
1781.18033	0.42696
1780.21597	0.43554
1779.25161	0.44493
1778.28724	0.45399
1777.32288	0.46172
1776.35851	0.46757
1775.39415	0.47133
1774.42979	0.4729
1773.46542	0.47252
1772.50106	0.47101
1771.53669	0.46847
1770.57233	0.46438
1769.60797	0.45867
1768.6436	0.45173
1767.67924	0.44417
1766.71487	0.43625
1765.75051	0.42794
1764.78615	0.41958
1763.82178	0.41209
1762.85742	0.40641
1761.89305	0.40365
1760.92869	0.40482
1759.96432	0.41097
1758.99996	0.42115
1758.0356	0.43303
1757.07123	0.44514
1756.10687	0.45626
1755.1425	0.46551
1754.17814	0.47258
1753.21378	0.47696
1752.24941	0.47817
1751.28505	0.4765
1750.32068	0.47265
1749.35632	0.46672
1748.39196	0.45796
1747.42759	0.44576
1746.46323	0.4301
1745.49886	0.41209
1744.5345	0.39445
1743.57014	0.37717
1742.60577	0.35979
1741.64141	0.34313
1740.67704	0.32836
1739.71268	0.3159
1738.74832	0.30585
1737.78395	0.29756
1736.81959	0.29017
1735.85522	0.28272
1734.89086	0.27457
1733.9265	0.26565
1732.96213	0.25611
1731.99777	0.24629
1731.0334	0.23612
1730.06904	0.2249
1729.10468	0.21348
1728.14031	0.20383
1727.17595	0.19569
1726.21158	0.18844
1725.24722	0.18233
1724.28286	0.17748
1723.31849	0.17401
1722.35413	0.17262
1721.38976	0.17391
1720.4254	0.17642
1719.46104	0.17992
1718.49667	0.18446
1717.53231	0.18997
1716.56794	0.19638
1715.60358	0.20368
1714.63922	0.21181
1713.67485	0.22056
1712.71049	0.22939
1711.74612	0.23654
1710.78176	0.24424
1709.8174	0.25378
1708.85303	0.26439
1707.88867	0.27526
1706.9243	0.28698
1705.95994	0.30207
1704.99558	0.32048
1704.03121	0.34022
1703.06685	0.3608
1702.10248	0.38204
1701.13812	0.40342
1700.17376	0.42466
1699.20939	0.44541
1698.24503	0.4648
1697.28066	0.4817
1696.3163	0.49506
1695.35194	0.50646
1694.38757	0.51644
1693.42321	0.52339
1692.45884	0.52614
1691.49448	0.52452
1690.53012	0.51862
1689.56575	0.50806
1688.60139	0.49316
1687.63702	0.47704
1686.67266	0.45963
1685.7083	0.44049
1684.74393	0.42011
1683.77957	0.39984
1682.8152	0.38074
1681.85084	0.36216
1680.88648	0.34448
1679.92211	0.32908
1678.95775	0.31647
1677.99338	0.30624
1677.02902	0.29765
1676.06466	0.28967
1675.10029	0.28156
1674.13593	0.27381
1673.17156	0.26785
1672.2072	0.26464
1671.24284	0.26204
1670.27847	0.2584
1669.31411	0.25429
1668.34974	0.25013
1667.38538	0.24561
1666.42102	0.24009
1665.45665	0.23337
1664.49229	0.22762
1663.52792	0.22497
1662.56356	0.22382
1661.5992	0.22276
1660.63483	0.22125
1659.67047	0.21921
1658.7061	0.21738
1657.74174	0.21748
1656.77738	0.21979
1655.81301	0.22251
1654.84865	0.22447
1653.88428	0.22542
1652.91992	0.22551
1651.95556	0.22505
1650.99119	0.22436
1650.02683	0.22332
1649.06246	0.22116
1648.0981	0.2178
1647.13374	0.21401
1646.16937	0.21086
1645.20501	0.20806
1644.24064	0.20522
1643.27628	0.20229
1642.31192	0.19978
1641.34755	0.1989
1640.38319	0.19854
1639.41882	0.19664
1638.45446	0.19411
1637.4901	0.19123
1636.52573	0.18825
1635.56137	0.18593
1634.597	0.18516
1633.63264	0.18532
1632.66828	0.18519
1631.70391	0.18441
1630.73955	0.18294
1629.77518	0.18072
1628.81082	0.17775
1627.84646	0.17478
1626.88209	0.17267
1625.91773	0.17137
1624.95336	0.17101
1623.989	0.17168
1623.02464	0.17289
1622.06027	0.17335
1621.09591	0.17296
1620.13154	0.17207
1619.16718	0.17094
1618.20281	0.16977
1617.23845	0.16876
1616.27409	0.16805
1615.30972	0.16758
1614.34536	0.167
1613.38099	0.16632
1612.41663	0.16585
1611.45227	0.16607
1610.4879	0.16668
1609.52354	0.16669
1608.55917	0.1658
1607.59481	0.16419
1606.63045	0.16221
1605.66608	0.16041
1604.70172	0.15939
1603.73735	0.15864
1602.77299	0.15717
1601.80863	0.15494
1600.84426	0.1522
1599.8799	0.1492
1598.91553	0.14609
1597.95117	0.14319
1596.98681	0.14072
1596.02244	0.13869
1595.05808	0.13703
1594.09371	0.13569
1593.12935	0.13455
1592.16499	0.1337
1591.20062	0.13328
1590.23626	0.13316
1589.27189	0.13307
1588.30753	0.13289
1587.34317	0.1334
1586.3788	0.13548
1585.41444	0.13873
1584.45007	0.14266
1583.48571	0.14696
1582.52135	0.15132
1581.55698	0.15521
1580.59262	0.15911
1579.62825	0.16423
1578.66389	0.17027
1577.69953	0.17667
1576.73516	0.18316
1575.7708	0.19017
1574.80643	0.19807
1573.84207	0.2065
1572.87771	0.21494
1571.91334	0.22269
1570.94898	0.22845
1569.98461	0.23556
1569.02025	0.24595
1568.05589	0.25714
1567.09152	0.268
1566.12716	0.27844
1565.16279	0.28909
1564.19843	0.30008
1563.23407	0.31014
1562.2697	0.3176
1561.30534	0.32266
1560.34097	0.32597
1559.37661	0.32725
1558.41225	0.32626
1557.44788	0.32355
1556.48352	0.31929
1555.51915	0.31325
1554.55479	0.30586
1553.59043	0.2977
1552.62606	0.28935
1551.6617	0.28083
1550.69733	0.27363
1549.73297	0.26803
1548.76861	0.26294
1547.80424	0.25868
1546.83988	0.25768
1545.87551	0.25761
1544.91115	0.25592
1543.94679	0.25445
1542.98242	0.25377
1542.01806	0.25344
1541.05369	0.25222
1540.08933	0.2496
1539.12497	0.24626
1538.1606	0.24314
1537.19624	0.24005
1536.23187	0.23633
1535.26751	0.23195
1534.30315	0.22689
1533.33878	0.22161
1532.37442	0.21828
1531.41005	0.21744
1530.44569	0.21792
1529.48133	0.21907
1528.51696	0.22108
1527.5526	0.22577
1526.58823	0.23147
1525.62387	0.23617
1524.65951	0.23974
1523.69514	0.24231
1522.73078	0.24458
1521.76641	0.24718
1520.80205	0.24985
1519.83769	0.25169
1518.87332	0.25244
1517.90896	0.25391
1516.94459	0.25836
1515.98023	0.26488
1515.01587	0.27239
1514.0515	0.27991
1513.08714	0.28721
1512.12277	0.29414
1511.15841	0.30046
1510.19405	0.30654
1509.22968	0.31391
1508.26532	0.3216
1507.30095	0.32858
1506.33659	0.33643
1505.37223	0.34626
1504.40786	0.35834
1503.4435	0.3708
1502.47913	0.38212
1501.51477	0.39247
1500.55041	0.40247
1499.58604	0.41159
1498.62168	0.4191
1497.65731	0.4248
1496.69295	0.429
1495.72859	0.43215
1494.76422	0.43519
1493.79986	0.43728
1492.83549	0.43632
1491.87113	0.43302
1490.90677	0.42786
1489.9424	0.42095
1488.97804	0.41227
1488.01367	0.40182
1487.04931	0.39044
1486.08495	0.37917
1485.12058	0.3681
1484.15622	0.35817
1483.19185	0.35145
1482.22749	0.34719
1481.26312	0.34417
1480.29876	0.34184
1479.3344	0.34019
1478.37003	0.33955
1477.40567	0.3393
1476.4413	0.33848
1475.47694	0.33781
1474.51258	0.33759
1473.54821	0.33742
1472.58385	0.33709
1471.61948	0.33673
1470.65512	0.33652
1469.69076	0.33692
1468.72639	0.339
1467.76203	0.34334
1466.79766	0.34923
1465.8333	0.35581
1464.86894	0.36239
1463.90457	0.36845
1462.94021	0.37357
1461.97584	0.37765
1461.01148	0.38108
1460.04712	0.38413
1459.08275	0.38581
1458.11839	0.38573
1457.15402	0.38381
1456.18966	0.38009
1455.2253	0.37478
1454.26093	0.36814
1453.29657	0.36064
1452.3322	0.35274
1451.36784	0.34393
1450.40348	0.33378
1449.43911	0.3224
1448.47475	0.31025
1447.51038	0.29898
1446.54602	0.2901
1445.58166	0.28417
1444.61729	0.28052
1443.65293	0.27772
1442.68856	0.275
1441.7242	0.27209
1440.75984	0.26941
1439.79547	0.26732
1438.83111	0.26554
1437.86674	0.26382
1436.90238	0.26219
1435.93802	0.26089
1434.97365	0.2602
1434.00929	0.26006
1433.04492	0.26011
1432.08056	0.25996
1431.1162	0.25935
1430.15183	0.25887
1429.18747	0.25915
1428.2231	0.26006
1427.25874	0.2614
1426.29438	0.26302
1425.33001	0.26501
1424.36565	0.26762
1423.40128	0.27019
1422.43692	0.27219
1421.47256	0.27375
1420.50819	0.27497
1419.54383	0.2758
1418.57946	0.27618
1417.6151	0.27611
1416.65074	0.27546
1415.68637	0.27429
1414.72201	0.2726
1413.75764	0.27024
1412.79328	0.26732
1411.82892	0.26404
1410.86455	0.26008
1409.90019	0.25553
1408.93582	0.25123
1407.97146	0.24772
1407.0071	0.24565
1406.04273	0.24545
1405.07837	0.24689
1404.114	0.24935
1403.14964	0.25218
1402.18528	0.25507
1401.22091	0.25792
1400.25655	0.26062
1399.29218	0.26312
1398.32782	0.26574
1397.36346	0.26856
1396.39909	0.27106
1395.43473	0.27274
1394.47036	0.27348
1393.506	0.27349
1392.54164	0.27283
1391.57727	0.27107
1390.61291	0.26803
1389.64854	0.26399
1388.68418	0.25939
1387.71982	0.25468
1386.75545	0.25044
1385.79109	0.24719
1384.82672	0.24553
1383.86236	0.24601
1382.898	0.24874
1381.93363	0.25307
1380.96927	0.25822
1380.0049	0.26432
1379.04054	0.27171
1378.07618	0.2801
1377.11181	0.28898
1376.14745	0.29804
1375.18308	0.30721
1374.21872	0.31624
1373.25436	0.32464
1372.28999	0.33193
1371.32563	0.33767
1370.36126	0.34148
1369.3969	0.34317
1368.43254	0.34276
1367.46817	0.34037
1366.50381	0.33625
1365.53944	0.3308
1364.57508	0.32429
1363.61072	0.31715
1362.64635	0.31008
1361.68199	0.30347
1360.71762	0.29703
1359.75326	0.29065
1358.7889	0.28457
1357.82453	0.27921
1356.86017	0.27487
1355.8958	0.27145
1354.93144	0.26854
1353.96708	0.26592
1353.00271	0.26355
1352.03835	0.26167
1351.07398	0.26104
1350.10962	0.26198
1349.14526	0.26385
1348.18089	0.26611
1347.21653	0.26862
1346.25216	0.27142
1345.2878	0.27445
1344.32344	0.27763
1343.35907	0.28103
1342.39471	0.2846
1341.43034	0.28813
1340.46598	0.29143
1339.50161	0.29441
1338.53725	0.29706
1337.57289	0.29938
1336.60852	0.30133
1335.64416	0.30275
1334.67979	0.30362
1333.71543	0.30393
1332.75107	0.30366
1331.7867	0.3028
1330.82234	0.30147
1329.85797	0.30001
1328.89361	0.29893
1327.92925	0.2988
1326.96488	0.29958
1326.00052	0.30064
1325.03615	0.30172
1324.07179	0.30297
1323.10743	0.30444
1322.14306	0.30604
1321.1787	0.30771
1320.21433	0.30941
1319.24997	0.31122
1318.28561	0.31318
1317.32124	0.31525
1316.35688	0.31729
1315.39251	0.31923
1314.42815	0.32099
1313.46379	0.32251
1312.49942	0.32369
1311.53506	0.32446
1310.57069	0.32472
1309.60633	0.32446
1308.64197	0.3238
1307.6776	0.32298
1306.71324	0.32211
1305.74887	0.32114
1304.78451	0.32005
1303.82015	0.31891
1302.85578	0.31779
1301.89142	0.31687
1300.92705	0.31629
1299.96269	0.31604
1298.99833	0.3161
1298.03396	0.31648
1297.0696	0.31723
1296.10523	0.31831
1295.14087	0.31961
1294.17651	0.321
1293.21214	0.32239
1292.24778	0.32368
1291.28341	0.32483
1290.31905	0.32576
1289.35469	0.32638
1288.39032	0.32655
1287.42596	0.32614
1286.46159	0.32506
1285.49723	0.32326
1284.53287	0.32071
1283.5685	0.31739
1282.60414	0.31337
1281.63977	0.30875
1280.67541	0.30365
1279.71105	0.29818
1278.74668	0.29244
1277.78232	0.28654
1276.81795	0.28061
1275.85359	0.27488
1274.88923	0.26945
1273.92486	0.26439
1272.9605	0.25975
1271.99613	0.2557
1271.03177	0.25246
1270.06741	0.25017
1269.10304	0.24884
1268.13868	0.24847
1267.17431	0.24907
1266.20995	0.25062
1265.24559	0.25315
1264.28122	0.25668
1263.31686	0.26124
1262.35249	0.2669
1261.38813	0.27374
1260.42377	0.28183
1259.4594	0.29108
1258.49504	0.30123
1257.53067	0.31195
1256.56631	0.32295
1255.60195	0.33394
1254.63758	0.34466
1253.67322	0.35486
1252.70885	0.36435
1251.74449	0.37292
1250.78013	0.38036
1249.81576	0.38642
1248.8514	0.39089
1247.88703	0.39361
1246.92267	0.39441
1245.95831	0.39324
1244.99394	0.39013
1244.02958	0.38525
1243.06521	0.37886
1242.10085	0.37131
1241.13649	0.36295
1240.17212	0.35407
1239.20776	0.3449
1238.24339	0.3356
1237.27903	0.32632
1236.31467	0.31711
1235.3503	0.30798
1234.38594	0.29896
1233.42157	0.29018
1232.45721	0.28187
1231.49285	0.27424
1230.52848	0.26741
1229.56412	0.26146
1228.59975	0.25644
1227.63539	0.25237
1226.67103	0.24919
1225.70666	0.24681
1224.7423	0.24519
1223.77793	0.24438
1222.81357	0.2445
1221.84921	0.2456
1220.88484	0.24769
1219.92048	0.25077
1218.95611	0.2549
1217.99175	0.26006
1217.02739	0.26618
1216.06302	0.27312
1215.09866	0.28079
1214.13429	0.28921
1213.16993	0.29845
1212.20557	0.30857
1211.2412	0.31953
1210.27684	0.33125
1209.31247	0.34357
1208.34811	0.35617
1207.38375	0.36854
1206.41938	0.38013
1205.45502	0.39042
1204.49065	0.39903
1203.52629	0.40575
1202.56193	0.41046
1201.59756	0.41312
1200.6332	0.41379
1199.66883	0.41263
1198.70447	0.40986
1197.7401	0.40574
1196.77574	0.40057
1195.81138	0.39467
1194.84701	0.38838
1193.88265	0.38209
1192.91828	0.37614
1191.95392	0.37092
1190.98956	0.36679
1190.02519	0.36408
1189.06083	0.36298
1188.09646	0.36342
1187.1321	0.36516
1186.16774	0.36786
1185.20337	0.37125
1184.23901	0.37508
1183.27464	0.37914
1182.31028	0.38334
1181.34592	0.38773
1180.38155	0.39251
1179.41719	0.39792
1178.45282	0.40416
1177.48846	0.41136
1176.5241	0.41971
1175.55973	0.42945
1174.59537	0.44083
1173.631	0.454
1172.66664	0.4691
1171.70228	0.48627
1170.73791	0.50562
1169.77355	0.52705
1168.80918	0.55021
1167.84482	0.57462
1166.88046	0.59969
1165.91609	0.62477
1164.95173	0.64921
1163.98736	0.67232
1163.023	0.69352
1162.05864	0.71228
1161.09427	0.72811
1160.12991	0.74054
1159.16554	0.74923
1158.20118	0.75392
1157.23682	0.75456
1156.27245	0.75125
1155.30809	0.74414
1154.34372	0.73341
1153.37936	0.71932
1152.415	0.70227
1151.45063	0.68283
1150.48627	0.66164
1149.5219	0.63937
1148.55754	0.61667
1147.59318	0.59417
1146.62881	0.57251
1145.66445	0.55234
1144.70008	0.53427
1143.73572	0.51873
1142.77136	0.506
1141.80699	0.49623
1140.84263	0.48946
1139.87826	0.48566
1138.9139	0.48468
1137.94954	0.48637
1136.98517	0.49058
1136.02081	0.49709
1135.05644	0.50553
1134.09208	0.51547
1133.12772	0.52643
1132.16335	0.53794
1131.19899	0.54957
1130.23462	0.56097
1129.27026	0.57201
1128.3059	0.58281
1127.34153	0.59374
1126.37717	0.60528
1125.4128	0.6179
1124.44844	0.63205
1123.48408	0.64804
1122.51971	0.6659
1121.55535	0.68528
1120.59098	0.70549
1119.62662	0.72568
1118.66226	0.74504
1117.69789	0.7629
1116.73353	0.77871
1115.76916	0.79196
1114.8048	0.80223
1113.84044	0.80916
1112.87607	0.81245
1111.91171	0.81185
1110.94734	0.80723
1109.98298	0.79862
1109.01862	0.78631
1108.05425	0.77078
1107.08989	0.75267
1106.12552	0.7328
1105.16116	0.71208
1104.1968	0.69143
1103.23243	0.67167
1102.26807	0.65341
1101.3037	0.63705
1100.33934	0.62283
1099.37498	0.61084
1098.41061	0.60109
1097.44625	0.59353
1096.48188	0.58812
1095.51752	0.58486
1094.55316	0.58383
1093.58879	0.58505
1092.62443	0.58847
1091.66006	0.59392
1090.6957	0.60116
1089.73134	0.60987
1088.76697	0.61969
1087.80261	0.63016
1086.83824	0.64083
1085.87388	0.65126
1084.90952	0.661
1083.94515	0.66958
1082.98079	0.67643
1082.01642	0.681
1081.05206	0.68284
1080.0877	0.68177
1079.12333	0.67785
1078.15897	0.67143
1077.1946	0.66304
1076.23024	0.6534
1075.26588	0.64328
1074.30151	0.63347
1073.33715	0.6247
1072.37278	0.61757
1071.40842	0.61259
1070.44406	0.61011
1069.47969	0.61037
1068.51533	0.61344
1067.55096	0.61926
1066.5866	0.62762
1065.62224	0.63823
1064.65787	0.65072
1063.69351	0.66461
1062.72914	0.67932
1061.76478	0.6942
1060.80042	0.70861
1059.83605	0.72193
1058.87169	0.73364
1057.90732	0.7434
1056.94296	0.75112
1055.97859	0.75694
1055.01423	0.76111
1054.04987	0.76395
1053.0855	0.76573
1052.12114	0.76677
1051.15677	0.7674
1050.19241	0.76788
1049.22805	0.76842
1048.26368	0.76919
1047.29932	0.77043
1046.33495	0.7724
1045.37059	0.77531
1044.40623	0.77934
1043.44186	0.78467
1042.4775	0.79152
1041.51313	0.80009
1040.54877	0.81053
1039.58441	0.82283
1038.62004	0.83686
1037.65568	0.85246
1036.69131	0.86936
1035.72695	0.88717
1034.76259	0.90545
1033.79822	0.92372
1032.83386	0.94148
1031.86949	0.95808
1030.90513	0.97277
1029.94077	0.98483
1028.9764	0.99366
1028.01204	0.99884
1027.04767	1
1026.08331	0.99689
1025.11895	0.98941
1024.15458	0.9777
1023.19022	0.96211
1022.22585	0.94318
1021.26149	0.92151
1020.29713	0.89775
1019.33276	0.87257
1018.3684	0.84674
1017.40403	0.82095
1016.43967	0.79578
1015.47531	0.77172
1014.51094	0.74929
1013.54658	0.72893
1012.58221	0.711
1011.61785	0.69566
1010.65349	0.68291
1009.68912	0.67269
1008.72476	0.66491
1007.76039	0.65949
1006.79603	0.6563
1005.83167	0.65523
1004.8673	0.65618
1003.90294	0.65903
1002.93857	0.66357
1001.97421	0.66948
1001.00985	0.67639
1000.04548	0.68396
999.08112	0.69184
998.11675	0.69958
997.15239	0.70667
996.18803	0.7127
995.22366	0.71747
994.2593	0.72095
993.29493	0.72324
992.33057	0.72449
991.36621	0.72483
990.40184	0.72437
989.43748	0.72305
988.47311	0.72063
987.50875	0.71676
986.54439	0.71115
985.58002	0.70362
984.61566	0.69409
983.65129	0.68253
982.68693	0.66893
981.72257	0.65344
980.7582	0.63629
979.79384	0.61773
978.82947	0.59798
977.86511	0.5771
976.90075	0.55511
975.93638	0.53207
974.97202	0.50807
974.00765	0.48328
973.04329	0.45795
972.07893	0.43252
971.11456	0.40756
970.1502	0.38364
969.18583	0.36114
968.22147	0.34018
967.25711	0.32064
966.29274	0.30227
965.32838	0.28481
964.36401	0.26805
963.39965	0.25189
962.43529	0.23644
961.47092	0.2221
960.50656	0.2094
959.54219	0.19891
958.57783	0.19104
957.61347	0.18601
956.6491	0.1838
955.68474	0.1841
954.72037	0.18636
953.75601	0.18995
952.79165	0.19435
951.82728	0.19931
950.86292	0.20468
949.89855	0.21034
948.93419	0.21608
947.96983	0.22165
947.00546	0.22682
946.0411	0.23133
945.07673	0.23483
944.11237	0.23692
943.14801	0.2373
942.18364	0.23591
941.21928	0.23287
940.25491	0.22853
939.29055	0.2233
938.32619	0.21766
937.36182	0.21202
936.39746	0.20662
935.43309	0.20138
934.46873	0.19605
933.50437	0.19036
932.54	0.1842
931.57564	0.17754
930.61127	0.17046
929.64691	0.16308
928.68255	0.15561
927.71818	0.14827
926.75382	0.1412
925.78945	0.13441
924.82509	0.12782
923.86073	0.12132
922.89636	0.1149
921.932	0.10854
920.96763	0.10218
920.00327	0.09581
919.03891	0.08947
918.07454	0.08333
917.11018	0.07755
916.14581	0.07219
915.18145	0.06721
914.21708	0.06255
913.25272	0.05815
912.28836	0.05399
911.32399	0.05001
910.35963	0.04616
909.39526	0.04239
908.4309	0.03869
907.46654	0.03508
906.50217	0.03155
905.53781	0.02807
904.57344	0.02466
903.60908	0.02141
902.64472	0.01845
901.68035	0.01585
900.71599	0.01366
899.75162	0.0119
898.78726	0.01067
897.8229	0.01001
896.85853	0.00988
895.89417	0.01017
894.9298	0.01074
893.96544	0.01152
893.00108	0.01246
892.03671	0.01345
891.07235	0.01428
890.10798	0.01485
889.14362	0.01515
888.17926	0.01523
887.21489	0.01507
886.25053	0.01462
885.28616	0.01394
884.3218	0.01319
883.35744	0.01252
882.39307	0.01204
881.42871	0.01184
880.46434	0.01205
879.49998	0.01295
878.53562	0.01484
877.57125	0.01796
876.60689	0.02242
875.64252	0.02827
874.67816	0.03544
873.7138	0.04368
872.74943	0.05263
871.78507	0.06185
870.8207	0.07104
869.85634	0.08004
868.89198	0.08867
867.92761	0.09676
866.96325	0.10409
865.99888	0.11055
865.03452	0.11602
864.07016	0.12042
863.10579	0.12359
862.14143	0.12544
861.17706	0.12597
860.2127	0.12534
859.24834	0.12379
858.28397	0.12149
857.31961	0.11863
856.35524	0.11547
855.39088	0.11234
854.42652	0.10954
853.46215	0.10714
852.49779	0.10501
851.53342	0.10295
850.56906	0.10083
849.6047	0.09853
848.64033	0.09598
847.67597	0.09309
846.7116	0.08988
845.74724	0.08648
844.78288	0.08296
843.81851	0.07932
842.85415	0.07545
841.88978	0.07135
840.92542	0.0671
839.96106	0.06283
838.99669	0.05861
838.03233	0.05445
837.06796	0.0504
836.1036	0.04654
835.13924	0.04295
834.17487	0.03966
833.21051	0.03668
832.24614	0.03411
831.28178	0.03209
830.31742	0.03064
829.35305	0.02965
828.38869	0.029
827.42432	0.02863
826.45996	0.02849
825.4956	0.02854
824.53123	0.02868
823.56687	0.02885
822.6025	0.0291
821.63814	0.02948
820.67378	0.03004
819.70941	0.03078
818.74505	0.03169
817.78068	0.03283
816.81632	0.03423
815.85196	0.03585
814.88759	0.03752
813.92323	0.03918
812.95886	0.04084
811.9945	0.04257
811.03014	0.04444
810.06577	0.04641
809.10141	0.04843
808.13704	0.05049
807.17268	0.05258
806.20832	0.05471
805.24395	0.05682
804.27959	0.05881
803.31522	0.0606
802.35086	0.06221
801.3865	0.06368
800.42213	0.06502
799.45777	0.0662
798.4934	0.06723
797.52904	0.06814
796.56468	0.06898
795.60031	0.06973
794.63595	0.07037
793.67158	0.07093
792.70722	0.07145
791.74286	0.072
790.77849	0.07263
789.81413	0.07334
788.84976	0.07422
787.8854	0.07532
786.92104	0.0766
785.95667	0.07798
784.99231	0.07936
784.02794	0.08075
783.06358	0.08222
782.09922	0.08391
781.13485	0.08596
780.17049	0.08851
779.20612	0.09163
778.24176	0.09528
777.2774	0.09932
776.31303	0.10363
775.34867	0.10816
774.3843	0.11292
773.41994	0.11801
772.45557	0.12345
771.49121	0.12921
770.52685	0.13518
769.56248	0.14124
768.59812	0.14723
767.63375	0.15302
766.66939	0.15852
765.70503	0.16366
764.74066	0.16836
763.7763	0.17255
762.81193	0.17608
761.84757	0.17884
760.88321	0.18076
759.91884	0.18185
758.95448	0.18216
757.99011	0.18172
757.02575	0.18051
756.06139	0.17848
755.09702	0.17568
754.13266	0.17228
753.16829	0.1685
752.20393	0.16459
751.23957	0.16076
750.2752	0.15721
749.31084	0.154
748.34647	0.15117
747.38211	0.14876
746.41775	0.14683
745.45338	0.1455
744.48902	0.14497
743.52465	0.14538
742.56029	0.14675
741.59593	0.14894
740.63156	0.15168
739.6672	0.1547
738.70283	0.15775
737.73847	0.16074
736.77411	0.1636
735.80974	0.16638
734.84538	0.16913
733.88101	0.17183
732.91665	0.1744
731.95229	0.17678
730.98792	0.17887
730.02356	0.18057
729.05919	0.18175
728.09483	0.18238
727.13047	0.18247
726.1661	0.18205
725.20174	0.18126
724.23737	0.1803
723.27301	0.17934
722.30865	0.17851
721.34428	0.17786
720.37992	0.17746
719.41555	0.17735
718.45119	0.17759
717.48683	0.17819
716.52246	0.17919
715.5581	0.18066
714.59373	0.18271
713.62937	0.18534
712.66501	0.18847
711.70064	0.1919
710.73628	0.19536
709.77191	0.19873
708.80755	0.202
707.84319	0.20516
706.87882	0.20827
705.91446	0.21175
704.95009	0.21616
703.98573	0.22159
703.02137	0.22753
702.057	0.23322
701.09264	0.23811
700.12827	0.24191
699.16391	0.24455
698.19955	0.24597
697.23518	0.2461
696.27082	0.24499
695.30645	0.24273
694.34209	0.23941
693.37773	0.23506
692.41336	0.22969
691.449	0.22334
690.48463	0.21617
689.52027	0.20842
688.55591	0.20027
687.59154	0.19193
686.62718	0.18375
685.66281	0.17623
684.69845	0.1699
683.73409	0.16516
682.76972	0.16218
681.80536	0.16059
680.84099	0.15964
679.87663	0.1594
678.91227	0.16099
677.9479	0.1632
676.98354	0.1654
676.01917	0.16744
675.05481	0.16921
674.09045	0.17067
673.12608	0.1718
672.16172	0.17266
671.19735	0.17336
670.23299	0.17402
669.26863	0.1746
668.30426	0.17499
667.3399	0.17521
666.37553	0.17536
665.41117	0.17547
664.44681	0.17542
663.48244	0.17512
662.51808	0.17462
661.55371	0.17399
660.58935	0.1733
659.62499	0.17252
658.66062	0.17172
657.69626	0.17131
656.73189	0.17203
655.76753	0.17366
654.80317	0.17414
653.8388	0.17363
652.87444	0.17245
651.91007	0.17087
650.94571	0.16903
649.98135	0.1669
649.01698	0.16443
648.05262	0.16176
647.08825	0.15909
646.12389	0.1565
645.15953	0.15387
644.19516	0.1512
643.2308	0.14862
642.26643	0.14627
641.30207	0.14415
640.33771	0.14214
639.37334	0.1402
638.40898	0.13838
637.44461	0.13682
636.48025	0.13562
635.51589	0.13472
634.55152	0.134
633.58716	0.13349
632.62279	0.13325
631.65843	0.13322
630.69406	0.1332
629.7297	0.13308
628.76534	0.13318
627.80097	0.13402
626.83661	0.13568
625.87224	0.1379
624.90788	0.14049
623.94352	0.14355
622.97915	0.1472
622.01479	0.15134
621.05042	0.15582
620.08606	0.16057
619.1217	0.16558
618.15733	0.17078
617.19297	0.1759
616.2286	0.18068
615.26424	0.185
614.29988	0.1889
613.33551	0.19232
612.37115	0.19499
611.40678	0.19674
610.44242	0.19753
609.47806	0.1974
608.51369	0.19636
607.54933	0.19442
606.58496	0.19176
605.6206	0.18881
604.65624	0.18581
603.69187	0.18266
602.72751	0.17945
601.76314	0.17644
600.79878	0.17385
599.83442	0.17193
598.87005	0.17091
597.90569	0.17083
596.94132	0.17162
595.97696	0.17338
595.0126	0.1762
594.04823	0.17997
593.08387	0.18442
592.1195	0.18951
591.15514	0.19538
590.19078	0.20204
589.22641	0.20935
588.26205	0.21711
587.29768	0.22512
586.33332	0.23314
585.36896	0.24087
584.40459	0.24794
583.44023	0.25403
582.47586	0.25888
581.5115	0.26241
580.54714	0.26474
579.58277	0.26601
578.61841	0.26602
577.65404	0.26457
576.68968	0.26178
575.72532	0.25782
574.76095	0.2527
573.79659	0.24642
572.83222	0.23911
571.86786	0.231
570.9035	0.22231
569.93913	0.21327
568.97477	0.20424
568.0104	0.19544
567.04604	0.18694
566.08168	0.17887
565.11731	0.17146
564.15295	0.16473
563.18858	0.15844
562.22422	0.15238
561.25986	0.14664
560.29549	0.14135
559.33113	0.13646
558.36676	0.13192
557.4024	0.12784
556.43804	0.12433
555.47367	0.12135
554.50931	0.11872
553.54494	0.11631
552.58058	0.11409
551.61622	0.11216
550.65185	0.11062
549.68749	0.10947
548.72312	0.10868
547.75876	0.10823
546.7944	0.10816
545.83003	0.1085
544.86567	0.1092
543.9013	0.11024
542.93694	0.11171
541.97258	0.11367
541.00821	0.11605
540.04385	0.11874
539.07948	0.12164
538.11512	0.12472
537.15076	0.12821
536.18639	0.13222
535.22203	0.13649
534.25766	0.14071
533.2933	0.14466
532.32894	0.14815
531.36457	0.15113
530.40021	0.15358
529.43584	0.15546
528.47148	0.15688
527.50712	0.158
526.54275	0.15854
525.57839	0.15811
524.61402	0.15659
523.64966	0.15404
522.6853	0.15064
521.72093	0.14671
520.75657	0.14242
519.7922	0.1377
518.82784	0.13262
517.86348	0.12761
516.89911	0.12294
515.93475	0.11845
514.97038	0.11401
514.00602	0.10996
513.04166	0.10679
512.07729	0.10435
511.11293	0.10216
510.14856	0.09995
509.1842	0.09785
508.21984	0.09616
507.25547	0.09498
506.29111	0.09413
505.32674	0.09355
504.36238	0.09316
503.39802	0.09293
502.43365	0.09298
501.46929	0.09309
500.50492	0.093
499.54056	0.09279
498.5762	0.09264
497.61183	0.0924
496.64747	0.09177
495.6831	0.09082
494.71874	0.09002
493.75437	0.0894
492.79001	0.08849
491.82565	0.08706
490.86128	0.08542
489.89692	0.08398
488.93255	0.08248
487.96819	0.0805
487.00383	0.07801
486.03946	0.07515
485.0751	0.07205
484.11073	0.0693
483.14637	0.06749
482.18201	0.0661
481.21764	0.06473
480.25328	0.06371
479.28891	0.0632
478.32455	0.06266
477.36019	0.0616
476.39582	0.06017
475.43146	0.05884
474.46709	0.05772
473.50273	0.05653
472.53837	0.0551
471.574	0.0536
470.60964	0.05188
469.64527	0.04975
468.68091	0.04775
467.71655	0.0462
466.75218	0.04492
465.78782	0.0438
464.82345	0.04271
463.85909	0.04167
462.89473	0.0407
461.93036	0.04002
460.966	0.04007
460.00163	0.04048
459.03727	0.04001
458.07291	0.03877
457.10854	0.03768
456.14418	0.03691
455.17981	0.03592
454.21545	0.03451
453.25109	0.03318
452.28672	0.03239
451.32236	0.03188
450.35799	0.03103
449.39363	0.02951
448.42927	0.02758
447.4649	0.02595
446.50054	0.02528
445.53617	0.02558
444.57181	0.02589
443.60745	0.0258
442.64308	0.02595
441.67872	0.02672
440.71435	0.02767
439.74999	0.02817
438.78563	0.02815
437.82126	0.02804
436.8569	0.02797
435.89253	0.02764
434.92817	0.02713
433.96381	0.02708
432.99944	0.0274
432.03508	0.02742
431.07071	0.0266
430.10635	0.02642
429.14199	0.02877
428.17762	0.03226
427.21326	0.03539
426.24889	0.03751
425.28453	0.03895
424.32017	0.04034
423.3558	0.04164
422.39144	0.04215
421.42707	0.0413
420.46271	0.03941
419.49835	0.03734
418.53398	0.03526
417.56962	0.03269
416.60525	0.02959
415.64089	0.02655
414.67653	0.02385
413.71216	0.02099
412.7478	0.01724
411.78343	0.01285
410.81907	0.0113
409.85471	0.01009
408.89034	0.00922
407.92598	0.00869
406.96161	0.00849
405.99725	0.00863
405.03289	0.00911
404.06852	0.00992
403.10416	0.01108
402.13979	0.01257
401.17543	0.0144
400.21107	0.01656