401	0
402	0.00306
403	0.01459
404	0.02056
405	0.01458
406	0.0094
407	0.01646
408	0.02505
409	0.02268
410	0.01553
411	0.01657
412	0.02614
413	0.03193
414	0.028
415	0.02484
416	0.03107
417	0.04034
418	0.04107
419	0.03325
420	0.0334
421	0.043
422	0.04947
423	0.04806
424	0.04552
425	0.04984
426	0.05589
427	0.05476
428	0.048
429	0.04486
430	0.05059
431	0.05743
432	0.05507
433	0.04923
434	0.05201
435	0.06044
436	0.06237
437	0.05585
438	0.0517
439	0.05647
440	0.0641
441	0.06468
442	0.05935
443	0.05842
444	0.06331
445	0.06522
446	0.06122
447	0.05843
448	0.06274
449	0.06911
450	0.06899
451	0.06277
452	0.05974
453	0.06496
454	0.06978
455	0.06686
456	0.06142
457	0.06165
458	0.06744
459	0.06838
460	0.0637
461	0.06174
462	0.06765
463	0.07376
464	0.07224
465	0.06779
466	0.06908
467	0.0752
468	0.07742
469	0.07335
470	0.07025
471	0.07262
472	0.077
473	0.07776
474	0.0756
475	0.07653
476	0.08229
477	0.08715
478	0.0858
479	0.08228
480	0.08467
481	0.09175
482	0.09405
483	0.08967
484	0.08706
485	0.09143
486	0.09723
487	0.09748
488	0.09386
489	0.09486
490	0.10108
491	0.10444
492	0.10084
493	0.09719
494	0.10052
495	0.10711
496	0.10893
497	0.1055
498	0.10412
499	0.10815
500	0.11218
501	0.11083
502	0.1068
503	0.10716
504	0.1119
505	0.11434
506	0.11186
507	0.10951
508	0.112
509	0.11619
510	0.11615
511	0.11215
512	0.11124
513	0.11604
514	0.12033
515	0.11841
516	0.11436
517	0.11597
518	0.12266
519	0.12542
520	0.12231
521	0.12056
522	0.12449
523	0.12996
524	0.13109
525	0.1287
526	0.12908
527	0.13431
528	0.1388
529	0.13831
530	0.13612
531	0.13823
532	0.14393
533	0.1466
534	0.14412
535	0.14243
536	0.1463
537	0.15176
538	0.15212
539	0.14842
540	0.14784
541	0.15277
542	0.15685
543	0.15498
544	0.15158
545	0.15305
546	0.15794
547	0.15977
548	0.15723
549	0.15587
550	0.15927
551	0.16399
552	0.1649
553	0.16295
554	0.16348
555	0.16842
556	0.17315
557	0.17343
558	0.17193
559	0.1742
560	0.17998
561	0.18347
562	0.18247
563	0.18193
564	0.18605
565	0.19186
566	0.19361
567	0.19152
568	0.19166
569	0.19651
570	0.20068
571	0.19968
572	0.19663
573	0.19716
574	0.20115
575	0.20305
576	0.20034
577	0.19742
578	0.19855
579	0.20126
580	0.20058
581	0.19641
582	0.19375
583	0.195
584	0.19658
585	0.19478
586	0.19162
587	0.19182
588	0.19575
589	0.19903
590	0.19884
591	0.19771
592	0.1994
593	0.20262
594	0.20222
595	0.19732
596	0.19322
597	0.19342
598	0.19447
599	0.19234
600	0.18822
601	0.18672
602	0.18909
603	0.19128
604	0.19002
605	0.18743
606	0.18742
607	0.18955
608	0.18971
609	0.18622
610	0.18222
611	0.18082
612	0.18008
613	0.17599
614	0.16891
615	0.163
616	0.15984
617	0.15616
618	0.14928
619	0.14188
620	0.13791
621	0.1371
622	0.13495
623	0.12908
624	0.12339
625	0.12165
626	0.12198
627	0.1201
628	0.11579
629	0.11278
630	0.11297
631	0.11376
632	0.11175
633	0.10794
634	0.10641
635	0.10795
636	0.10875
637	0.10638
638	0.10339
639	0.10312
640	0.1047
641	0.10452
642	0.10179
643	0.0997
644	0.1006
645	0.10233
646	0.10131
647	0.09793
648	0.09602
649	0.0975
650	0.09905
651	0.09715
652	0.09401
653	0.09362
654	0.09537
655	0.09508
656	0.09171
657	0.08876
658	0.08913
659	0.09095
660	0.0904
661	0.0874
662	0.08566
663	0.08693
664	0.08838
665	0.08699
666	0.08342
667	0.07844
668	0.07181
669	0.07092
670	0.07366
671	0.07544
672	0.07712
673	0.079
674	0.07853
675	0.07534
676	0.07283
677	0.07337
678	0.0746
679	0.07328
680	0.07033
681	0.06912
682	0.07037
683	0.07129
684	0.0698
685	0.06775
686	0.06798
687	0.07003
688	0.07089
689	0.06954
690	0.06872
691	0.07088
692	0.07459
693	0.07697
694	0.07814
695	0.08108
696	0.08698
697	0.09326
698	0.09714
699	0.09946
700	0.1031
701	0.10821
702	0.11167
703	0.11149
704	0.10966
705	0.10919
706	0.1095
707	0.10745
708	0.10222
709	0.09668
710	0.09318
711	0.0904
712	0.08569
713	0.07922
714	0.07384
715	0.071
716	0.06873
717	0.06473
718	0.05988
719	0.05676
720	0.05588
721	0.05517
722	0.05282
723	0.05015
724	0.04967
725	0.05082
726	0.05044
727	0.04777
728	0.04575
729	0.04651
730	0.04809
731	0.04735
732	0.04498
733	0.04441
734	0.04676
735	0.04939
736	0.05003
737	0.05021
738	0.05274
739	0.05751
740	0.0618
741	0.06436
742	0.06731
743	0.07275
744	0.0796
745	0.08523
746	0.08927
747	0.09398
748	0.10071
749	0.10772
750	0.1126
751	0.11563
752	0.11922
753	0.12415
754	0.12822
755	0.12944
756	0.12903
757	0.12973
758	0.13151
759	0.13125
760	0.12767
761	0.12313
762	0.11985
763	0.117
764	0.11221
765	0.10519
766	0.09848
767	0.09395
768	0.09011
769	0.08472
770	0.07851
771	0.07412
772	0.07213
773	0.07034
774	0.06683
775	0.0627
776	0.06042
777	0.05973
778	0.05772
779	0.05322
780	0.04871
781	0.04656
782	0.04535
783	0.04211
784	0.03671
785	0.03242
786	0.03104
787	0.03004
788	0.0267
789	0.0223
790	0.02008
791	0.02036
792	0.02023
793	0.01792
794	0.01547
795	0.0154
796	0.01689
797	0.01716
798	0.01565
799	0.01461
800	0.01562
801	0.01712
802	0.01663
803	0.01448
804	0.01335
805	0.01428
806	0.01508
807	0.01365
808	0.01136
809	0.0111
810	0.01297
811	0.01407
812	0.01288
813	0.01197
814	0.01399
815	0.01744
816	0.01906
817	0.01849
818	0.01846
819	0.02057
820	0.02291
821	0.02291
822	0.0212
823	0.02061
824	0.02196
825	0.02294
826	0.0218
827	0.02021
828	0.02099
829	0.02389
830	0.02608
831	0.0265
832	0.02751
833	0.03134
834	0.03664
835	0.04028
836	0.04186
837	0.04428
838	0.04915
839	0.05412
840	0.05609
841	0.05626
842	0.05788
843	0.06164
844	0.065
845	0.06619
846	0.06694
847	0.06994
848	0.07509
849	0.07979
850	0.08302
851	0.08695
852	0.0935
853	0.10126
854	0.10734
855	0.11132
856	0.11549
857	0.12085
858	0.12515
859	0.12576
860	0.12334
861	0.12078
862	0.11898
863	0.11572
864	0.10931
865	0.10165
866	0.09598
867	0.09238
868	0.08792
869	0.08154
870	0.07567
871	0.07273
872	0.0716
873	0.06936
874	0.06571
875	0.06325
876	0.06364
877	0.06509
878	0.0652
879	0.06478
880	0.06677
881	0.07221
882	0.07923
883	0.08608
884	0.09252
885	0.09769
886	0.09874
887	0.09345
888	0.08375
889	0.07471
890	0.06964
891	0.06719
892	0.06407
893	0.05992
894	0.05748
895	0.05799
896	0.0592
897	0.05891
898	0.05825
899	0.05992
900	0.06407
901	0.06818
902	0.07069
903	0.07308
904	0.07737
905	0.083
906	0.0876
907	0.09049
908	0.0936
909	0.09837
910	0.10354
911	0.10694
912	0.10885
913	0.11157
914	0.11589
915	0.11987
916	0.12161
917	0.12201
918	0.12325
919	0.12562
920	0.12688
921	0.12564
922	0.12407
923	0.12444
924	0.1261
925	0.12697
926	0.12703
927	0.12843
928	0.13243
929	0.13773
930	0.14247
931	0.14704
932	0.1533
933	0.16153
934	0.16977
935	0.17671
936	0.18359
937	0.19221
938	0.20215
939	0.21123
940	0.21851
941	0.22526
942	0.23256
943	0.23917
944	0.24317
945	0.24475
946	0.24614
947	0.24845
948	0.25042
949	0.25037
950	0.24897
951	0.24828
952	0.2488
953	0.24917
954	0.24881
955	0.24938
956	0.25274
957	0.25845
958	0.26467
959	0.27068
960	0.27751
961	0.28571
962	0.29375
963	0.29947
964	0.30257
965	0.30455
966	0.30589
967	0.30495
968	0.30013
969	0.29236
970	0.28385
971	0.27529
972	0.26552
973	0.25434
974	0.24422
975	0.23795
976	0.23522
977	0.23401
978	0.234
979	0.2367
980	0.24264
981	0.24977
982	0.25574
983	0.26064
984	0.26624
985	0.27303
986	0.27969
987	0.28548
988	0.29202
989	0.30156
990	0.31437
991	0.32903
992	0.34526
993	0.36459
994	0.38824
995	0.41529
996	0.44369
997	0.47286
998	0.50399
999	0.5374
1000	0.57106
1001	0.60274
1002	0.63217
1003	0.66035
1004	0.68703
1005	0.71022
1006	0.72843
1007	0.74247
1008	0.75388
1009	0.76283
1010	0.76844
1011	0.77062
1012	0.771
1013	0.7714
1014	0.77197
1015	0.77177
1016	0.77087
1017	0.77068
1018	0.77208
1019	0.77441
1020	0.7767
1021	0.7793
1022	0.78351
1023	0.7897
1024	0.79689
1025	0.8041
1026	0.81176
1027	0.82129
1028	0.83311
1029	0.84569
1030	0.85774
1031	0.87025
1032	0.88457
1033	0.90004
1034	0.9149
1035	0.92871
1036	0.94231
1037	0.95597
1038	0.96848
1039	0.97859
1040	0.98635
1041	0.99261
1042	0.9975
1043	1
1044	0.99938
1045	0.99625
1046	0.99184
1047	0.9866
1048	0.98014
1049	0.97222
1050	0.96375
1051	0.9557
1052	0.94781
1053	0.93933
1054	0.93039
1055	0.92198
1056	0.91448
1057	0.90682
1058	0.89816
1059	0.88883
1060	0.87976
1061	0.87111
1062	0.86188
1063	0.85139
1064	0.84039
1065	0.82977
1066	0.81941
1067	0.80853
1068	0.79701
1069	0.78564
1070	0.77532
1071	0.76621
1072	0.758
1073	0.75154
1074	0.7488
1075	0.75118
1076	0.75842
1077	0.76948
1078	0.78366
1079	0.80074
1080	0.81987
1081	0.83859
1082	0.85434
1083	0.86637
1084	0.87516
1085	0.88004
1086	0.88004
1087	0.87534
1088	0.86718
1089	0.85671
1090	0.84421
1091	0.82936
1092	0.81263
1093	0.79548
1094	0.77891
1095	0.76264
1096	0.74644
1097	0.73117
1098	0.71791
1099	0.70694
1100	0.69755
1101	0.68889
1102	0.68102
1103	0.67469
1104	0.66971
1105	0.66481
1106	0.6594
1107	0.65435
1108	0.65032
1109	0.64642
1110	0.6414
1111	0.63549
1112	0.62978
1113	0.6245
1114	0.61865
1115	0.61151
1116	0.60344
1117	0.59542
1118	0.58766
1119	0.57938
1120	0.57014
1121	0.56083
1122	0.5526
1123	0.54529
1124	0.53796
1125	0.53048
1126	0.52372
1127	0.51833
1128	0.51385
1129	0.50929
1130	0.50464
1131	0.50091
1132	0.49851
1133	0.49672
1134	0.49468
1135	0.4928
1136	0.49201
1137	0.49213
1138	0.49183
1139	0.49072
1140	0.48988
1141	0.49043
1142	0.49214
1143	0.49419
1144	0.4968
1145	0.50125
1146	0.50843
1147	0.51781
1148	0.52835
1149	0.53999
1150	0.55347
1151	0.56853
1152	0.5836
1153	0.59739
1154	0.60976
1155	0.62086
1156	0.63012
1157	0.63626
1158	0.63851
1159	0.63724
1160	0.6331
1161	0.626
1162	0.61553
1163	0.6021
1164	0.58674
1165	0.57009
1166	0.55194
1167	0.53183
1168	0.51014
1169	0.48801
1170	0.4661
1171	0.44428
1172	0.42249
1173	0.40128
1174	0.38153
1175	0.36369
1176	0.34749
1177	0.33248
1178	0.31911
1179	0.30833
1180	0.30025
1181	0.29411
1182	0.28949
1183	0.28688
1184	0.28676
1185	0.28854
1186	0.29124
1187	0.29465
1188	0.29921
1189	0.30492
1190	0.31061
1191	0.31501
1192	0.31806
1193	0.32049
1194	0.32209
1195	0.32216
1196	0.32048
1197	0.3178
1198	0.31496
1199	0.31213
1200	0.30903
1201	0.30583
1202	0.30342
1203	0.30233
1204	0.30227
1205	0.30267
1206	0.30353
1207	0.30536
1208	0.30806
1209	0.31076
1210	0.31273
1211	0.31406
1212	0.31505
1213	0.31526
1214	0.31381
1215	0.31052
1216	0.30604
1217	0.30103
1218	0.29537
1219	0.28866
1220	0.28131
1221	0.2743
1222	0.26816
1223	0.26255
1224	0.25719
1225	0.2524
1226	0.24879
1227	0.24649
1228	0.24488
1229	0.2435
1230	0.24259
1231	0.24258
1232	0.24319
1233	0.24368
1234	0.24368
1235	0.24371
1236	0.24418
1237	0.24464
1238	0.2445
1239	0.24391
1240	0.24358
1241	0.24381
1242	0.24415
1243	0.24408
1244	0.24391
1245	0.24436
1246	0.24528
1247	0.24588
1248	0.24573
1249	0.24532
1250	0.24513
1251	0.2449
1252	0.24397
1253	0.24229
1254	0.24043
1255	0.23883
1256	0.23715
1257	0.23476
1258	0.23181
1259	0.22899
1260	0.22646
1261	0.22378
1262	0.22064
1263	0.21724
1264	0.21411
1265	0.21124
1266	0.2081
1267	0.20445
1268	0.20082
1269	0.19766
1270	0.19473
1271	0.1913
1272	0.18721
1273	0.18325
1274	0.18009
1275	0.17718
1276	0.17386
1277	0.1703
1278	0.16727
1279	0.16509
1280	0.16328
1281	0.16124
1282	0.1593
1283	0.15816
1284	0.15793
1285	0.15813
1286	0.15854
1287	0.15965
1288	0.1621
1289	0.16573
1290	0.16985
1291	0.17425
1292	0.17939
1293	0.18547
1294	0.19185
1295	0.19772
1296	0.20296
1297	0.20802
1298	0.21294
1299	0.21701
1300	0.21963
1301	0.22109
1302	0.22215
1303	0.22302
1304	0.22325
1305	0.22268
1306	0.22188
1307	0.22148
1308	0.22149
1309	0.22148
1310	0.22147
1311	0.22196
1312	0.22331
1313	0.22536
1314	0.22772
1315	0.23037
1316	0.23385
1317	0.23849
1318	0.24395
1319	0.24985
1320	0.2562
1321	0.26318
1322	0.27064
1323	0.27802
1324	0.28484
1325	0.29114
1326	0.29717
1327	0.30264
1328	0.30695
1329	0.30996
1330	0.31185
1331	0.31279
1332	0.31252
1333	0.31076
1334	0.3075
1335	0.30315
1336	0.29782
1337	0.29155
1338	0.28458
1339	0.27667
1340	0.26818
1341	0.26064
1342	0.2545
1343	0.24879
1344	0.24321
1345	0.23829
1346	0.23423
1347	0.23085
1348	0.22789
1349	0.22533
1350	0.22334
1351	0.22195
1352	0.22089
1353	0.22012
1354	0.21995
1355	0.22057
1356	0.22205
1357	0.22418
1358	0.22685
1359	0.23011
1360	0.2338
1361	0.23766
1362	0.24144
1363	0.24515
1364	0.24897
1365	0.25262
1366	0.25603
1367	0.25926
1368	0.26243
1369	0.26578
1370	0.26929
1371	0.27272
1372	0.2758
1373	0.27831
1374	0.27999
1375	0.28086
1376	0.28115
1377	0.28072
1378	0.27933
1379	0.27728
1380	0.27505
1381	0.27268
1382	0.27029
1383	0.26806
1384	0.26615
1385	0.26474
1386	0.2636
1387	0.26219
1388	0.26093
1389	0.26075
1390	0.26111
1391	0.26161
1392	0.26239
1393	0.26333
1394	0.26402
1395	0.26444
1396	0.26516
1397	0.2662
1398	0.26698
1399	0.26727
1400	0.26765
1401	0.26822
1402	0.26855
1403	0.26857
1404	0.26815
1405	0.26695
1406	0.26554
1407	0.26417
1408	0.26218
1409	0.25957
1410	0.25645
1411	0.25271
1412	0.24832
1413	0.24374
1414	0.23934
1415	0.23495
1416	0.23038
1417	0.2258
1418	0.22132
1419	0.21563
1420	0.20973
1421	0.20643
1422	0.20437
1423	0.20181
1424	0.19859
1425	0.19587
1426	0.19395
1427	0.19217
1428	0.19051
1429	0.18872
1430	0.18619
1431	0.18391
1432	0.18245
1433	0.18121
1434	0.18041
1435	0.18031
1436	0.18
1437	0.17959
1438	0.18088
1439	0.18303
1440	0.18538
1441	0.18807
1442	0.19125
1443	0.1948
1444	0.19837
1445	0.20178
1446	0.20504
1447	0.2082
1448	0.21131
1449	0.21413
1450	0.2163
1451	0.21788
1452	0.21909
1453	0.22017
1454	0.22104
1455	0.22158
1456	0.22158
1457	0.2209
1458	0.22014
1459	0.21964
1460	0.21948
1461	0.21937
1462	0.21903
1463	0.21836
1464	0.21681
1465	0.21346
1466	0.21049
1467	0.20878
1468	0.20656
1469	0.20381
1470	0.20133
1471	0.19891
1472	0.1945
1473	0.1876
1474	0.18196
1475	0.17854
1476	0.17436
1477	0.16946
1478	0.16572
1479	0.16282
1480	0.16014
1481	0.15725
1482	0.15389
1483	0.15015
1484	0.14593
1485	0.14145
1486	0.13655
1487	0.12977
1488	0.12229
1489	0.11663
1490	0.10971
1491	0.10261
1492	0.09876
1493	0.09609
1494	0.09394
1495	0.09231
1496	0.09001
1497	0.08733
1498	0.08581
1499	0.08478
1500	0.08427
1501	0.08408
1502	0.08364
1503	0.08367
1504	0.08462
1505	0.08598
1506	0.08636
1507	0.0853
1508	0.08545
1509	0.08682
1510	0.08833
1511	0.08955
1512	0.09045
1513	0.09174
1514	0.09365
1515	0.09553
1516	0.09682
1517	0.09735
1518	0.09887
1519	0.10117
1520	0.10287
1521	0.10327
1522	0.10327
1523	0.10497
1524	0.1069
1525	0.10782
1526	0.10807
1527	0.10867
1528	0.10979
1529	0.11105
1530	0.11209
1531	0.11284
1532	0.11361
1533	0.11427
1534	0.11455
1535	0.11494
1536	0.1157
1537	0.1169
1538	0.11837
1539	0.11871
1540	0.11641
1541	0.11542
1542	0.11517
1543	0.11514
1544	0.11475
1545	0.11254
1546	0.11045
1547	0.11009
1548	0.11003
1549	0.10883
1550	0.10593
1551	0.10356
1552	0.1033
1553	0.10337
1554	0.10215
1555	0.10062
1556	0.10098
1557	0.10249
1558	0.10328
1559	0.10075
1560	0.09876
1561	0.09952
1562	0.10044
1563	0.10027
1564	0.09851
1565	0.09539
1566	0.09299
1567	0.09196
1568	0.091
1569	0.08802
1570	0.08272
1571	0.08065
1572	0.0799
1573	0.07845
1574	0.07697
1575	0.07586
1576	0.0739
1577	0.07143
1578	0.07058
1579	0.07041
1580	0.07071
1581	0.07148
1582	0.07218
1583	0.07263
1584	0.07349
1585	0.07524
1586	0.07752
1587	0.07956
1588	0.08126
1589	0.08326
1590	0.08596
1591	0.08872
1592	0.09083
1593	0.09245
1594	0.09431
1595	0.09663
1596	0.0987
1597	0.09998
1598	0.10098
1599	0.10255
1600	0.10454
1601	0.10615
1602	0.10711
1603	0.10806
1604	0.10974
1605	0.11181
1606	0.11347
1607	0.11461
1608	0.11594
1609	0.11779
1610	0.11974
1611	0.12133
1612	0.12272
1613	0.12458
1614	0.12719
1615	0.12993
1616	0.1316
1617	0.13229
1618	0.13386
1619	0.13594
1620	0.1376
1621	0.13879
1622	0.1399
1623	0.14097
1624	0.14226
1625	0.14374
1626	0.14493
1627	0.14586
1628	0.14706
1629	0.14858
1630	0.14961
1631	0.1502
1632	0.15108
1633	0.15265
1634	0.15421
1635	0.15406
1636	0.15227
1637	0.15162
1638	0.15209
1639	0.15225
1640	0.15174
1641	0.15098
1642	0.15071
1643	0.15095
1644	0.15125
1645	0.15108
1646	0.14984
1647	0.14798
1648	0.14664
1649	0.14616
1650	0.14646
1651	0.14724
1652	0.14793
1653	0.14656
1654	0.14483
1655	0.14677
1656	0.14903
1657	0.1513
1658	0.1534
1659	0.15534
1660	0.15767
1661	0.16083
1662	0.16451
1663	0.16819
1664	0.17161
1665	0.17504
1666	0.17905
1667	0.18329
1668	0.18697
1669	0.19023
1670	0.19373
1671	0.19739
1672	0.20105
1673	0.20419
1674	0.2065
1675	0.20866
1676	0.2118
1677	0.2146
1678	0.2164
1679	0.21765
1680	0.21884
1681	0.22059
1682	0.22243
1683	0.22322
1684	0.22106
1685	0.21695
1686	0.2164
1687	0.21571
1688	0.21317
1689	0.20946
1690	0.20569
1691	0.20194
1692	0.19792
1693	0.1939
1694	0.19062
1695	0.18667
1696	0.17867
1697	0.17198
1698	0.16947
1699	0.16807
1700	0.16271
1701	0.15614
1702	0.15552
1703	0.15615
1704	0.1569
1705	0.15833
1706	0.16001
1707	0.16202
1708	0.16527
1709	0.1695
1710	0.17443
1711	0.17953
1712	0.18433
1713	0.18933
1714	0.1951
1715	0.2017
1716	0.20766
1717	0.21253
1718	0.21851
1719	0.22513
1720	0.23026
1721	0.23448
1722	0.23873
1723	0.24343
1724	0.2484
1725	0.25276
1726	0.25625
1727	0.25958
1728	0.26315
1729	0.26644
1730	0.26879
1731	0.27085
1732	0.27308
1733	0.2749
1734	0.27465
1735	0.27394
1736	0.27498
1737	0.27598
1738	0.27663
1739	0.27605
1740	0.2734
1741	0.2711
1742	0.27024
1743	0.2687
1744	0.26628
1745	0.26427
1746	0.26289
1747	0.26173
1748	0.26034
1749	0.25882
1750	0.25753
1751	0.25593
1752	0.25471
1753	0.25451
1754	0.25438
1755	0.25408
1756	0.25367
1757	0.25316
1758	0.25318
1759	0.25363
1760	0.25427
1761	0.25477
1762	0.25494
1763	0.25538
1764	0.25589
1765	0.25619
1766	0.25661
1767	0.25667
1768	0.25541
1769	0.25383
1770	0.25343
1771	0.25312
1772	0.25131
1773	0.24922
1774	0.24897
1775	0.24993
1776	0.25145
1777	0.2535
1778	0.25585
1779	0.25858
1780	0.26206
1781	0.26644
1782	0.27095
1783	0.27499
1784	0.2789
1785	0.28321
1786	0.28745
1787	0.29054
1788	0.29265
1789	0.29434
1790	0.29555
1791	0.2956
1792	0.29325
1793	0.28876
1794	0.28507
1795	0.28154
1796	0.27591
1797	0.26901
1798	0.26243
1799	0.25494
1800	0.24587
1801	0.23651
1802	0.22666
1803	0.21661
1804	0.20764
1805	0.19901
1806	0.18992
1807	0.18035
1808	0.17096
1809	0.16295
1810	0.15521
1811	0.14616
1812	0.13776
1813	0.13106
1814	0.12534
1815	0.12001
1816	0.11462
1817	0.10924
1818	0.10445
1819	0.10069
1820	0.09727
1821	0.09367
1822	0.09026
1823	0.0876
1824	0.08539
1825	0.08231
1826	0.07889
1827	0.07683
1828	0.07578
1829	0.07412
1830	0.07105
1831	0.06836
1832	0.06694
1833	0.06589
1834	0.06467
1835	0.06323
1836	0.06156
1837	0.05999
1838	0.05887
1839	0.05791
1840	0.05665
1841	0.0553
1842	0.05464
1843	0.05419
1844	0.05254
1845	0.05024
1846	0.04943
1847	0.0491
1848	0.04846
1849	0.04755
1850	0.04655
1851	0.0457
1852	0.04518
1853	0.04471
1854	0.04392
1855	0.04298
1856	0.04229
1857	0.04195
1858	0.04155
1859	0.04077
1860	0.0399
1861	0.03938
1862	0.03916
1863	0.03883
1864	0.03821
1865	0.03767
1866	0.03756
1867	0.03763
1868	0.03715
1869	0.03581
1870	0.03485
1871	0.03488
1872	0.03503
1873	0.03471
1874	0.03406
1875	0.03362
1876	0.03353
1877	0.03339
1878	0.03293
1879	0.03233
1880	0.03199
1881	0.0319
1882	0.03168
1883	0.03118
1884	0.03066
1885	0.03039
1886	0.03028
1887	0.03007
1888	0.02967
1889	0.02904
1890	0.02851
1891	0.02839
1892	0.02817
1893	0.02775
1894	0.02742
1895	0.02717
1896	0.02687
1897	0.02649
1898	0.02606
1899	0.02581
1900	0.02575
1901	0.02552
1902	0.02501
1903	0.02453
1904	0.02433
1905	0.0243
1906	0.02412
1907	0.02367
1908	0.02326
1909	0.02307
1910	0.02291
1911	0.02258
1912	0.02216
1913	0.02186
1914	0.02179
1915	0.02177
1916	0.02168
1917	0.02131
1918	0.02062
1919	0.02038
1920	0.02055
1921	0.02052
1922	0.02009
1923	0.01958
1924	0.01951
1925	0.01954
1926	0.01927
1927	0.01897
1928	0.01894
1929	0.01897
1930	0.0188
1931	0.01848
1932	0.01829
1933	0.01832
1934	0.01836
1935	0.01817
1936	0.01783
1937	0.01765
1938	0.01769
1939	0.01777
1940	0.01772
1941	0.01759
1942	0.01731
1943	0.01706
1944	0.01703
1945	0.01686
1946	0.01652
1947	0.01646
1948	0.0166
1949	0.01651
1950	0.01622
1951	0.01602
1952	0.01602
1953	0.01607
1954	0.01591
1955	0.01562
1956	0.01548
1957	0.01553
1958	0.01554
1959	0.01535
1960	0.01509
1961	0.01497
1962	0.015
1963	0.01499
1964	0.01485
1965	0.01474
1966	0.01474
1967	0.01467
1968	0.01446
1969	0.01426
1970	0.01419
1971	0.01426
1972	0.01437
1973	0.01428
1974	0.01403
1975	0.0139
1976	0.01405
1977	0.01423
1978	0.0142
1979	0.01403
1980	0.01403
1981	0.01421
1982	0.01431
1983	0.0142
1984	0.01406
1985	0.01411
1986	0.01434
1987	0.01447
1988	0.01435
1989	0.01426
1990	0.01446
1991	0.01467
1992	0.01448
1993	0.01421
1994	0.01421
1995	0.01442
1996	0.01462
1997	0.01465
1998	0.0145
1999	0.0144
2000	0.01449
2001	0.01463
2002	0.0146
2003	0.01447
2004	0.01446
2005	0.01457
2006	0.01469
2007	0.01463
2008	0.01452
2009	0.01455
2010	0.01474
2011	0.01487
2012	0.01486
2013	0.01486
2014	0.01503
2015	0.01531
2016	0.01541
2017	0.01528
2018	0.01521
2019	0.0154
2020	0.01568
2021	0.01583
2022	0.01584
2023	0.01591
2024	0.01618
2025	0.01646
2026	0.01657
2027	0.01657
2028	0.0167
2029	0.01695
2030	0.01719
2031	0.01728
2032	0.01732
2033	0.01743
2034	0.01767
2035	0.01789
2036	0.01798
2037	0.01804
2038	0.01824
2039	0.01858
2040	0.01883
2041	0.01888
2042	0.01892
2043	0.01912
2044	0.01941
2045	0.01961
2046	0.01968
2047	0.01977
2048	0.02001
2049	0.02029
2050	0.02044
2051	0.02044
2052	0.0205
2053	0.02071
2054	0.02092
2055	0.021
2056	0.02097
2057	0.02103
2058	0.02121
2059	0.02134
2060	0.0213
2061	0.02122
2062	0.02131
2063	0.02151
2064	0.02154
2065	0.02137
2066	0.02124
2067	0.02134
2068	0.02153
2069	0.02159
2070	0.02152
2071	0.02146
2072	0.0215
2073	0.02159
2074	0.02159
2075	0.0215
2076	0.02148
2077	0.02157
2078	0.02165
2079	0.0216
2080	0.02154
2081	0.02157
2082	0.02169
2083	0.02176
2084	0.02169
2085	0.02164
2086	0.02172
2087	0.02186
2088	0.0219
2089	0.02177
2090	0.02163
2091	0.02165
2092	0.0218
2093	0.0218
2094	0.02165
2095	0.02157
2096	0.02165
2097	0.02175
2098	0.02168
2099	0.02148
2100	0.0214
2101	0.02153
2102	0.02164
2103	0.02156
2104	0.02141
2105	0.02139
2106	0.02148
2107	0.0215
2108	0.02137
2109	0.02124
2110	0.02129
2111	0.02143
2112	0.02142
2113	0.02127
2114	0.02121
2115	0.02131
2116	0.02143
2117	0.02137
2118	0.02117
2119	0.02104
2120	0.02113
2121	0.02124
2122	0.0212
2123	0.02101
2124	0.02095
2125	0.02104
2126	0.02107
2127	0.02091
2128	0.02072
2129	0.02075
2130	0.02092
2131	0.02096
2132	0.02075
2133	0.02055
2134	0.02058
2135	0.02071
2136	0.02064
2137	0.02038
2138	0.02025
2139	0.02035
2140	0.02046
2141	0.02037
2142	0.02013
2143	0.02003
2144	0.02016
2145	0.02027
2146	0.02016
2147	0.01998
2148	0.02
2149	0.02018
2150	0.02026
2151	0.02011
2152	0.01993
2153	0.01998
2154	0.02018
2155	0.0202
2156	0.01997
2157	0.01981
2158	0.01994
2159	0.02015
2160	0.02012
2161	0.01987
2162	0.01969
2163	0.0198
2164	0.02001
2165	0.01992
2166	0.01959
2167	0.01948
2168	0.01967
2169	0.01976
2170	0.01954
2171	0.01926
2172	0.01924
2173	0.0194
2174	0.0194
2175	0.01913
2176	0.0189
2177	0.01895
2178	0.01912
2179	0.01908
2180	0.01877
2181	0.01856
2182	0.01863
2183	0.01875
2184	0.01862
2185	0.01833
2186	0.01823
2187	0.01838
2188	0.01845
2189	0.01825
2190	0.01795
2191	0.0179
2192	0.01808
2193	0.01812
2194	0.01791
2195	0.01767
2196	0.01766
2197	0.01776
2198	0.01772
2199	0.01749
2200	0.01728
2201	0.01738
2202	0.01755
2203	0.01752
2204	0.01726
2205	0.01711
2206	0.01722
2207	0.01734
2208	0.01716
2209	0.01687
2210	0.01681
2211	0.01701
2212	0.01712
2213	0.01696
2214	0.01675
2215	0.0168
2216	0.01703
2217	0.01709
2218	0.01686
2219	0.01668
2220	0.01679
2221	0.01705
2222	0.01706
2223	0.01683
2224	0.01671
2225	0.01687
2226	0.01701
2227	0.01693
2228	0.01672
2229	0.01667
2230	0.01683
2231	0.01697
2232	0.01683
2233	0.01661
2234	0.01661
2235	0.0168
2236	0.01686
2237	0.0167
2238	0.01653
2239	0.01659
2240	0.01676
2241	0.01673
2242	0.0165
2243	0.01636
2244	0.01651
2245	0.01669
2246	0.01658
2247	0.01628
2248	0.01616
2249	0.0163
2250	0.01639
2251	0.01622
2252	0.01595
2253	0.0159
2254	0.01601
2255	0.01603
2256	0.01582
2257	0.01562
2258	0.01563
2259	0.01573
2260	0.01568
2261	0.01546
2262	0.01534
2263	0.01542
2264	0.01552
2265	0.01539
2266	0.01515
2267	0.01507
2268	0.01523
2269	0.01533
2270	0.01514
2271	0.01486
2272	0.01485
2273	0.01506
2274	0.01513
2275	0.01497
2276	0.0148
2277	0.0149
2278	0.01514
2279	0.01522
2280	0.01514
2281	0.01512
2282	0.01531
2283	0.01552
2284	0.01546
2285	0.01516
2286	0.01493
2287	0.01489
2288	0.01483
2289	0.01452
2290	0.01414
2291	0.01397
2292	0.01405
2293	0.01394
2294	0.01348
2295	0.01304
2296	0.01282
2297	0.01277
2298	0.01252
2299	0.01203
2300	0.01157
2301	0.01156
2302	0.01155
2303	0.01154
2304	0.01152
2305	0.01151
2306	0.0115
2307	0.01149
2308	0.01148
2309	0.01147
2310	0.01146
2311	0.01145
2312	0.01144
2313	0.01142
2314	0.01141
2315	0.0114
2316	0.01139
2317	0.01138
2318	0.01137
2319	0.01136
2320	0.01135
2321	0.01133
2322	0.01132
2323	0.01131
2324	0.0113
2325	0.01129
2326	0.01128
2327	0.01127
2328	0.01126
2329	0.01124
2330	0.01123
2331	0.01122
2332	0.01121
2333	0.0112
2334	0.01119
2335	0.01118
2336	0.01117
2337	0.01115
2338	0.01114
2339	0.01113
2340	0.01112
2341	0.01111
2342	0.0111
2343	0.01109
2344	0.01108
2345	0.01106
2346	0.01105
2347	0.01104
2348	0.01103
2349	0.01102
2350	0.01101
2351	0.011
2352	0.01099
2353	0.01097
2354	0.01096
2355	0.01095
2356	0.01094
2357	0.01093
2358	0.01092
2359	0.01091
2360	0.0109
2361	0.01088
2362	0.01087
2363	0.01086
2364	0.01085
2365	0.01084
2366	0.01083
2367	0.01082
2368	0.01081
2369	0.01079
2370	0.01078
2371	0.01077
2372	0.01076
2373	0.01075
2374	0.01074
2375	0.01073
2376	0.01072
2377	0.0107
2378	0.01069
2379	0.01068
2380	0.01067
2381	0.01066
2382	0.01065
2383	0.01064
2384	0.01063
2385	0.01101
2386	0.01156
2387	0.01216
2388	0.01257
2389	0.01262
2390	0.0125
2391	0.01251
2392	0.01266
2393	0.01271
2394	0.01259
2395	0.01246
2396	0.01251
2397	0.01263
2398	0.01258
2399	0.0124
2400	0.01234
2401	0.01248
2402	0.01257
2403	0.01247
2404	0.01229
2405	0.0123
2406	0.01246
2407	0.01257
2408	0.01249
2409	0.01236
2410	0.01242
2411	0.01255
2412	0.01256
2413	0.01236
2414	0.01222
2415	0.01231
2416	0.01243
2417	0.01239
2418	0.01221
2419	0.01212
2420	0.01219
2421	0.01228
2422	0.01224
2423	0.01207
2424	0.01202
2425	0.01211
2426	0.01217
2427	0.01208
2428	0.01193
2429	0.01195
2430	0.01211
2431	0.01214
2432	0.01199
2433	0.01186
2434	0.01193
2435	0.01208
2436	0.01206
2437	0.01187
2438	0.01178
2439	0.0119
2440	0.01205
2441	0.01202
2442	0.01188
2443	0.01187
2444	0.01201
2445	0.01214
2446	0.01209
2447	0.01196
2448	0.01198
2449	0.01216
2450	0.01228
2451	0.01222
2452	0.0121
2453	0.01213
2454	0.01228
2455	0.01234
2456	0.01229
2457	0.01227
2458	0.01235
2459	0.01248
2460	0.01246
2461	0.01236
2462	0.01231
2463	0.01245
2464	0.01255
2465	0.01244
2466	0.01226
2467	0.01225
2468	0.01241
2469	0.0125
2470	0.01238
2471	0.01224
2472	0.01227
2473	0.01239
2474	0.0124
2475	0.01225
2476	0.01213
2477	0.01215
2478	0.01222
2479	0.01218
2480	0.01204
2481	0.012
2482	0.01209
2483	0.01214
2484	0.01204
2485	0.01188
2486	0.01187
2487	0.01199
2488	0.01203
2489	0.01189
2490	0.01176
2491	0.01182
2492	0.01192
2493	0.01189
2494	0.01172
2495	0.01161
2496	0.01165
2497	0.01173
2498	0.01171
2499	0.01156
2500	0.01147
2501	0.01151
2502	0.01157
2503	0.0115
2504	0.01138
2505	0.01136
2506	0.01146
2507	0.01152
2508	0.0114
2509	0.01126
2510	0.01125
2511	0.01138
2512	0.01142
2513	0.01133
2514	0.01123
2515	0.01124
2516	0.01134
2517	0.01135
2518	0.01123
2519	0.01115
2520	0.01124
2521	0.01138
2522	0.01135
2523	0.01118
2524	0.01106
2525	0.01109
2526	0.01115
2527	0.01109
2528	0.01096
2529	0.01092
2530	0.011
2531	0.01107
2532	0.011
2533	0.01088
2534	0.01086
2535	0.01096
2536	0.011
2537	0.01093
2538	0.01089
2539	0.01096
2540	0.01101
2541	0.01092
2542	0.0108
2543	0.0108
2544	0.01088
2545	0.01097
2546	0.01101
2547	0.01104
2548	0.01111
2549	0.01124
2550	0.01133
2551	0.01132
2552	0.01131
2553	0.01138
2554	0.0115
2555	0.01158
2556	0.01159
2557	0.0116
2558	0.01165
2559	0.01172
2560	0.01176
2561	0.01178
2562	0.01181
2563	0.0119
2564	0.012
2565	0.01201
2566	0.01197
2567	0.012
2568	0.01208
2569	0.01213
2570	0.01209
2571	0.01203
2572	0.01206
2573	0.01214
2574	0.01221
2575	0.01221
2576	0.01219
2577	0.01223
2578	0.01232
2579	0.01234
2580	0.01235
2581	0.01241
2582	0.01253
2583	0.01265
2584	0.01267
2585	0.01266
2586	0.01272
2587	0.01287
2588	0.01297
2589	0.01303
2590	0.01313
2591	0.01325
2592	0.01334
2593	0.01338
2594	0.01339
2595	0.01344
2596	0.01356
2597	0.01368
2598	0.01369
2599	0.01365
2600	0.01363
2601	0.0137
2602	0.01375
2603	0.01371
2604	0.01364
2605	0.01368
2606	0.01375
2607	0.01377
2608	0.0137
2609	0.01365
2610	0.01365
2611	0.01368
2612	0.0137
2613	0.0137
2614	0.01374
2615	0.01384
2616	0.01392
2617	0.01387
2618	0.01377
2619	0.01372
2620	0.01372
2621	0.01374
2622	0.01371
2623	0.01366
2624	0.01369
2625	0.01381
2626	0.0139
2627	0.01389
2628	0.01379
2629	0.01372
2630	0.01371
2631	0.0137
2632	0.01372
2633	0.01373
2634	0.01377
2635	0.0138
2636	0.01378
2637	0.01378
2638	0.01376
2639	0.01371
2640	0.01365
2641	0.01354
2642	0.0134
2643	0.0133
2644	0.01326
2645	0.01323
2646	0.01315
2647	0.01306
2648	0.01298
2649	0.01296
2650	0.01297
2651	0.01295
2652	0.01287
2653	0.01282
2654	0.01282
2655	0.0128
2656	0.01272
2657	0.01262
2658	0.01258
2659	0.01258
2660	0.01253
2661	0.01242
2662	0.01233
2663	0.01232
2664	0.0123
2665	0.01222
2666	0.0121
2667	0.012
2668	0.01201
2669	0.01201
2670	0.01191
2671	0.01176
2672	0.01169
2673	0.01172
2674	0.01166
2675	0.01152
2676	0.01145
2677	0.01144
2678	0.01144
2679	0.01144
2680	0.01144
2681	0.01131
2682	0.01109
2683	0.0109
2684	0.01077
2685	0.01064
2686	0.01054
2687	0.01051
2688	0.01054
2689	0.01052
2690	0.01043
2691	0.01033
2692	0.01031
2693	0.01033
2694	0.01029
2695	0.0102
2696	0.01015
2697	0.01022
2698	0.01034
2699	0.01039
2700	0.01032
2701	0.01024
2702	0.01022
2703	0.01023
2704	0.01021
2705	0.0102
2706	0.01021
2707	0.01025
2708	0.0103
2709	0.01035
2710	0.0104
2711	0.01044
2712	0.01047
2713	0.01048
2714	0.01048
2715	0.01053
2716	0.01063
2717	0.01071
2718	0.01078
2719	0.01084
2720	0.01093
2721	0.0111
2722	0.01131
2723	0.01142
2724	0.01152
2725	0.01175
2726	0.012
2727	0.01211
2728	0.01208
2729	0.01205
2730	0.01215
2731	0.01236
2732	0.01255
2733	0.0127
2734	0.01284
2735	0.01305
2736	0.01334
2737	0.01361
2738	0.0138
2739	0.01396
2740	0.01417
2741	0.01437
2742	0.01461
2743	0.01483
2744	0.01504
2745	0.01529
2746	0.01559
2747	0.01591
2748	0.01618
2749	0.01635
2750	0.01648
2751	0.01654
2752	0.01656
2753	0.01664
2754	0.01677
2755	0.01692
2756	0.017
2757	0.01702
2758	0.01705
2759	0.01707
2760	0.01704
2761	0.01698
2762	0.01694
2763	0.0169
2764	0.01687
2765	0.01685
2766	0.01681
2767	0.01673
2768	0.01664
2769	0.0166
2770	0.0166
2771	0.01665
2772	0.01673
2773	0.01685
2774	0.01699
2775	0.01713
2776	0.01717
2777	0.01714
2778	0.01717
2779	0.01728
2780	0.01744
2781	0.0176
2782	0.01783
2783	0.01807
2784	0.01829
2785	0.01855
2786	0.01887
2787	0.01925
2788	0.01974
2789	0.02022
2790	0.02056
2791	0.02089
2792	0.02129
2793	0.02168
2794	0.02217
2795	0.02286
2796	0.02372
2797	0.02473
2798	0.02595
2799	0.02726
2800	0.02869
2801	0.03045
2802	0.03264
2803	0.03526
2804	0.03828
2805	0.04164
2806	0.04536
2807	0.0494
2808	0.05368
2809	0.05812
2810	0.06248
2811	0.06659
2812	0.0705
2813	0.07431
2814	0.07795
2815	0.0813
2816	0.08444
2817	0.08735
2818	0.09
2819	0.09248
2820	0.09481
2821	0.09708
2822	0.0994
2823	0.10175
2824	0.10412
2825	0.10655
2826	0.10911
2827	0.11184
2828	0.11472
2829	0.11769
2830	0.1208
2831	0.12402
2832	0.12719
2833	0.13014
2834	0.13285
2835	0.13527
2836	0.13729
2837	0.13889
2838	0.14006
2839	0.14059
2840	0.14051
2841	0.13992
2842	0.13904
2843	0.13796
2844	0.13679
2845	0.13566
2846	0.13484
2847	0.13438
2848	0.13402
2849	0.13341
2850	0.13229
2851	0.13062
2852	0.12849
2853	0.12614
2854	0.1238
2855	0.12159
2856	0.11948
2857	0.1175
2858	0.11573
2859	0.1143
2860	0.11311
2861	0.11209
2862	0.11139
2863	0.11127
2864	0.11175
2865	0.11268
2866	0.11394
2867	0.11553
2868	0.11748
2869	0.11993
2870	0.12278
2871	0.12596
2872	0.12943
2873	0.13307
2874	0.13674
2875	0.14035
2876	0.14386
2877	0.14745
2878	0.15121
2879	0.15509
2880	0.159
2881	0.16288
2882	0.16677
2883	0.17074
2884	0.17482
2885	0.17895
2886	0.18305
2887	0.18718
2888	0.19139
2889	0.1956
2890	0.1997
2891	0.2037
2892	0.20765
2893	0.21149
2894	0.21519
2895	0.2188
2896	0.22219
2897	0.22508
2898	0.22758
2899	0.22989
2900	0.23198
2901	0.23383
2902	0.23558
2903	0.23725
2904	0.23877
2905	0.2402
2906	0.24175
2907	0.24362
2908	0.2458
2909	0.24828
2910	0.25114
2911	0.25454
2912	0.25858
2913	0.26329
2914	0.26846
2915	0.27392
2916	0.27953
2917	0.28507
2918	0.29026
2919	0.295
2920	0.29936
2921	0.3035
2922	0.30739
2923	0.311
2924	0.3143
2925	0.31723
2926	0.31977
2927	0.32189
2928	0.32367
2929	0.32517
2930	0.32646
2931	0.32742
2932	0.32806
2933	0.32846
2934	0.32865
2935	0.32865
2936	0.32844
2937	0.32794
2938	0.32704
2939	0.32571
2940	0.32391
2941	0.32161
2942	0.3188
2943	0.31553
2944	0.3118
2945	0.30757
2946	0.30282
2947	0.2977
2948	0.29233
2949	0.28684
2950	0.28144
2951	0.27617
2952	0.27103
2953	0.26597
2954	0.2609
2955	0.25596
2956	0.25128
2957	0.24679
2958	0.24247
2959	0.23834
2960	0.23441
2961	0.23058
2962	0.22687
2963	0.22332
2964	0.21995
2965	0.21672
2966	0.21358
2967	0.2105
2968	0.2075
2969	0.20465
2970	0.20195
2971	0.19939
2972	0.197
2973	0.19483
2974	0.19289
2975	0.19106
2976	0.1892
2977	0.18747
2978	0.18601
2979	0.18468
2980	0.18335
2981	0.182
2982	0.18063
2983	0.17924
2984	0.1778
2985	0.17638
2986	0.17494
2987	0.17343
2988	0.17182
2989	0.17011
2990	0.16831
2991	0.16639
2992	0.1643
2993	0.16201
2994	0.15952
2995	0.15693
2996	0.15438
2997	0.15194
2998	0.14937
2999	0.14656
3000	0.14358
3001	0.14062
3002	0.13776
3003	0.13499
3004	0.13215
3005	0.12916
3006	0.12629
3007	0.12357
3008	0.12089
3009	0.11826
3010	0.11571
3011	0.11321
3012	0.11073
3013	0.10831
3014	0.10596
3015	0.10367
3016	0.10146
3017	0.09936
3018	0.09735
3019	0.09542
3020	0.09362
3021	0.09198
3022	0.09046
3023	0.08904
3024	0.08773
3025	0.08649
3026	0.08524
3027	0.08403
3028	0.08299
3029	0.08223
3030	0.08152
3031	0.08072
3032	0.07996
3033	0.07935
3034	0.07875
3035	0.07808
3036	0.07735
3037	0.07666
3038	0.07613
3039	0.07576
3040	0.07547
3041	0.07515
3042	0.07475
3043	0.07433
3044	0.07388
3045	0.07342
3046	0.07295
3047	0.07243
3048	0.07193
3049	0.07161
3050	0.07146
3051	0.07122
3052	0.07076
3053	0.07031
3054	0.07008
3055	0.06988
3056	0.06951
3057	0.06905
3058	0.06863
3059	0.06822
3060	0.06782
3061	0.06743
3062	0.06712
3063	0.06685
3064	0.06652
3065	0.06622
3066	0.066
3067	0.06574
3068	0.06534
3069	0.06485
3070	0.06437
3071	0.06393
3072	0.06347
3073	0.06306
3074	0.06276
3075	0.06255
3076	0.06238
3077	0.06224
3078	0.06211
3079	0.06192
3080	0.06165
3081	0.0613
3082	0.061
3083	0.06085
3084	0.06076
3085	0.06056
3086	0.06028
3087	0.06015
3088	0.06016
3089	0.06023
3090	0.06035
3091	0.06039
3092	0.06027
3093	0.06015
3094	0.06012
3095	0.06013
3096	0.06025
3097	0.06052
3098	0.06088
3099	0.06125
3100	0.06149
3101	0.06162
3102	0.06179
3103	0.06202
3104	0.06233
3105	0.06275
3106	0.06331
3107	0.064
3108	0.06477
3109	0.06542
3110	0.06591
3111	0.06645
3112	0.06717
3113	0.06798
3114	0.06883
3115	0.06971
3116	0.0705
3117	0.07118
3118	0.07178
3119	0.07229
3120	0.07286
3121	0.07347
3122	0.07394
3123	0.07429
3124	0.07472
3125	0.07528
3126	0.07581
3127	0.07629
3128	0.07684
3129	0.07749
3130	0.0782
3131	0.07886
3132	0.07942
3133	0.07991
3134	0.08047
3135	0.08119
3136	0.08198
3137	0.08281
3138	0.08364
3139	0.08446
3140	0.08523
3141	0.08588
3142	0.08641
3143	0.08705
3144	0.08789
3145	0.08878
3146	0.08961
3147	0.09043
3148	0.09126
3149	0.09216
3150	0.09313
3151	0.09419
3152	0.09524
3153	0.0962
3154	0.09702
3155	0.09786
3156	0.09872
3157	0.09957
3158	0.10048
3159	0.10147
3160	0.10245
3161	0.10345
3162	0.10449
3163	0.10555
3164	0.1066
3165	0.10765
3166	0.10873
3167	0.10993
3168	0.1112
3169	0.11249
3170	0.11372
3171	0.11495
3172	0.11628
3173	0.11771
3174	0.11919
3175	0.12067
3176	0.12218
3177	0.12367
3178	0.12518
3179	0.12671
3180	0.1282
3181	0.12968
3182	0.13125
3183	0.1329
3184	0.13447
3185	0.13595
3186	0.13744
3187	0.13899
3188	0.1406
3189	0.14223
3190	0.14378
3191	0.14531
3192	0.1469
3193	0.14841
3194	0.14989
3195	0.15142
3196	0.15293
3197	0.15437
3198	0.15576
3199	0.15719
3200	0.15869
3201	0.1602
3202	0.16161
3203	0.16288
3204	0.16411
3205	0.16543
3206	0.1668
3207	0.1681
3208	0.16925
3209	0.17034
3210	0.17146
3211	0.17266
3212	0.1739
3213	0.17504
3214	0.17608
3215	0.1771
3216	0.17816
3217	0.17926
3218	0.18043
3219	0.18158
3220	0.18271
3221	0.1839
3222	0.18501
3223	0.1861
3224	0.18724
3225	0.18843
3226	0.18964
3227	0.19085
3228	0.19214
3229	0.19354
3230	0.19504
3231	0.19662
3232	0.19818
3233	0.19972
3234	0.20121
3235	0.20258
3236	0.20377
3237	0.20499
3238	0.20648
3239	0.20817
3240	0.20983
3241	0.21149
3242	0.21316
3243	0.21486
3244	0.21657
3245	0.21831
3246	0.22012
3247	0.22196
3248	0.22366
3249	0.22521
3250	0.22675
3251	0.22833
3252	0.23005
3253	0.23184
3254	0.23369
3255	0.23559
3256	0.23736
3257	0.23897
3258	0.24064
3259	0.2424
3260	0.24417
3261	0.2459
3262	0.24761
3263	0.2493
3264	0.251
3265	0.25269
3266	0.25442
3267	0.25626
3268	0.25825
3269	0.2603
3270	0.26226
3271	0.26406
3272	0.26582
3273	0.26751
3274	0.26912
3275	0.27081
3276	0.27251
3277	0.27425
3278	0.27605
3279	0.2778
3280	0.27952
3281	0.28131
3282	0.2832
3283	0.28502
3284	0.28672
3285	0.28851
3286	0.2904
3287	0.29232
3288	0.29423
3289	0.29617
3290	0.29813
3291	0.3001
3292	0.30204
3293	0.30395
3294	0.30583
3295	0.30773
3296	0.3096
3297	0.31143
3298	0.31328
3299	0.31511
3300	0.31688
3301	0.31867
3302	0.32054
3303	0.32236
3304	0.32425
3305	0.32629
3306	0.32833
3307	0.33016
3308	0.33182
3309	0.33354
3310	0.33534
3311	0.33717
3312	0.33899
3313	0.34078
3314	0.34258
3315	0.34441
3316	0.34624
3317	0.34813
3318	0.35011
3319	0.35214
3320	0.35421
3321	0.35629
3322	0.35829
3323	0.36032
3324	0.36246
3325	0.36459
3326	0.36657
3327	0.36846
3328	0.37054
3329	0.37284
3330	0.3751
3331	0.37733
3332	0.37958
3333	0.38192
3334	0.38428
3335	0.38664
3336	0.389
3337	0.3914
3338	0.39383
3339	0.39623
3340	0.39861
3341	0.40101
3342	0.40346
3343	0.40585
3344	0.40817
3345	0.41058
3346	0.41308
3347	0.41559
3348	0.41818
3349	0.42082
3350	0.42336
3351	0.42577
3352	0.42803
3353	0.43022
3354	0.43245
3355	0.43473
3356	0.43703
3357	0.43939
3358	0.4418
3359	0.44427
3360	0.44676
3361	0.44912
3362	0.45129
3363	0.45346
3364	0.45567
3365	0.45787
3366	0.46006
3367	0.46215
3368	0.46415
3369	0.46621
3370	0.46833
3371	0.47042
3372	0.47232
3373	0.47402
3374	0.47565
3375	0.47733
3376	0.47911
3377	0.48082
3378	0.48239
3379	0.48398
3380	0.48562
3381	0.4871
3382	0.48841
3383	0.48972
3384	0.49109
3385	0.49244
3386	0.49376
3387	0.49513
3388	0.4965
3389	0.49784
3390	0.49922
3391	0.50058
3392	0.50173
3393	0.5026
3394	0.50355
3395	0.50465
3396	0.5057
3397	0.5067
3398	0.50775
3399	0.50881
3400	0.50982
3401	0.51077
3402	0.51169
3403	0.51259
3404	0.51352
3405	0.51447
3406	0.51535
3407	0.51606
3408	0.51663
3409	0.51734
3410	0.51816
3411	0.51894
3412	0.51962
3413	0.5202
3414	0.5208
3415	0.52145
3416	0.52215
3417	0.52278
3418	0.52322
3419	0.52364
3420	0.52416
3421	0.5247
3422	0.5251
3423	0.52532
3424	0.52552
3425	0.52565
3426	0.52571
3427	0.52586
3428	0.52617
3429	0.52647
3430	0.52662
3431	0.52658
3432	0.5264
3433	0.52625
3434	0.52623
3435	0.52609
3436	0.52577
3437	0.52549
3438	0.52519
3439	0.52477
3440	0.52422
3441	0.52353
3442	0.52281
3443	0.52211
3444	0.52153
3445	0.52106
3446	0.52042
3447	0.51939
3448	0.51828
3449	0.51735
3450	0.51643
3451	0.51546
3452	0.5145
3453	0.51364
3454	0.51275
3455	0.51172
3456	0.51056
3457	0.50929
3458	0.50801
3459	0.50685
3460	0.50578
3461	0.5045
3462	0.50299
3463	0.50154
3464	0.5003
3465	0.49914
3466	0.49784
3467	0.4964
3468	0.49494
3469	0.49349
3470	0.49186
3471	0.49001
3472	0.48821
3473	0.48661
3474	0.48505
3475	0.48336
3476	0.4816
3477	0.47993
3478	0.4784
3479	0.47696
3480	0.47537
3481	0.47339
3482	0.47115
3483	0.46914
3484	0.46753
3485	0.46609
3486	0.46456
3487	0.46273
3488	0.46058
3489	0.4585
3490	0.45664
3491	0.45487
3492	0.45309
3493	0.45131
3494	0.44958
3495	0.44777
3496	0.44582
3497	0.4439
3498	0.44213
3499	0.44029
3500	0.43835
3501	0.43654
3502	0.43473
3503	0.43256
3504	0.43008
3505	0.42779
3506	0.42588
3507	0.42418
3508	0.42226
3509	0.41983
3510	0.4174
3511	0.4155
3512	0.41387
3513	0.41218
3514	0.41026
3515	0.4082
3516	0.40624
3517	0.40427
3518	0.40213
3519	0.39995
3520	0.398
3521	0.39627
3522	0.39441
3523	0.39236
3524	0.39032
3525	0.38833
3526	0.38626
3527	0.38407
3528	0.3818
3529	0.37964
3530	0.37766
3531	0.37577
3532	0.37395
3533	0.37219
3534	0.37053
3535	0.36888
3536	0.36694
3537	0.36485
3538	0.36287
3539	0.36094
3540	0.35901
3541	0.3574
3542	0.35603
3543	0.35453
3544	0.35265
3545	0.3506
3546	0.3485
3547	0.34614
3548	0.3439
3549	0.34219
3550	0.34077
3551	0.33919
3552	0.33707
3553	0.33465
3554	0.33245
3555	0.33063
3556	0.32884
3557	0.32695
3558	0.32503
3559	0.3231
3560	0.32121
3561	0.31951
3562	0.31776
3563	0.31578
3564	0.31387
3565	0.3118
3566	0.30894
3567	0.30558
3568	0.30307
3569	0.30193
3570	0.30094
3571	0.29916
3572	0.29706
3573	0.295
3574	0.29285
3575	0.29072
3576	0.28861
3577	0.28653
3578	0.2845
3579	0.28245
3580	0.28033
3581	0.27848
3582	0.2767
3583	0.27469
3584	0.27282
3585	0.27117
3586	0.26897
3587	0.26576
3588	0.26227
3589	0.25961
3590	0.258
3591	0.25656
3592	0.25462
3593	0.25215
3594	0.24958
3595	0.24699
3596	0.24474
3597	0.24305
3598	0.24123
3599	0.23921
3600	0.23685
3601	0.23415
3602	0.23186
3603	0.22995
3604	0.22816
3605	0.22632
3606	0.22406
3607	0.22141
3608	0.21886
3609	0.21659
3610	0.21484
3611	0.21324
3612	0.21091
3613	0.20821
3614	0.20586
3615	0.204
3616	0.20226
3617	0.20017
3618	0.19771
3619	0.19525
3620	0.19302
3621	0.19102
3622	0.18891
3623	0.18662
3624	0.18457
3625	0.18262
3626	0.18064
3627	0.17872
3628	0.17592
3629	0.1716
3630	0.16942
3631	0.16923
3632	0.16822
3633	0.16628
3634	0.16405
3635	0.16224
3636	0.16058
3637	0.15864
3638	0.15663
3639	0.1548
3640	0.15308
3641	0.15118
3642	0.14907
3643	0.14713
3644	0.14561
3645	0.14427
3646	0.1426
3647	0.1405
3648	0.13873
3649	0.13708
3650	0.1347
3651	0.13221
3652	0.13053
3653	0.12918
3654	0.12771
3655	0.12587
3656	0.12345
3657	0.12162
3658	0.1204
3659	0.11883
3660	0.11716
3661	0.11551
3662	0.1137
3663	0.11179
3664	0.11
3665	0.10842
3666	0.10697
3667	0.1055
3668	0.10378
3669	0.10173
3670	0.09933
3671	0.09767
3672	0.09711
3673	0.09644
3674	0.09479
3675	0.09155
3676	0.08893
3677	0.0886
3678	0.08786
3679	0.08631
3680	0.08495
3681	0.08399
3682	0.08296
3683	0.08172
3684	0.08043
3685	0.07941
3686	0.07871
3687	0.07775
3688	0.07655
3689	0.07576
3690	0.07453
3691	0.07256
3692	0.07112
3693	0.07028
3694	0.06945
3695	0.06867
3696	0.06778
3697	0.06679
3698	0.06591
3699	0.06527
3700	0.06462
3701	0.0635
3702	0.06245
3703	0.06207
3704	0.06162
3705	0.06087
3706	0.06031
3707	0.05999
3708	0.05932
3709	0.05843
3710	0.05822
3711	0.0575
3712	0.05614
3713	0.05629
3714	0.05662
3715	0.05617
3716	0.05569
3717	0.05517
3718	0.05435
3719	0.05372
3720	0.05349
3721	0.05285
3722	0.05185
3723	0.0514
3724	0.05106
3725	0.05026
3726	0.04937
3727	0.04895
3728	0.04896
3729	0.04904
3730	0.04887
3731	0.04821
3732	0.04786
3733	0.0484
3734	0.04785
3735	0.04641
3736	0.04624
3737	0.04658
3738	0.04673
3739	0.04681
3740	0.04645
3741	0.04617
3742	0.04648
3743	0.04591
3744	0.04377
3745	0.04305
3746	0.04479
3747	0.04532
3748	0.04457
3749	0.04352
3750	0.04321
3751	0.04252
3752	0.0413
3753	0.04174
3754	0.04261
3755	0.04245
3756	0.04185
3757	0.04183
3758	0.0417
3759	0.04063
3760	0.04011
3761	0.04062
3762	0.04062
3763	0.04039
3764	0.04005
3765	0.03926
3766	0.03877
3767	0.03915
3768	0.03922
3769	0.03844
3770	0.03762
3771	0.03767
3772	0.03775
3773	0.03746
3774	0.03718
3775	0.03703
3776	0.03697
3777	0.03689
3778	0.03654
3779	0.03591
3780	0.0357
3781	0.03578
3782	0.03574
3783	0.03557
3784	0.03526
3785	0.03499
3786	0.0348
3787	0.03447
3788	0.03414
3789	0.03391
3790	0.03376
3791	0.03364
3792	0.0335
3793	0.0334
3794	0.03337
3795	0.03306
3796	0.03241
3797	0.03213
3798	0.0325
3799	0.03276
3800	0.03224
3801	0.03106
3802	0.03063
3803	0.03122
3804	0.03165
3805	0.0315
3806	0.0306
3807	0.02983
3808	0.03007
3809	0.03021
3810	0.02997
3811	0.02979
3812	0.02968
3813	0.02975
3814	0.02974
3815	0.02892
3816	0.02794
3817	0.02884
3818	0.02958
3819	0.02942
3820	0.02849
3821	0.02719
3822	0.0273
3823	0.02799
3824	0.028
3825	0.02766
3826	0.02708
3827	0.02676
3828	0.02698
3829	0.02724
3830	0.02696
3831	0.02621
3832	0.02603
3833	0.02629
3834	0.026
3835	0.02608
3836	0.02663
3837	0.02621
3838	0.02571
3839	0.02574
3840	0.02501
3841	0.02483
3842	0.02519
3843	0.02469
3844	0.02424
3845	0.0245
3846	0.02456
3847	0.02441
3848	0.02422
3849	0.02413
3850	0.0242
3851	0.02393
3852	0.02317
3853	0.02194
3854	0.02134
3855	0.02246
3856	0.02309
3857	0.02281
3858	0.02286
3859	0.02309
3860	0.02289
3861	0.02241
3862	0.02252
3863	0.02276
3864	0.02195
3865	0.02121
3866	0.02202
3867	0.02271
3868	0.02232
3869	0.02091
3870	0.02008
3871	0.02157
3872	0.02222
3873	0.02141
3874	0.02034
3875	0.0205
3876	0.02101
3877	0.02106
3878	0.02098
3879	0.02041
3880	0.01945
3881	0.01939
3882	0.02005
3883	0.02036
3884	0.0203
3885	0.01971
3886	0.01941
3887	0.01976
3888	0.01993
3889	0.01988
3890	0.01947
3891	0.01883
3892	0.01897
3893	0.01923
3894	0.01907
3895	0.01901
3896	0.01919
3897	0.01931
3898	0.01883
3899	0.01834
3900	0.01874
3901	0.01866
3902	0.01824
3903	0.01817
3904	0.0179
3905	0.01775
3906	0.01798
3907	0.01814
3908	0.01812
3909	0.01805
3910	0.01802
3911	0.01797
3912	0.01789
3913	0.01785
3914	0.01783
3915	0.01766
3916	0.01711
3917	0.01677
3918	0.01706
3919	0.01712
3920	0.01705
3921	0.01741
3922	0.01763
3923	0.01737
3924	0.01687
3925	0.01661
3926	0.01676
3927	0.01681
3928	0.01666
3929	0.0166
3930	0.01672
3931	0.01668
3932	0.01644
3933	0.01644
3934	0.01658
3935	0.01655
3936	0.01642
3937	0.01626
3938	0.01612
3939	0.01605
3940	0.01607
3941	0.01598
3942	0.01571
3943	0.0157
3944	0.01594
3945	0.01598
3946	0.01575
3947	0.01549
3948	0.0155
3949	0.0154
3950	0.01518
3951	0.01528
3952	0.01539
3953	0.01542
3954	0.01553
3955	0.01546
3956	0.01518
3957	0.01498
3958	0.01496
3959	0.01493
3960	0.01485
3961	0.01474
3962	0.01477
3963	0.0149
3964	0.01489
3965	0.01486
3966	0.01488
3967	0.01482
3968	0.01466
3969	0.01453
3970	0.01453
3971	0.01458
3972	0.01457
3973	0.01449
3974	0.01441
3975	0.01434
3976	0.01433
3977	0.01437
3978	0.01439
3979	0.01433
3980	0.01425
3981	0.01414
3982	0.01404
3983	0.01413
3984	0.0143
3985	0.0144
3986	0.01438
3987	0.01426
3988	0.0141
3989	0.01399
3990	0.01398
3991	0.01403
3992	0.01406
3993	0.01401
3994	0.01394
3995	0.01388
3996	0.01389
3997	0.01392
3998	0.01392
3999	0.01392
4000	0.01392