4000.18193	0.02616
3999.21756	0.02604
3998.2532	0.02594
3997.28884	0.02584
3996.32447	0.02576
3995.36011	0.02568
3994.39574	0.02562
3993.43138	0.02556
3992.46702	0.02552
3991.50265	0.02548
3990.53829	0.02546
3989.57392	0.02544
3988.60956	0.02544
3987.6452	0.02561
3986.68083	0.02577
3985.71647	0.02588
3984.7521	0.02595
3983.78774	0.02593
3982.82338	0.02579
3981.85901	0.02566
3980.89465	0.0256
3979.93028	0.02548
3978.96592	0.02519
3978.00156	0.02483
3977.03719	0.02459
3976.07283	0.02452
3975.10846	0.02459
3974.1441	0.0248
3973.17974	0.02501
3972.21537	0.02509
3971.25101	0.0251
3970.28664	0.02513
3969.32228	0.02517
3968.35792	0.02521
3967.39355	0.0252
3966.42919	0.02524
3965.46482	0.02538
3964.50046	0.02551
3963.5361	0.02554
3962.57173	0.02563
3961.60737	0.0258
3960.643	0.02585
3959.67864	0.02573
3958.71428	0.0254
3957.74991	0.02481
3956.78555	0.02418
3955.82118	0.02384
3954.85682	0.02387
3953.89246	0.02383
3952.92809	0.02341
3951.96373	0.02287
3950.99936	0.02242
3950.035	0.02201
3949.07064	0.0216
3948.10627	0.02136
3947.14191	0.02137
3946.17754	0.02158
3945.21318	0.02197
3944.24882	0.02256
3943.28445	0.02313
3942.32009	0.02354
3941.35572	0.02379
3940.39136	0.02387
3939.427	0.02387
3938.46263	0.02385
3937.49827	0.02396
3936.5339	0.0242
3935.56954	0.02408
3934.60518	0.02349
3933.64081	0.02295
3932.67645	0.02274
3931.71208	0.02257
3930.74772	0.02192
3929.78336	0.02121
3928.81899	0.02102
3927.85463	0.02088
3926.89026	0.02041
3925.9259	0.01992
3924.96154	0.01975
3923.99717	0.01993
3923.03281	0.02037
3922.06844	0.02095
3921.10408	0.02154
3920.13972	0.02198
3919.17535	0.02254
3918.21099	0.02355
3917.24662	0.0249
3916.28226	0.02631
3915.3179	0.02746
3914.35353	0.02818
3913.38917	0.02807
3912.4248	0.02693
3911.46044	0.02557
3910.49608	0.02447
3909.53171	0.02314
3908.56735	0.0214
3907.60298	0.01959
3906.63862	0.01822
3905.67426	0.01719
3904.70989	0.01607
3903.74553	0.01526
3902.78116	0.01478
3901.8168	0.01402
3900.85244	0.01323
3899.88807	0.01293
3898.92371	0.01344
3897.95934	0.01494
3896.99498	0.01691
3896.03062	0.01863
3895.06625	0.02016
3894.10189	0.02143
3893.13752	0.02241
3892.17316	0.02305
3891.2088	0.02275
3890.24443	0.02163
3889.28007	0.02038
3888.3157	0.01955
3887.35134	0.01903
3886.38698	0.01891
3885.42261	0.01917
3884.45825	0.01938
3883.49388	0.01985
3882.52952	0.02093
3881.56516	0.02217
3880.60079	0.02201
3879.63643	0.02046
3878.67206	0.01872
3877.7077	0.01818
3876.74333	0.01888
3875.77897	0.01951
3874.81461	0.01951
3873.85024	0.01879
3872.88588	0.01747
3871.92151	0.01622
3870.95715	0.01545
3869.99279	0.01533
3869.02842	0.01542
3868.06406	0.01504
3867.09969	0.01503
3866.13533	0.01644
3865.17097	0.01885
3864.2066	0.02018
3863.24224	0.02006
3862.27787	0.01875
3861.31351	0.01707
3860.34915	0.01595
3859.38478	0.01519
3858.42042	0.01406
3857.45605	0.01246
3856.49169	0.01201
3855.52733	0.01294
3854.56296	0.0142
3853.5986	0.01513
3852.63423	0.01572
3851.66987	0.01643
3850.70551	0.01712
3849.74114	0.0176
3848.77678	0.01778
3847.81241	0.01816
3846.84805	0.01902
3845.88369	0.01978
3844.91932	0.02019
3843.95496	0.02092
3842.99059	0.02179
3842.02623	0.02128
3841.06187	0.01902
3840.0975	0.01709
3839.13314	0.01631
3838.16877	0.01621
3837.20441	0.01628
3836.24005	0.01675
3835.27568	0.018
3834.31132	0.02017
3833.34695	0.0233
3832.38259	0.02604
3831.41823	0.02704
3830.45386	0.02743
3829.4895	0.02794
3828.52513	0.02833
3827.56077	0.02816
3826.59641	0.0268
3825.63204	0.02463
3824.66768	0.02267
3823.70331	0.0213
3822.73895	0.0203
3821.77459	0.0199
3820.81022	0.02026
3819.84586	0.02109
3818.88149	0.02241
3817.91713	0.02389
3816.95277	0.02525
3815.9884	0.02673
3815.02404	0.02851
3814.05967	0.03089
3813.09531	0.03358
3812.13095	0.03522
3811.16658	0.03596
3810.20222	0.03615
3809.23785	0.0353
3808.27349	0.03363
3807.30913	0.03205
3806.34476	0.0307
3805.3804	0.02957
3804.41603	0.02816
3803.45167	0.02643
3802.48731	0.02553
3801.52294	0.02563
3800.55858	0.02643
3799.59421	0.0278
3798.62985	0.02976
3797.66549	0.03235
3796.70112	0.03529
3795.73676	0.03774
3794.77239	0.03917
3793.80803	0.04065
3792.84367	0.04297
3791.8793	0.04585
3790.91494	0.04823
3789.95057	0.04874
3788.98621	0.04763
3788.02185	0.04674
3787.05748	0.04647
3786.09312	0.04636
3785.12875	0.0459
3784.16439	0.04515
3783.20003	0.04491
3782.23566	0.04547
3781.2713	0.04616
3780.30693	0.04623
3779.34257	0.04608
3778.37821	0.04627
3777.41384	0.04678
3776.44948	0.04703
3775.48511	0.04704
3774.52075	0.04703
3773.55639	0.04693
3772.59202	0.0469
3771.62766	0.04744
3770.66329	0.04806
3769.69893	0.0482
3768.73457	0.04805
3767.7702	0.04733
3766.80584	0.04601
3765.84147	0.04509
3764.87711	0.04522
3763.91275	0.04631
3762.94838	0.04705
3761.98402	0.04696
3761.01965	0.04626
3760.05529	0.04479
3759.09093	0.04271
3758.12656	0.0402
3757.1622	0.03797
3756.19783	0.03654
3755.23347	0.0344
3754.26911	0.03183
3753.30474	0.02945
3752.34038	0.02782
3751.37601	0.02699
3750.41165	0.02711
3749.44729	0.02824
3748.48292	0.02994
3747.51856	0.03167
3746.55419	0.03301
3745.58983	0.03394
3744.62547	0.03498
3743.6611	0.03641
3742.69674	0.03811
3741.73237	0.04006
3740.76801	0.04199
3739.80365	0.04335
3738.83928	0.04485
3737.87492	0.04669
3736.91055	0.04843
3735.94619	0.05051
3734.98182	0.05322
3734.01746	0.05611
3733.0531	0.05797
3732.08873	0.05873
3731.12437	0.06046
3730.16	0.0629
3729.19564	0.0652
3728.23128	0.06755
3727.26691	0.07037
3726.30255	0.07328
3725.33818	0.0758
3724.37382	0.07784
3723.40946	0.07849
3722.44509	0.07737
3721.48073	0.07566
3720.51636	0.07341
3719.552	0.07074
3718.58764	0.06872
3717.62327	0.06777
3716.65891	0.06758
3715.69454	0.06782
3714.73018	0.0684
3713.76582	0.06939
3712.80145	0.07041
3711.83709	0.07125
3710.87272	0.07202
3709.90836	0.0729
3708.944	0.0745
3707.97963	0.07676
3707.01527	0.07912
3706.0509	0.08165
3705.08654	0.08469
3704.12218	0.0882
3703.15781	0.09209
3702.19345	0.09574
3701.22908	0.09841
3700.26472	0.09939
3699.30036	0.09812
3698.33599	0.09584
3697.37163	0.09353
3696.40726	0.0917
3695.4429	0.09046
3694.47854	0.08963
3693.51417	0.08919
3692.54981	0.08941
3691.58544	0.09029
3690.62108	0.09114
3689.65672	0.09139
3688.69235	0.09192
3687.72799	0.09378
3686.76362	0.09549
3685.79926	0.0954
3684.8349	0.09466
3683.87053	0.09434
3682.90617	0.09518
3681.9418	0.09689
3680.97744	0.09807
3680.01308	0.09817
3679.04871	0.09711
3678.08435	0.09543
3677.11998	0.09377
3676.15562	0.0922
3675.19126	0.09151
3674.22689	0.09206
3673.26253	0.09357
3672.29816	0.09581
3671.3338	0.09877
3670.36944	0.10252
3669.40507	0.10709
3668.44071	0.11231
3667.47634	0.11728
3666.51198	0.12159
3665.54762	0.12575
3664.58325	0.12961
3663.61889	0.13231
3662.65452	0.13478
3661.69016	0.13811
3660.7258	0.1409
3659.76143	0.14272
3658.79707	0.14261
3657.8327	0.13998
3656.86834	0.13649
3655.90398	0.13363
3654.93961	0.13188
3653.97525	0.13096
3653.01088	0.13047
3652.04652	0.13046
3651.08216	0.13121
3650.11779	0.13278
3649.15343	0.13495
3648.18906	0.13762
3647.2247	0.14101
3646.26034	0.14531
3645.29597	0.15
3644.33161	0.15431
3643.36724	0.15887
3642.40288	0.16477
3641.43852	0.17214
3640.47415	0.17945
3639.50979	0.18459
3638.54542	0.18734
3637.58106	0.18844
3636.6167	0.18905
3635.65233	0.18932
3634.68797	0.18962
3633.7236	0.19084
3632.75924	0.19319
3631.79488	0.1962
3630.83051	0.19898
3629.86615	0.20102
3628.90178	0.20256
3627.93742	0.2042
3626.97306	0.20626
3626.00869	0.20858
3625.04433	0.21094
3624.07996	0.21318
3623.1156	0.21504
3622.15124	0.21677
3621.18687	0.21887
3620.22251	0.22147
3619.25814	0.22414
3618.29378	0.22611
3617.32942	0.22648
3616.36505	0.22606
3615.40069	0.22684
3614.43632	0.22883
3613.47196	0.23181
3612.5076	0.23566
3611.54323	0.24012
3610.57887	0.24492
3609.6145	0.2498
3608.65014	0.25444
3607.68578	0.25866
3606.72141	0.26243
3605.75705	0.26607
3604.79268	0.26996
3603.82832	0.27386
3602.86396	0.27737
3601.89959	0.28059
3600.93523	0.28389
3599.97086	0.28751
3599.0065	0.29114
3598.04214	0.29384
3597.07777	0.29527
3596.11341	0.2961
3595.14904	0.29695
3594.18468	0.29812
3593.22031	0.2999
3592.25595	0.30233
3591.29159	0.30504
3590.32722	0.30779
3589.36286	0.31056
3588.39849	0.31331
3587.43413	0.31607
3586.46977	0.31895
3585.5054	0.32199
3584.54104	0.32508
3583.57667	0.32811
3582.61231	0.33126
3581.64795	0.33473
3580.68358	0.33876
3579.71922	0.34355
3578.75485	0.34857
3577.79049	0.35258
3576.82613	0.35478
3575.86176	0.35532
3574.8974	0.35503
3573.93303	0.35485
3572.96867	0.35528
3572.00431	0.35615
3571.03994	0.35715
3570.07558	0.35834
3569.11121	0.35988
3568.14685	0.36162
3567.18249	0.36362
3566.21812	0.36614
3565.25376	0.36914
3564.28939	0.3724
3563.32503	0.37563
3562.36067	0.3788
3561.3963	0.38226
3560.43194	0.38636
3559.46757	0.39107
3558.50321	0.39603
3557.53885	0.40083
3556.57448	0.40485
3555.61012	0.4074
3554.64575	0.4085
3553.68139	0.40913
3552.71703	0.41014
3551.75266	0.41161
3550.7883	0.41331
3549.82393	0.41528
3548.85957	0.41752
3547.89521	0.41981
3546.93084	0.42205
3545.96648	0.4244
3545.00211	0.42698
3544.03775	0.42991
3543.07339	0.43318
3542.10902	0.43654
3541.14466	0.43975
3540.18029	0.44275
3539.21593	0.44571
3538.25157	0.44874
3537.2872	0.4518
3536.32284	0.45482
3535.35847	0.45752
3534.39411	0.45957
3533.42975	0.46088
3532.46538	0.46188
3531.50102	0.46308
3530.53665	0.46466
3529.57229	0.46657
3528.60793	0.46873
3527.64356	0.47112
3526.6792	0.47379
3525.71483	0.47666
3524.75047	0.47952
3523.78611	0.48241
3522.82174	0.48568
3521.85738	0.48944
3520.89301	0.49335
3519.92865	0.4971
3518.96429	0.50072
3517.99992	0.50444
3517.03556	0.50828
3516.07119	0.51219
3515.10683	0.51609
3514.14247	0.51988
3513.1781	0.52347
3512.21374	0.52681
3511.24937	0.52992
3510.28501	0.53311
3509.32065	0.53676
3508.35628	0.5408
3507.39192	0.54485
3506.42755	0.54875
3505.46319	0.55254
3504.49883	0.55629
3503.53446	0.55997
3502.5701	0.56347
3501.60573	0.56673
3500.64137	0.56979
3499.67701	0.57253
3498.71264	0.57471
3497.74828	0.57623
3496.78391	0.57734
3495.81955	0.57845
3494.85519	0.57971
3493.89082	0.58094
3492.92646	0.58185
3491.96209	0.58226
3490.99773	0.58222
3490.03337	0.58211
3489.069	0.58229
3488.10464	0.58286
3487.14027	0.58377
3486.17591	0.58491
3485.21155	0.58609
3484.24718	0.58726
3483.28282	0.58854
3482.31845	0.59004
3481.35409	0.59171
3480.38973	0.59351
3479.42536	0.5954
3478.461	0.59734
3477.49663	0.59922
3476.53227	0.60097
3475.56791	0.60271
3474.60354	0.60456
3473.63918	0.60647
3472.67481	0.60833
3471.71045	0.61008
3470.74609	0.61164
3469.78172	0.61297
3468.81736	0.61422
3467.85299	0.61553
3466.88863	0.61693
3465.92427	0.61844
3464.9599	0.62001
3463.99554	0.62159
3463.03117	0.62309
3462.06681	0.62457
3461.10245	0.62617
3460.13808	0.62797
3459.17372	0.62984
3458.20935	0.63144
3457.24499	0.63269
3456.28062	0.6338
3455.31626	0.63492
3454.3519	0.63604
3453.38753	0.63712
3452.42317	0.63813
3451.4588	0.63906
3450.49444	0.63991
3449.53008	0.64074
3448.56571	0.6416
3447.60135	0.64251
3446.63698	0.64347
3445.67262	0.64451
3444.70826	0.64563
3443.74389	0.64681
3442.77953	0.64803
3441.81516	0.64927
3440.8508	0.65056
3439.88644	0.65194
3438.92207	0.65338
3437.95771	0.65485
3436.99334	0.65627
3436.02898	0.65748
3435.06462	0.65838
3434.10025	0.65921
3433.13589	0.66015
3432.17152	0.66104
3431.20716	0.66159
3430.2428	0.66181
3429.27843	0.6619
3428.31407	0.66201
3427.3497	0.6621
3426.38534	0.66211
3425.42098	0.66203
3424.45661	0.66183
3423.49225	0.6615
3422.52788	0.66109
3421.56352	0.66063
3420.59916	0.66007
3419.63479	0.65938
3418.67043	0.65859
3417.70606	0.65772
3416.7417	0.65677
3415.77734	0.65569
3414.81297	0.65449
3413.84861	0.65317
3412.88424	0.65172
3411.91988	0.65009
3410.95552	0.64826
3409.99115	0.64624
3409.02679	0.64397
3408.06242	0.64143
3407.09806	0.63877
3406.1337	0.63616
3405.16933	0.63363
3404.20497	0.63107
3403.2406	0.62839
3402.27624	0.62562
3401.31188	0.6229
3400.34751	0.62029
3399.38315	0.61787
3398.41878	0.61563
3397.45442	0.61355
3396.49006	0.61158
3395.52569	0.6097
3394.56133	0.60788
3393.59696	0.60613
3392.6326	0.60446
3391.66824	0.60285
3390.70387	0.60129
3389.73951	0.59977
3388.77514	0.5983
3387.81078	0.59688
3386.84642	0.59552
3385.88205	0.59412
3384.91769	0.59267
3383.95332	0.59124
3382.98896	0.58989
3382.0246	0.58852
3381.06023	0.58703
3380.09587	0.58543
3379.1315	0.58384
3378.16714	0.58228
3377.20278	0.5807
3376.23841	0.57906
3375.27405	0.57738
3374.30968	0.57565
3373.34532	0.57384
3372.38096	0.57193
3371.41659	0.56995
3370.45223	0.56793
3369.48786	0.56589
3368.5235	0.56383
3367.55914	0.56173
3366.59477	0.55954
3365.63041	0.55727
3364.66604	0.55497
3363.70168	0.55267
3362.73732	0.55035
3361.77295	0.548
3360.80859	0.54561
3359.84422	0.54315
3358.87986	0.54063
3357.9155	0.53803
3356.95113	0.53532
3355.98677	0.53249
3355.0224	0.52957
3354.05804	0.52656
3353.09368	0.52349
3352.12931	0.52039
3351.16495	0.51726
3350.20058	0.51413
3349.23622	0.51102
3348.27186	0.50791
3347.30749	0.50478
3346.34313	0.50163
3345.37876	0.49848
3344.4144	0.49533
3343.45004	0.49222
3342.48567	0.48921
3341.52131	0.48631
3340.55694	0.48349
3339.59258	0.48071
3338.62822	0.47794
3337.66385	0.47516
3336.69949	0.47237
3335.73512	0.4696
3334.77076	0.46684
3333.8064	0.46408
3332.84203	0.46135
3331.87767	0.45867
3330.9133	0.45606
3329.94894	0.45354
3328.98458	0.45114
3328.02021	0.44887
3327.05585	0.44673
3326.09148	0.44474
3325.12712	0.44284
3324.16276	0.44103
3323.19839	0.43936
3322.23403	0.43788
3321.26966	0.4366
3320.3053	0.43548
3319.34094	0.43444
3318.37657	0.43346
3317.41221	0.43256
3316.44784	0.43172
3315.48348	0.43094
3314.51911	0.43017
3313.55475	0.42938
3312.59039	0.42854
3311.62602	0.4276
3310.66166	0.42655
3309.69729	0.42537
3308.73293	0.42404
3307.76857	0.42251
3306.8042	0.42078
3305.83984	0.41891
3304.87547	0.41692
3303.91111	0.41482
3302.94675	0.41258
3301.98238	0.41019
3301.01802	0.40769
3300.05365	0.40517
3299.08929	0.40263
3298.12493	0.40009
3297.16056	0.39759
3296.1962	0.39519
3295.23183	0.39295
3294.26747	0.39088
3293.30311	0.38897
3292.33874	0.38726
3291.37438	0.38569
3290.41001	0.38426
3289.44565	0.38297
3288.48129	0.38179
3287.51692	0.38068
3286.55256	0.3796
3285.58819	0.37852
3284.62383	0.3774
3283.65947	0.37625
3282.6951	0.37514
3281.73074	0.37404
3280.76637	0.37289
3279.80201	0.37166
3278.83765	0.37037
3277.87328	0.36904
3276.90892	0.36766
3275.94455	0.3662
3274.98019	0.36468
3274.01583	0.3631
3273.05146	0.36145
3272.0871	0.3597
3271.12273	0.35784
3270.15837	0.35592
3269.19401	0.35395
3268.22964	0.35188
3267.26528	0.34974
3266.30091	0.34755
3265.33655	0.34524
3264.37219	0.34275
3263.40782	0.34012
3262.44346	0.33738
3261.47909	0.33455
3260.51473	0.33168
3259.55037	0.32881
3258.586	0.32595
3257.62164	0.32311
3256.65727	0.32026
3255.69291	0.31733
3254.72855	0.31431
3253.76418	0.31127
3252.79982	0.30822
3251.83545	0.30516
3250.87109	0.3021
3249.90673	0.29907
3248.94236	0.29608
3247.978	0.29308
3247.01363	0.29006
3246.04927	0.28706
3245.08491	0.28409
3244.12054	0.28117
3243.15618	0.27827
3242.19181	0.27539
3241.22745	0.27253
3240.26309	0.26972
3239.29872	0.267
3238.33436	0.26434
3237.36999	0.26177
3236.40563	0.25931
3235.44127	0.25696
3234.4769	0.25471
3233.51254	0.25254
3232.54817	0.25044
3231.58381	0.24848
3230.61945	0.24666
3229.65508	0.24496
3228.69072	0.24343
3227.72635	0.2421
3226.76199	0.24099
3225.79763	0.24003
3224.83326	0.2391
3223.8689	0.23823
3222.90453	0.23748
3221.94017	0.23679
3220.97581	0.23605
3220.01144	0.23517
3219.04708	0.23416
3218.08271	0.23298
3217.11835	0.23161
3216.15399	0.23008
3215.18962	0.22839
3214.22526	0.22654
3213.26089	0.22456
3212.29653	0.22246
3211.33217	0.22027
3210.3678	0.21801
3209.40344	0.21568
3208.43907	0.21325
3207.47471	0.21076
3206.51035	0.20834
3205.54598	0.20607
3204.58162	0.20395
3203.61725	0.20195
3202.65289	0.20004
3201.68853	0.1982
3200.72416	0.19646
3199.7598	0.1948
3198.79543	0.19314
3197.83107	0.19143
3196.86671	0.18966
3195.90234	0.18784
3194.93798	0.18598
3193.97361	0.18408
3193.00925	0.18213
3192.04489	0.18016
3191.08052	0.17817
3190.11616	0.17619
3189.15179	0.17416
3188.18743	0.17203
3187.22307	0.16984
3186.2587	0.16762
3185.29434	0.1654
3184.32997	0.16325
3183.36561	0.16116
3182.40125	0.15914
3181.43688	0.15719
3180.47252	0.15532
3179.50815	0.15353
3178.54379	0.1518
3177.57943	0.15013
3176.61506	0.14854
3175.6507	0.147
3174.68633	0.1455
3173.72197	0.14401
3172.7576	0.14255
3171.79324	0.14117
3170.82888	0.13987
3169.86451	0.13863
3168.90015	0.13743
3167.93578	0.13628
3166.97142	0.13518
3166.00706	0.13411
3165.04269	0.13307
3164.07833	0.13209
3163.11396	0.13114
3162.1496	0.13023
3161.18524	0.12934
3160.22087	0.12847
3159.25651	0.12762
3158.29214	0.1268
3157.32778	0.12603
3156.36342	0.1253
3155.39905	0.12461
3154.43469	0.1239
3153.47032	0.12315
3152.50596	0.12239
3151.5416	0.12163
3150.57723	0.12087
3149.61287	0.12013
3148.6485	0.11941
3147.68414	0.11873
3146.71978	0.11809
3145.75541	0.11751
3144.79105	0.11692
3143.82668	0.11628
3142.86232	0.11559
3141.89796	0.11488
3140.93359	0.11417
3139.96923	0.11347
3139.00486	0.11279
3138.0405	0.11211
3137.07614	0.11143
3136.11177	0.11075
3135.14741	0.11012
3134.18304	0.1095
3133.21868	0.10883
3132.25432	0.10814
3131.28995	0.10751
3130.32559	0.10692
3129.36122	0.10636
3128.39686	0.10587
3127.4325	0.10544
3126.46813	0.10502
3125.50377	0.10462
3124.5394	0.10427
3123.57504	0.10395
3122.61068	0.10359
3121.64631	0.10315
3120.68195	0.10263
3119.71758	0.1021
3118.75322	0.10158
3117.78886	0.10103
3116.82449	0.10045
3115.86013	0.09983
3114.89576	0.09919
3113.9314	0.09854
3112.96704	0.09791
3112.00267	0.09726
3111.03831	0.09654
3110.07394	0.09579
3109.10958	0.09517
3108.14522	0.09471
3107.18085	0.09427
3106.21649	0.09379
3105.25212	0.09334
3104.28776	0.09292
3103.3234	0.09255
3102.35903	0.09226
3101.39467	0.09208
3100.4303	0.09195
3099.46594	0.09188
3098.50158	0.09184
3097.53721	0.09181
3096.57285	0.09179
3095.60848	0.09181
3094.64412	0.09189
3093.67976	0.09202
3092.71539	0.09218
3091.75103	0.09234
3090.78666	0.09248
3089.8223	0.09258
3088.85794	0.09263
3087.89357	0.09267
3086.92921	0.09276
3085.96484	0.09293
3085.00048	0.09312
3084.03612	0.09327
3083.07175	0.09339
3082.10739	0.09354
3081.14302	0.09375
3080.17866	0.09405
3079.2143	0.09444
3078.24993	0.09487
3077.28557	0.09532
3076.3212	0.09578
3075.35684	0.09622
3074.39248	0.09664
3073.42811	0.09709
3072.46375	0.09758
3071.49938	0.09811
3070.53502	0.09865
3069.57066	0.09921
3068.60629	0.09979
3067.64193	0.10033
3066.67756	0.10084
3065.7132	0.10139
3064.74884	0.10203
3063.78447	0.10272
3062.82011	0.10344
3061.85574	0.1042
3060.89138	0.10503
3059.92702	0.10586
3058.96265	0.10668
3057.99829	0.10752
3057.03392	0.10842
3056.06956	0.10934
3055.1052	0.11025
3054.14083	0.11114
3053.17647	0.11201
3052.2121	0.11284
3051.24774	0.11367
3050.28338	0.11453
3049.31901	0.1154
3048.35465	0.11625
3047.39028	0.1171
3046.42592	0.11793
3045.46156	0.11871
3044.49719	0.11942
3043.53283	0.12013
3042.56846	0.12082
3041.6041	0.12145
3040.63974	0.12204
3039.67537	0.12264
3038.71101	0.12329
3037.74664	0.12393
3036.78228	0.12456
3035.81792	0.1252
3034.85355	0.12591
3033.88919	0.12669
3032.92482	0.12755
3031.96046	0.12849
3030.99609	0.12953
3030.03173	0.13067
3029.06737	0.13192
3028.103	0.13331
3027.13864	0.13484
3026.17427	0.13649
3025.20991	0.13826
3024.24555	0.14015
3023.28118	0.14211
3022.31682	0.14416
3021.35245	0.14631
3020.38809	0.14855
3019.42373	0.15087
3018.45936	0.15333
3017.495	0.15598
3016.53063	0.15879
3015.56627	0.1617
3014.60191	0.16468
3013.63754	0.16778
3012.67318	0.17099
3011.70881	0.17433
3010.74445	0.17776
3009.78009	0.18127
3008.81572	0.18487
3007.85136	0.18852
3006.88699	0.19221
3005.92263	0.19591
3004.95827	0.19958
3003.9939	0.2032
3003.02954	0.20676
3002.06517	0.21027
3001.10081	0.21371
3000.13645	0.21708
2999.17208	0.22042
2998.20772	0.22373
2997.24335	0.22704
2996.27899	0.23034
2995.31463	0.23363
2994.35026	0.23688
2993.3859	0.24007
2992.42153	0.24322
2991.45717	0.24632
2990.49281	0.24938
2989.52844	0.25237
2988.56408	0.25527
2987.59971	0.25808
2986.63535	0.26078
2985.67099	0.26338
2984.70662	0.26583
2983.74226	0.26813
2982.77789	0.2703
2981.81353	0.27239
2980.84917	0.27442
2979.8848	0.27644
2978.92044	0.27847
2977.95607	0.28055
2976.99171	0.28268
2976.02735	0.2849
2975.06298	0.28723
2974.09862	0.28971
2973.13425	0.29233
2972.16989	0.29508
2971.20553	0.29796
2970.24116	0.30097
2969.2768	0.30408
2968.31243	0.30728
2967.34807	0.31057
2966.38371	0.31392
2965.41934	0.31732
2964.45498	0.32075
2963.49061	0.32419
2962.52625	0.32763
2961.56189	0.33107
2960.59752	0.33453
2959.63316	0.33803
2958.66879	0.34158
2957.70443	0.34519
2956.74007	0.34889
2955.7757	0.35271
2954.81134	0.35668
2953.84697	0.36081
2952.88261	0.36511
2951.91825	0.36961
2950.95388	0.37429
2949.98952	0.37914
2949.02515	0.38416
2948.06079	0.38932
2947.09643	0.39456
2946.13206	0.39981
2945.1677	0.40502
2944.20333	0.4101
2943.23897	0.41499
2942.27461	0.41964
2941.31024	0.42399
2940.34588	0.42804
2939.38151	0.43175
2938.41715	0.43511
2937.45279	0.43811
2936.48842	0.44074
2935.52406	0.44302
2934.55969	0.44496
2933.59533	0.44659
2932.63097	0.44789
2931.6666	0.44888
2930.70224	0.44955
2929.73787	0.44989
2928.77351	0.4499
2927.80915	0.44956
2926.84478	0.44882
2925.88042	0.44761
2924.91605	0.44582
2923.95169	0.44333
2922.98733	0.44004
2922.02296	0.43594
2921.0586	0.43103
2920.09423	0.42537
2919.12987	0.41905
2918.16551	0.41218
2917.20114	0.40488
2916.23678	0.39729
2915.27241	0.38957
2914.30805	0.38187
2913.34369	0.37433
2912.37932	0.36709
2911.41496	0.36027
2910.45059	0.35397
2909.48623	0.34827
2908.52187	0.34323
2907.5575	0.33885
2906.59314	0.33514
2905.62877	0.33203
2904.66441	0.32939
2903.70005	0.32708
2902.73568	0.32492
2901.77132	0.32277
2900.80695	0.3205
2899.84259	0.31801
2898.87823	0.31526
2897.91386	0.3122
2896.9495	0.30881
2895.98513	0.30511
2895.02077	0.3011
2894.05641	0.2968
2893.09204	0.29226
2892.12768	0.28755
2891.16331	0.28274
2890.19895	0.27787
2889.23458	0.27298
2888.27022	0.26812
2887.30586	0.26332
2886.34149	0.25861
2885.37713	0.25401
2884.41276	0.24952
2883.4484	0.24511
2882.48404	0.24078
2881.51967	0.23648
2880.55531	0.2322
2879.59094	0.22792
2878.62658	0.22361
2877.66222	0.21928
2876.69785	0.21491
2875.73349	0.21051
2874.76912	0.20609
2873.80476	0.20171
2872.8404	0.19743
2871.87603	0.19329
2870.91167	0.18936
2869.9473	0.18574
2868.98294	0.18249
2868.01858	0.17971
2867.05421	0.17747
2866.08985	0.17582
2865.12548	0.17481
2864.16112	0.1745
2863.19676	0.17492
2862.23239	0.17606
2861.26803	0.17791
2860.30366	0.1804
2859.3393	0.18341
2858.37494	0.18675
2857.41057	0.19019
2856.44621	0.19353
2855.48184	0.19659
2854.51748	0.19927
2853.55312	0.20147
2852.58875	0.20312
2851.62439	0.20423
2850.66002	0.20479
2849.69566	0.20484
2848.7313	0.20443
2847.76693	0.2036
2846.80257	0.20243
2845.8382	0.20098
2844.87384	0.19933
2843.90948	0.19757
2842.94511	0.19574
2841.98075	0.19391
2841.01638	0.19212
2840.05202	0.19037
2839.08766	0.18868
2838.12329	0.18701
2837.15893	0.18528
2836.19456	0.1834
2835.2302	0.18128
2834.26584	0.17888
2833.30147	0.17619
2832.33711	0.17324
2831.37274	0.17008
2830.40838	0.16678
2829.44402	0.1634
2828.47965	0.16001
2827.51529	0.15665
2826.55092	0.15336
2825.58656	0.15016
2824.6222	0.14705
2823.65783	0.14403
2822.69347	0.14109
2821.7291	0.13822
2820.76474	0.13542
2819.80038	0.13263
2818.83601	0.12979
2817.87165	0.1268
2816.90728	0.12362
2815.94292	0.1202
2814.97856	0.11648
2814.01419	0.11243
2813.04983	0.10805
2812.08546	0.10335
2811.1211	0.09835
2810.15674	0.09311
2809.19237	0.08768
2808.22801	0.08216
2807.26364	0.07662
2806.29928	0.07114
2805.33492	0.06579
2804.37055	0.06065
2803.40619	0.05579
2802.44182	0.05127
2801.47746	0.04715
2800.5131	0.04347
2799.54873	0.04027
2798.58437	0.03757
2797.62	0.03535
2796.65564	0.03357
2795.69128	0.03214
2794.72691	0.03102
2793.76255	0.03014
2792.79818	0.02944
2791.83382	0.02888
2790.86946	0.02843
2789.90509	0.02805
2788.94073	0.02773
2787.97636	0.02746
2787.012	0.02723
2786.04764	0.02702
2785.08327	0.02684
2784.11891	0.02667
2783.15454	0.02652
2782.19018	0.02639
2781.22582	0.02625
2780.26145	0.0261
2779.29709	0.02595
2778.33272	0.02582
2777.36836	0.02572
2776.404	0.02564
2775.43963	0.02558
2774.47527	0.02553
2773.5109	0.02551
2772.54654	0.02549
2771.58218	0.02546
2770.61781	0.02543
2769.65345	0.0254
2768.68908	0.0254
2767.72472	0.0254
2766.76036	0.02541
2765.79599	0.02541
2764.83163	0.02543
2763.86726	0.02546
2762.9029	0.02549
2761.93854	0.02551
2760.97417	0.02551
2760.00981	0.02551
2759.04544	0.0255
2758.08108	0.02548
2757.11672	0.02544
2756.15235	0.02538
2755.18799	0.02532
2754.22362	0.02527
2753.25926	0.0252
2752.2949	0.0251
2751.33053	0.02496
2750.36617	0.02482
2749.4018	0.02467
2748.43744	0.02451
2747.47307	0.02434
2746.50871	0.02417
2745.54435	0.024
2744.57998	0.02382
2743.61562	0.02363
2742.65125	0.02343
2741.68689	0.02324
2740.72253	0.02305
2739.75816	0.02286
2738.7938	0.02265
2737.82943	0.02247
2736.86507	0.02231
2735.90071	0.02218
2734.93634	0.02208
2733.97198	0.02197
2733.00761	0.02185
2732.04325	0.02173
2731.07889	0.02162
2730.11452	0.02151
2729.15016	0.02139
2728.18579	0.02126
2727.22143	0.02114
2726.25707	0.02104
2725.2927	0.02094
2724.32834	0.02084
2723.36397	0.02072
2722.39961	0.0206
2721.43525	0.02049
2720.47088	0.02039
2719.50652	0.02029
2718.54215	0.0202
2717.57779	0.02009
2716.61343	0.01999
2715.64906	0.01991
2714.6847	0.01984
2713.72033	0.01979
2712.75597	0.01974
2711.79161	0.01969
2710.82724	0.01965
2709.86288	0.01963
2708.89851	0.01961
2707.93415	0.0196
2706.96979	0.01959
2706.00542	0.01957
2705.04106	0.01955
2704.07669	0.01955
2703.11233	0.01956
2702.14797	0.01957
2701.1836	0.01957
2700.21924	0.01958
2699.25487	0.01959
2698.29051	0.01961
2697.32615	0.01963
2696.36178	0.01965
2695.39742	0.01966
2694.43305	0.01966
2693.46869	0.01967
2692.50433	0.01969
2691.53996	0.01972
2690.5756	0.01977
2689.61123	0.01983
2688.64687	0.0199
2687.68251	0.01999
2686.71814	0.02011
2685.75378	0.02021
2684.78941	0.0203
2683.82505	0.02041
2682.86069	0.02052
2681.89632	0.02065
2680.93196	0.02077
2679.96759	0.0209
2679.00323	0.02101
2678.03887	0.02112
2677.0745	0.02121
2676.11014	0.02129
2675.14577	0.02136
2674.18141	0.02144
2673.21705	0.02154
2672.25268	0.02166
2671.28832	0.02177
2670.32395	0.02186
2669.35959	0.02196
2668.39523	0.02206
2667.43086	0.02217
2666.4665	0.02226
2665.50213	0.02237
2664.53777	0.02249
2663.57341	0.02262
2662.60904	0.02273
2661.64468	0.02284
2660.68031	0.02294
2659.71595	0.02303
2658.75159	0.02312
2657.78722	0.02321
2656.82286	0.02328
2655.85849	0.02332
2654.89413	0.02336
2653.92977	0.02341
2652.9654	0.02347
2652.00104	0.02353
2651.03667	0.0236
2650.07231	0.02369
2649.10795	0.02377
2648.14358	0.02386
2647.17922	0.02392
2646.21485	0.02398
2645.25049	0.02405
2644.28613	0.02414
2643.32176	0.02425
2642.3574	0.02435
2641.39303	0.02443
2640.42867	0.0245
2639.46431	0.02455
2638.49994	0.02459
2637.53558	0.02461
2636.57121	0.02463
2635.60685	0.02465
2634.64249	0.02467
2633.67812	0.02467
2632.71376	0.02466
2631.74939	0.02464
2630.78503	0.02462
2629.82067	0.02462
2628.8563	0.02463
2627.89194	0.02462
2626.92757	0.02461
2625.96321	0.02462
2624.99885	0.02464
2624.03448	0.02465
2623.07012	0.02464
2622.10575	0.02461
2621.14139	0.0246
2620.17703	0.02457
2619.21266	0.02453
2618.2483	0.02445
2617.28393	0.02436
2616.31957	0.02429
2615.35521	0.02424
2614.39084	0.02419
2613.42648	0.02413
2612.46211	0.02407
2611.49775	0.02401
2610.53339	0.02396
2609.56902	0.02391
2608.60466	0.02384
2607.64029	0.02379
2606.67593	0.02376
2605.71156	0.02373
2604.7472	0.02371
2603.78284	0.02367
2602.81847	0.02363
2601.85411	0.02357
2600.88974	0.02351
2599.92538	0.02342
2598.96102	0.02332
2597.99665	0.02322
2597.03229	0.02312
2596.06792	0.02301
2595.10356	0.02288
2594.1392	0.02274
2593.17483	0.0226
2592.21047	0.02245
2591.2461	0.02228
2590.28174	0.02209
2589.31738	0.02189
2588.35301	0.0217
2587.38865	0.02151
2586.42428	0.02131
2585.45992	0.02111
2584.49556	0.02093
2583.53119	0.02076
2582.56683	0.02061
2581.60246	0.02046
2580.6381	0.0203
2579.67374	0.02015
2578.70937	0.02001
2577.74501	0.0199
2576.78064	0.0198
2575.81628	0.0197
2574.85192	0.01962
2573.88755	0.01955
2572.92319	0.01948
2571.95882	0.01941
2570.99446	0.01933
2570.0301	0.01922
2569.06573	0.0191
2568.10137	0.01899
2567.137	0.01888
2566.17264	0.01877
2565.20828	0.01866
2564.24391	0.01854
2563.27955	0.01843
2562.31518	0.01832
2561.35082	0.01821
2560.38646	0.01809
2559.42209	0.01798
2558.45773	0.01788
2557.49336	0.01779
2556.529	0.0177
2555.56464	0.01761
2554.60027	0.01752
2553.63591	0.01745
2552.67154	0.01737
2551.70718	0.01729
2550.74282	0.01719
2549.77845	0.0171
2548.81409	0.01702
2547.84972	0.01693
2546.88536	0.01684
2545.921	0.01677
2544.95663	0.0167
2543.99227	0.01664
2543.0279	0.01656
2542.06354	0.01648
2541.09918	0.01641
2540.13481	0.01636
2539.17045	0.01631
2538.20608	0.01627
2537.24172	0.01622
2536.27736	0.01618
2535.31299	0.01614
2534.34863	0.01608
2533.38426	0.01602
2532.4199	0.01597
2531.45554	0.01593
2530.49117	0.0159
2529.52681	0.01589
2528.56244	0.01586
2527.59808	0.01584
2526.63372	0.01583
2525.66935	0.01583
2524.70499	0.01582
2523.74062	0.01582
2522.77626	0.0158
2521.8119	0.01577
2520.84753	0.01574
2519.88317	0.0157
2518.9188	0.01565
2517.95444	0.01561
2516.99008	0.01559
2516.02571	0.01556
2515.06135	0.01552
2514.09698	0.01546
2513.13262	0.0154
2512.16826	0.01534
2511.20389	0.01529
2510.23953	0.01525
2509.27516	0.01521
2508.3108	0.01519
2507.34644	0.01517
2506.38207	0.01515
2505.41771	0.01511
2504.45334	0.01508
2503.48898	0.01504
2502.52462	0.01502
2501.56025	0.015
2500.59589	0.01499
2499.63152	0.01497
2498.66716	0.01495
2497.7028	0.01493
2496.73843	0.01489
2495.77407	0.01485
2494.8097	0.01481
2493.84534	0.01477
2492.88098	0.01473
2491.91661	0.01468
2490.95225	0.01462
2489.98788	0.01457
2489.02352	0.01452
2488.05916	0.01447
2487.09479	0.0144
2486.13043	0.01433
2485.16606	0.01426
2484.2017	0.01421
2483.23734	0.01417
2482.27297	0.01414
2481.30861	0.01411
2480.34424	0.0141
2479.37988	0.0141
2478.41552	0.01411
2477.45115	0.01412
2476.48679	0.01411
2475.52242	0.01408
2474.55806	0.01406
2473.5937	0.01403
2472.62933	0.01399
2471.66497	0.01396
2470.7006	0.01393
2469.73624	0.01391
2468.77187	0.01389
2467.80751	0.01385
2466.84315	0.0138
2465.87878	0.01375
2464.91442	0.01368
2463.95005	0.01361
2462.98569	0.01353
2462.02133	0.01346
2461.05696	0.0134
2460.0926	0.01336
2459.12823	0.0133
2458.16387	0.01325
2457.19951	0.0132
2456.23514	0.01316
2455.27078	0.01312
2454.30641	0.01308
2453.34205	0.01302
2452.37769	0.01298
2451.41332	0.01296
2450.44896	0.01295
2449.48459	0.01295
2448.52023	0.01295
2447.55587	0.01296
2446.5915	0.01298
2445.62714	0.01299
2444.66277	0.01299
2443.69841	0.01299
2442.73405	0.01299
2441.76968	0.01299
2440.80532	0.01299
2439.84095	0.01299
2438.87659	0.01299
2437.91223	0.01299
2436.94786	0.01299
2435.9835	0.01299
2435.01913	0.01299
2434.05477	0.01299
2433.09041	0.01299
2432.12604	0.01299
2431.16168	0.01299
2430.19731	0.01299
2429.23295	0.01299
2428.26859	0.01299
2427.30422	0.01299
2426.33986	0.01299
2425.37549	0.01299
2424.41113	0.01299
2423.44677	0.01299
2422.4824	0.01299
2421.51804	0.01299
2420.55367	0.01299
2419.58931	0.01299
2418.62495	0.01299
2417.66058	0.01299
2416.69622	0.01299
2415.73185	0.01299
2414.76749	0.01299
2413.80313	0.01299
2412.83876	0.01299
2411.8744	0.01299
2410.91003	0.01299
2409.94567	0.01299
2408.98131	0.01299
2408.01694	0.01299
2407.05258	0.01299
2406.08821	0.01299
2405.12385	0.01299
2404.15949	0.01299
2403.19512	0.01299
2402.23076	0.01299
2401.26639	0.01299
2400.30203	0.01299
2399.33767	0.01299
2398.3733	0.01299
2397.40894	0.01299
2396.44457	0.01299
2395.48021	0.01299
2394.51585	0.01299
2393.55148	0.01299
2392.58712	0.01299
2391.62275	0.01299
2390.65839	0.01299
2389.69403	0.01299
2388.72966	0.01299
2387.7653	0.01299
2386.80093	0.01299
2385.83657	0.01299
2384.87221	0.01299
2383.90784	0.01299
2382.94348	0.01299
2381.97911	0.01299
2381.01475	0.01299
2380.05039	0.01299
2379.08602	0.01299
2378.12166	0.01299
2377.15729	0.01299
2376.19293	0.01299
2375.22857	0.01299
2374.2642	0.01299
2373.29984	0.01299
2372.33547	0.01299
2371.37111	0.01299
2370.40675	0.01299
2369.44238	0.01299
2368.47802	0.01299
2367.51365	0.01299
2366.54929	0.01299
2365.58493	0.01299
2364.62056	0.01299
2363.6562	0.01299
2362.69183	0.01299
2361.72747	0.01299
2360.76311	0.01299
2359.79874	0.01299
2358.83438	0.01299
2357.87001	0.01299
2356.90565	0.01299
2355.94129	0.01299
2354.97692	0.01299
2354.01256	0.01299
2353.04819	0.01299
2352.08383	0.01299
2351.11947	0.01299
2350.1551	0.01299
2349.19074	0.01299
2348.22637	0.01299
2347.26201	0.01299
2346.29765	0.01299
2345.33328	0.01299
2344.36892	0.01299
2343.40455	0.01299
2342.44019	0.01299
2341.47583	0.01299
2340.51146	0.01299
2339.5471	0.01299
2338.58273	0.01299
2337.61837	0.01299
2336.65401	0.01299
2335.68964	0.01299
2334.72528	0.01299
2333.76091	0.01299
2332.79655	0.01299
2331.83219	0.01299
2330.86782	0.01299
2329.90346	0.01299
2328.93909	0.01299
2327.97473	0.01299
2327.01036	0.01299
2326.046	0.01299
2325.08164	0.01299
2324.11727	0.01299
2323.15291	0.01299
2322.18854	0.01299
2321.22418	0.01299
2320.25982	0.01299
2319.29545	0.01299
2318.33109	0.01299
2317.36672	0.01299
2316.40236	0.01299
2315.438	0.01299
2314.47363	0.01299
2313.50927	0.01299
2312.5449	0.01299
2311.58054	0.01299
2310.61618	0.01299
2309.65181	0.01299
2308.68745	0.01299
2307.72308	0.01299
2306.75872	0.01299
2305.79436	0.01299
2304.82999	0.01299
2303.86563	0.01299
2302.90126	0.01299
2301.9369	0.01299
2300.97254	0.01299
2300.00817	0.01299
2299.04381	0.01299
2298.07944	0.01299
2297.11508	0.01299
2296.15072	0.01299
2295.18635	0.01299
2294.22199	0.01299
2293.25762	0.01299
2292.29326	0.01299
2291.3289	0.01299
2290.36453	0.01299
2289.40017	0.01299
2288.4358	0.01299
2287.47144	0.01299
2286.50708	0.01299
2285.54271	0.01299
2284.57835	0.01299
2283.61398	0.01299
2282.64962	0.01299
2281.68526	0.01299
2280.72089	0.01299
2279.75653	0.01299
2278.79216	0.01299
2277.8278	0.01299
2276.86344	0.01299
2275.89907	0.01299
2274.93471	0.01299
2273.97034	0.01299
2273.00598	0.01299
2272.04162	0.01299
2271.07725	0.01299
2270.11289	0.01299
2269.14852	0.01299
2268.18416	0.01299
2267.2198	0.01299
2266.25543	0.01299
2265.29107	0.01299
2264.3267	0.01299
2263.36234	0.01299
2262.39798	0.01299
2261.43361	0.01299
2260.46925	0.01299
2259.50488	0.01299
2258.54052	0.01299
2257.57616	0.01299
2256.61179	0.01299
2255.64743	0.01299
2254.68306	0.01299
2253.7187	0.01299
2252.75434	0.01299
2251.78997	0.01299
2250.82561	0.01299
2249.86124	0.01299
2248.89688	0.01299
2247.93252	0.01299
2246.96815	0.01299
2246.00379	0.01299
2245.03942	0.01299
2244.07506	0.01299
2243.1107	0.01299
2242.14633	0.01299
2241.18197	0.01299
2240.2176	0.01299
2239.25324	0.01299
2238.28888	0.01299
2237.32451	0.01299
2236.36015	0.01299
2235.39578	0.013
2234.43142	0.01299
2233.46706	0.01299
2232.50269	0.013
2231.53833	0.01301
2230.57396	0.01298
2229.6096	0.01293
2228.64524	0.01291
2227.68087	0.01292
2226.71651	0.01295
2225.75214	0.01294
2224.78778	0.01292
2223.82342	0.01292
2222.85905	0.01297
2221.89469	0.01302
2220.93032	0.01304
2219.96596	0.01304
2219.0016	0.01306
2218.03723	0.01313
2217.07287	0.01322
2216.1085	0.01329
2215.14414	0.01336
2214.17978	0.01347
2213.21541	0.01362
2212.25105	0.01378
2211.28668	0.01388
2210.32232	0.01398
2209.35796	0.01411
2208.39359	0.01425
2207.42923	0.01437
2206.46486	0.01447
2205.5005	0.01459
2204.53614	0.01474
2203.57177	0.01488
2202.60741	0.015
2201.64304	0.0151
2200.67868	0.01522
2199.71432	0.01537
2198.74995	0.01552
2197.78559	0.01565
2196.82122	0.01576
2195.85686	0.01589
2194.8925	0.01606
2193.92813	0.01625
2192.96377	0.01641
2191.9994	0.01656
2191.03504	0.01672
2190.07068	0.01691
2189.10631	0.01711
2188.14195	0.01727
2187.17758	0.01742
2186.21322	0.01758
2185.24885	0.01777
2184.28449	0.01795
2183.32013	0.0181
2182.35576	0.01824
2181.3914	0.0184
2180.42703	0.01858
2179.46267	0.01877
2178.49831	0.01894
2177.53394	0.0191
2176.56958	0.01928
2175.60521	0.01949
2174.64085	0.01969
2173.67649	0.01984
2172.71212	0.01996
2171.74776	0.0201
2170.78339	0.02026
2169.81903	0.02042
2168.85467	0.02053
2167.8903	0.02062
2166.92594	0.02074
2165.96157	0.02089
2164.99721	0.02101
2164.03285	0.0211
2163.06848	0.02117
2162.10412	0.02126
2161.13975	0.02139
2160.17539	0.02151
2159.21103	0.02159
2158.24666	0.02167
2157.2823	0.02178
2156.31793	0.02192
2155.35357	0.02203
2154.38921	0.0221
2153.42484	0.02215
2152.46048	0.02223
2151.49611	0.02234
2150.53175	0.02242
2149.56739	0.02246
2148.60302	0.02252
2147.63866	0.02261
2146.67429	0.02271
2145.70993	0.02278
2144.74557	0.02283
2143.7812	0.02287
2142.81684	0.02296
2141.85247	0.02309
2140.88811	0.0232
2139.92375	0.0233
2138.95938	0.0234
2137.99502	0.02356
2137.03065	0.02374
2136.06629	0.02391
2135.10193	0.02405
2134.13756	0.02418
2133.1732	0.02434
2132.20883	0.02452
2131.24447	0.02467
2130.28011	0.02478
2129.31574	0.0249
2128.35138	0.02507
2127.38701	0.02526
2126.42265	0.02542
2125.45829	0.02553
2124.49392	0.0256
2123.52956	0.0257
2122.56519	0.02581
2121.60083	0.0259
2120.63647	0.02596
2119.6721	0.02604
2118.70774	0.02617
2117.74337	0.02633
2116.77901	0.02645
2115.81465	0.02655
2114.85028	0.02666
2113.88592	0.02681
2112.92155	0.02697
2111.95719	0.02709
2110.99283	0.02719
2110.02846	0.0273
2109.0641	0.02743
2108.09973	0.02758
2107.13537	0.0277
2106.17101	0.02779
2105.20664	0.02788
2104.24228	0.02802
2103.27791	0.02818
2102.31355	0.02832
2101.34919	0.02841
2100.38482	0.02846
2099.42046	0.02853
2098.45609	0.02862
2097.49173	0.02868
2096.52737	0.02873
2095.563	0.02881
2094.59864	0.02894
2093.63427	0.02907
2092.66991	0.02918
2091.70555	0.02926
2090.74118	0.02935
2089.77682	0.02947
2088.81245	0.02958
2087.84809	0.02966
2086.88373	0.02973
2085.91936	0.02983
2084.955	0.02996
2083.99063	0.03007
2083.02627	0.03015
2082.06191	0.03021
2081.09754	0.03031
2080.13318	0.03046
2079.16881	0.0306
2078.20445	0.0307
2077.24009	0.03079
2076.27572	0.03086
2075.31136	0.03087
2074.34699	0.03082
2073.38263	0.03076
2072.41827	0.03071
2071.4539	0.03068
2070.48954	0.03067
2069.52517	0.03066
2068.56081	0.03064
2067.59645	0.0306
2066.63208	0.0306
2065.66772	0.03064
2064.70335	0.0307
2063.73899	0.03075
2062.77463	0.03078
2061.81026	0.03083
2060.8459	0.03091
2059.88153	0.03099
2058.91717	0.03107
2057.95281	0.03113
2056.98844	0.03123
2056.02408	0.03136
2055.05971	0.03147
2054.09535	0.0315
2053.13099	0.03139
2052.16662	0.03116
2051.20226	0.0309
2050.23789	0.03066
2049.27353	0.03039
2048.30917	0.03009
2047.3448	0.02979
2046.38044	0.02953
2045.41607	0.02927
2044.45171	0.029
2043.48734	0.02873
2042.52298	0.0285
2041.55862	0.02832
2040.59425	0.02817
2039.62989	0.02802
2038.66552	0.02788
2037.70116	0.02776
2036.7368	0.02769
2035.77243	0.02763
2034.80807	0.02757
2033.8437	0.0275
2032.87934	0.02745
2031.91498	0.02744
2030.95061	0.02747
2029.98625	0.02745
2029.02188	0.02731
2028.05752	0.02705
2027.09316	0.02668
2026.12879	0.02627
2025.16443	0.02585
2024.20006	0.02546
2023.2357	0.02513
2022.27134	0.02486
2021.30697	0.02464
2020.34261	0.02444
2019.37824	0.02428
2018.41388	0.02415
2017.44952	0.02406
2016.48515	0.02401
2015.52079	0.02398
2014.55642	0.02399
2013.59206	0.02406
2012.6277	0.02422
2011.66333	0.02441
2010.69897	0.0246
2009.7346	0.02479
2008.77024	0.025
2007.80588	0.02522
2006.84151	0.02537
2005.87715	0.02542
2004.91278	0.02544
2003.94842	0.02547
2002.98406	0.02531
2002.01969	0.02492
2001.05533	0.0245
2000.09096	0.0241
1999.1266	0.02361
1998.16224	0.02306
1997.19787	0.02252
1996.23351	0.022
1995.26914	0.02151
1994.30478	0.02109
1993.34042	0.02075
1992.37605	0.02049
1991.41169	0.0203
1990.44732	0.02015
1989.48296	0.02008
1988.5186	0.02009
1987.55423	0.02016
1986.58987	0.02024
1985.6255	0.02039
1984.66114	0.02063
1983.69678	0.02098
1982.73241	0.02138
1981.76805	0.02172
1980.80368	0.02186
1979.83932	0.02185
1978.87496	0.02185
1977.91059	0.02177
1976.94623	0.02137
1975.98186	0.02075
1975.0175	0.02017
1974.05314	0.01973
1973.08877	0.01935
1972.12441	0.01895
1971.16004	0.01852
1970.19568	0.01814
1969.23132	0.01782
1968.26695	0.01756
1967.30259	0.01735
1966.33822	0.01713
1965.37386	0.01689
1964.4095	0.01668
1963.44513	0.01654
1962.48077	0.01643
1961.5164	0.01637
1960.55204	0.0164
1959.58768	0.01653
1958.62331	0.01679
1957.65895	0.01707
1956.69458	0.01721
1955.73022	0.01714
1954.76586	0.01701
1953.80149	0.01669
1952.83713	0.01601
1951.87276	0.01518
1950.9084	0.01442
1949.94404	0.01375
1948.97967	0.01315
1948.01531	0.01261
1947.05094	0.01216
1946.08658	0.01181
1945.12222	0.0116
1944.15785	0.01141
1943.19349	0.01119
1942.22912	0.01099
1941.26476	0.01091
1940.3004	0.01098
1939.33603	0.01117
1938.37167	0.01143
1937.4073	0.01177
1936.44294	0.0123
1935.47858	0.01311
1934.51421	0.01388
1933.54985	0.01412
1932.58548	0.01394
1931.62112	0.01363
1930.65676	0.01314
1929.69239	0.0125
1928.72803	0.01169
1927.76366	0.01079
1926.7993	0.00999
1925.83494	0.00934
1924.87057	0.00881
1923.90621	0.00837
1922.94184	0.00814
1921.97748	0.0081
1921.01312	0.00809
1920.04875	0.00799
1919.08439	0.00782
1918.12002	0.0076
1917.15566	0.00752
1916.1913	0.00767
1915.22693	0.00797
1914.26257	0.00839
1913.2982	0.0089
1912.33384	0.0094
1911.36948	0.00964
1910.40511	0.0096
1909.44075	0.00971
1908.47638	0.01017
1907.51202	0.0108
1906.54766	0.01111
1905.58329	0.01089
1904.61893	0.01065
1903.65456	0.01066
1902.6902	0.01095
1901.72583	0.01151
1900.76147	0.01194
1899.79711	0.01195
1898.83274	0.01168
1897.86838	0.01128
1896.90401	0.01089
1895.93965	0.01053
1894.97529	0.01017
1894.01092	0.00991
1893.04656	0.00981
1892.08219	0.00984
1891.11783	0.00998
1890.15347	0.01017
1889.1891	0.0104
1888.22474	0.01075
1887.26037	0.01128
1886.29601	0.0119
1885.33165	0.01255
1884.36728	0.01315
1883.40292	0.01369
1882.43855	0.01441
1881.47419	0.0155
1880.50983	0.01656
1879.54546	0.01696
1878.5811	0.01655
1877.61673	0.01537
1876.65237	0.01386
1875.68801	0.01256
1874.72364	0.01153
1873.75928	0.0107
1872.79491	0.01002
1871.83055	0.00946
1870.86619	0.00906
1869.90182	0.00882
1868.93746	0.00871
1867.97309	0.0088
1867.00873	0.00906
1866.04437	0.00949
1865.08	0.01012
1864.11564	0.011
1863.15127	0.01213
1862.18691	0.0135
1861.22255	0.01513
1860.25818	0.01706
1859.29382	0.01898
1858.32945	0.02047
1857.36509	0.02136
1856.40073	0.0217
1855.43636	0.02131
1854.472	0.02032
1853.50763	0.01929
1852.54327	0.01841
1851.57891	0.01769
1850.61454	0.01721
1849.65018	0.01704
1848.68581	0.01704
1847.72145	0.01697
1846.75709	0.01687
1845.79272	0.01697
1844.82836	0.01741
1843.86399	0.01822
1842.89963	0.01954
1841.93527	0.02135
1840.9709	0.02288
1840.00654	0.0238
1839.04217	0.02475
1838.07781	0.02615
1837.11345	0.02776
1836.14908	0.02887
1835.18472	0.02967
1834.22035	0.03058
1833.25599	0.03123
1832.29163	0.03121
1831.32726	0.03124
1830.3629	0.03197
1829.39853	0.03322
1828.43417	0.03476
1827.46981	0.03646
1826.50544	0.03835
1825.54108	0.04043
1824.57671	0.04284
1823.61235	0.04575
1822.64799	0.04892
1821.68362	0.05196
1820.71926	0.05502
1819.75489	0.05831
1818.79053	0.06131
1817.82617	0.0635
1816.8618	0.06564
1815.89744	0.06861
1814.93307	0.07226
1813.96871	0.07593
1813.00435	0.07921
1812.03998	0.0826
1811.07562	0.08617
1810.11125	0.08968
1809.14689	0.0935
1808.18253	0.09785
1807.21816	0.10236
1806.2538	0.10694
1805.28943	0.1119
1804.32507	0.11728
1803.36071	0.12244
1802.39634	0.12715
1801.43198	0.1317
1800.46761	0.13627
1799.50325	0.14082
1798.53889	0.14553
1797.57452	0.15096
1796.61016	0.15703
1795.64579	0.16331
1794.68143	0.17007
1793.71707	0.17778
1792.7527	0.18645
1791.78834	0.19563
1790.82397	0.20491
1789.85961	0.21429
1788.89525	0.224
1787.93088	0.23404
1786.96652	0.24418
1786.00215	0.25405
1785.03779	0.26321
1784.07343	0.27118
1783.10906	0.27702
1782.1447	0.28062
1781.18033	0.28215
1780.21597	0.28165
1779.25161	0.27942
1778.28724	0.27565
1777.32288	0.27071
1776.35851	0.26475
1775.39415	0.25791
1774.42979	0.25044
1773.46542	0.24209
1772.50106	0.23261
1771.53669	0.22296
1770.57233	0.21386
1769.60797	0.20539
1768.6436	0.19737
1767.67924	0.18983
1766.71487	0.18342
1765.75051	0.17855
1764.78615	0.17527
1763.82178	0.17336
1762.85742	0.1724
1761.89305	0.17223
1760.92869	0.17297
1759.96432	0.17429
1758.99996	0.17675
1758.0356	0.18068
1757.07123	0.18555
1756.10687	0.19069
1755.1425	0.1957
1754.17814	0.20024
1753.21378	0.20427
1752.24941	0.20798
1751.28505	0.21081
1750.32068	0.21161
1749.35632	0.21067
1748.39196	0.20921
1747.42759	0.20762
1746.46323	0.20588
1745.49886	0.20289
1744.5345	0.19742
1743.57014	0.19143
1742.60577	0.18601
1741.64141	0.181
1740.67704	0.17586
1739.71268	0.1708
1738.74832	0.16665
1737.78395	0.16403
1736.81959	0.16269
1735.85522	0.16242
1734.89086	0.16318
1733.9265	0.16481
1732.96213	0.16719
1731.99777	0.17021
1731.0334	0.17409
1730.06904	0.17938
1729.10468	0.18455
1728.14031	0.18875
1727.17595	0.19287
1726.21158	0.19749
1725.24722	0.20245
1724.28286	0.208
1723.31849	0.21407
1722.35413	0.21985
1721.38976	0.22541
1720.4254	0.23233
1719.46104	0.24022
1718.49667	0.24835
1717.53231	0.25603
1716.56794	0.26291
1715.60358	0.26857
1714.63922	0.27268
1713.67485	0.27536
1712.71049	0.27685
1711.74612	0.2767
1710.78176	0.27335
1709.8174	0.26781
1708.85303	0.26079
1707.88867	0.25207
1706.9243	0.24001
1705.95994	0.22458
1704.99558	0.20819
1704.03121	0.19224
1703.06685	0.17675
1702.10248	0.16248
1701.13812	0.15024
1700.17376	0.14
1699.20939	0.13161
1698.24503	0.12522
1697.28066	0.12144
1696.3163	0.12063
1695.35194	0.11986
1694.38757	0.11777
1693.42321	0.11587
1692.45884	0.11509
1691.49448	0.11525
1690.53012	0.11597
1689.56575	0.11735
1688.60139	0.11891
1687.63702	0.1202
1686.67266	0.12194
1685.7083	0.12327
1684.74393	0.12422
1683.77957	0.12487
1682.8152	0.1264
1681.85084	0.12898
1680.88648	0.13192
1679.92211	0.13429
1678.95775	0.13634
1677.99338	0.13851
1677.02902	0.14112
1676.06466	0.14466
1675.10029	0.14943
1674.13593	0.15466
1673.17156	0.15902
1672.2072	0.16152
1671.24284	0.16454
1670.27847	0.16972
1669.31411	0.17613
1668.34974	0.18309
1667.38538	0.19087
1666.42102	0.20013
1665.45665	0.21088
1664.49229	0.22036
1663.52792	0.22636
1662.56356	0.2309
1661.5992	0.23534
1660.63483	0.23957
1659.67047	0.24316
1658.7061	0.24515
1657.74174	0.24379
1656.77738	0.2391
1655.81301	0.23318
1654.84865	0.22696
1653.88428	0.22046
1652.91992	0.2136
1651.95556	0.20624
1650.99119	0.19837
1650.02683	0.19078
1649.06246	0.18435
1648.0981	0.17896
1647.13374	0.17376
1646.16937	0.16796
1645.20501	0.16259
1644.24064	0.15825
1643.27628	0.15483
1642.31192	0.15166
1641.34755	0.14749
1640.38319	0.14372
1639.41882	0.14219
1638.45446	0.1417
1637.4901	0.14203
1636.52573	0.14297
1635.56137	0.14367
1634.597	0.14314
1633.63264	0.14201
1632.66828	0.14148
1631.70391	0.14162
1630.73955	0.14222
1629.77518	0.14324
1628.81082	0.14455
1627.84646	0.14501
1626.88209	0.14447
1625.91773	0.14336
1624.95336	0.14143
1623.989	0.13848
1623.02464	0.13529
1622.06027	0.13343
1621.09591	0.13264
1620.13154	0.13228
1619.16718	0.1321
1618.20281	0.13199
1617.23845	0.13174
1616.27409	0.13121
1615.30972	0.13052
1614.34536	0.12998
1613.38099	0.12934
1612.41663	0.1281
1611.45227	0.12565
1610.4879	0.1223
1609.52354	0.11889
1608.55917	0.11551
1607.59481	0.11206
1606.63045	0.10829
1605.66608	0.1036
1604.70172	0.09766
1603.73735	0.09186
1602.77299	0.08707
1601.80863	0.08302
1600.84426	0.07945
1599.8799	0.07631
1598.91553	0.07362
1597.95117	0.07121
1596.98681	0.06891
1596.02244	0.06668
1595.05808	0.06444
1594.09371	0.06226
1593.12935	0.06023
1592.16499	0.05816
1591.20062	0.05585
1590.23626	0.05343
1589.27189	0.05127
1588.30753	0.04938
1587.34317	0.04658
1586.3788	0.04255
1585.41444	0.03809
1584.45007	0.03363
1583.48571	0.02939
1582.52135	0.02565
1581.55698	0.02249
1580.59262	0.01888
1579.62825	0.0147
1578.66389	0.0108
1577.69953	0.00761
1576.73516	0.00505
1575.7708	0.00273
1574.80643	8.78111E-4
1573.84207	0
1572.87771	3.89505E-4
1571.91334	0.00242
1570.94898	0.00638
1569.98461	0.00815
1569.02025	0.00738
1568.05589	0.00644
1567.09152	0.00606
1566.12716	0.00589
1565.16279	0.00484
1564.19843	0.00287
1563.23407	0.00158
1562.2697	0.00191
1561.30534	0.00283
1560.34097	0.00364
1559.37661	0.00475
1558.41225	0.00615
1557.44788	0.00755
1556.48352	0.00964
1555.51915	0.01255
1554.55479	0.01596
1553.59043	0.01948
1552.62606	0.023
1551.6617	0.02702
1550.69733	0.02969
1549.73297	0.03114
1548.76861	0.03249
1547.80424	0.03303
1546.83988	0.03114
1545.87551	0.0305
1544.91115	0.03224
1543.94679	0.03443
1542.98242	0.03663
1542.01806	0.03928
1541.05369	0.04366
1540.08933	0.04991
1539.12497	0.0569
1538.1606	0.06362
1537.19624	0.07041
1536.23187	0.07779
1535.26751	0.08564
1534.30315	0.09376
1533.33878	0.10138
1532.37442	0.10645
1531.41005	0.10895
1530.44569	0.10991
1529.48133	0.10975
1528.51696	0.10788
1527.5526	0.10262
1526.58823	0.0967
1525.62387	0.09181
1524.65951	0.08766
1523.69514	0.08385
1522.73078	0.07986
1521.76641	0.07555
1520.80205	0.07166
1519.83769	0.06907
1518.87332	0.06765
1517.90896	0.06488
1516.94459	0.05986
1515.98023	0.05436
1515.01587	0.04934
1514.0515	0.04526
1513.08714	0.04208
1512.12277	0.04007
1511.15841	0.03923
1510.19405	0.03844
1509.22968	0.03655
1508.26532	0.03509
1507.30095	0.03463
1506.33659	0.03463
1505.37223	0.03459
1504.40786	0.03447
1503.4435	0.03586
1502.47913	0.03934
1501.51477	0.04386
1500.55041	0.048
1499.58604	0.05191
1498.62168	0.0558
1497.65731	0.05941
1496.69295	0.06249
1495.72859	0.06459
1494.76422	0.06522
1493.79986	0.06695
1492.83549	0.07162
1491.87113	0.07802
1490.90677	0.08551
1489.9424	0.09388
1488.97804	0.10313
1488.01367	0.1129
1487.04931	0.12223
1486.08495	0.13105
1485.12058	0.13963
1484.15622	0.14713
1483.19185	0.15303
1482.22749	0.15836
1481.26312	0.16363
1480.29876	0.16882
1479.3344	0.1735
1478.37003	0.17704
1477.40567	0.17984
1476.4413	0.18256
1475.47694	0.18467
1474.51258	0.18673
1473.54821	0.18958
1472.58385	0.19343
1471.61948	0.19836
1470.65512	0.20426
1469.69076	0.21043
1468.72639	0.21557
1467.76203	0.21901
1466.79766	0.22118
1465.8333	0.22243
1464.86894	0.22293
1463.90457	0.22286
1462.94021	0.22243
1461.97584	0.22143
1461.01148	0.21942
1460.04712	0.21694
1459.08275	0.21514
1458.11839	0.21387
1457.15402	0.21302
1456.18966	0.21258
1455.2253	0.21247
1454.26093	0.2125
1453.29657	0.2123
1452.3322	0.21191
1451.36784	0.21205
1450.40348	0.21286
1449.43911	0.21426
1448.47475	0.21584
1447.51038	0.21607
1446.54602	0.21413
1445.58166	0.21009
1444.61729	0.20488
1443.65293	0.19985
1442.68856	0.19554
1441.7242	0.19197
1440.75984	0.18861
1439.79547	0.18539
1438.83111	0.18284
1437.86674	0.18126
1436.90238	0.18053
1435.93802	0.18022
1434.97365	0.17997
1434.00929	0.18024
1433.04492	0.18169
1432.08056	0.18467
1431.1162	0.18904
1430.15183	0.19392
1429.18747	0.19915
1428.2231	0.20485
1427.25874	0.21085
1426.29438	0.21693
1425.33001	0.22268
1424.36565	0.22783
1423.40128	0.23306
1422.43692	0.23848
1421.47256	0.24365
1420.50819	0.2485
1419.54383	0.25314
1418.57946	0.2575
1417.6151	0.26158
1416.65074	0.26554
1415.68637	0.26911
1414.72201	0.27234
1413.75764	0.27534
1412.79328	0.2779
1411.82892	0.27998
1410.86455	0.28217
1409.90019	0.28446
1408.93582	0.28648
1407.97146	0.28793
1407.0071	0.28849
1406.04273	0.2882
1405.07837	0.28714
1404.114	0.28576
1403.14964	0.28445
1402.18528	0.28326
1401.22091	0.28227
1400.25655	0.28174
1399.29218	0.28177
1398.32782	0.28197
1397.36346	0.28223
1396.39909	0.28303
1395.43473	0.28468
1394.47036	0.28701
1393.506	0.28944
1392.54164	0.29171
1391.57727	0.29419
1390.61291	0.29696
1389.64854	0.2997
1388.68418	0.30205
1387.71982	0.30379
1386.75545	0.30496
1385.79109	0.30575
1384.82672	0.30599
1383.86236	0.30546
1382.898	0.3042
1381.93363	0.30301
1380.96927	0.30259
1380.0049	0.30259
1379.04054	0.30244
1378.07618	0.30211
1377.11181	0.30183
1376.14745	0.3016
1375.18308	0.3012
1374.21872	0.30049
1373.25436	0.29923
1372.28999	0.29741
1371.32563	0.29513
1370.36126	0.2924
1369.3969	0.28911
1368.43254	0.28516
1367.46817	0.28072
1366.50381	0.27596
1365.53944	0.27089
1364.57508	0.26558
1363.61072	0.26
1362.64635	0.25429
1361.68199	0.249
1360.71762	0.24464
1359.75326	0.24113
1358.7889	0.23825
1357.82453	0.23595
1356.86017	0.23414
1355.8958	0.23281
1354.93144	0.23213
1353.96708	0.23234
1353.00271	0.23375
1352.03835	0.23624
1351.07398	0.23889
1350.10962	0.24134
1349.14526	0.24441
1348.18089	0.24876
1347.21653	0.25451
1346.25216	0.26148
1345.2878	0.2694
1344.32344	0.27808
1343.35907	0.28738
1342.39471	0.29708
1341.43034	0.30691
1340.46598	0.31643
1339.50161	0.32532
1338.53725	0.3334
1337.57289	0.34048
1336.60852	0.34622
1335.64416	0.35038
1334.67979	0.35286
1333.71543	0.35377
1332.75107	0.35327
1331.7867	0.35138
1330.82234	0.34803
1329.85797	0.3432
1328.89361	0.33695
1327.92925	0.32942
1326.96488	0.32109
1326.00052	0.31264
1325.03615	0.3044
1324.07179	0.29654
1323.10743	0.28927
1322.14306	0.28265
1321.1787	0.27668
1320.21433	0.2715
1319.24997	0.26731
1318.28561	0.2642
1317.32124	0.26206
1316.35688	0.26077
1315.39251	0.2604
1314.42815	0.26114
1313.46379	0.26296
1312.49942	0.26555
1311.53506	0.26861
1310.57069	0.27205
1309.60633	0.27586
1308.64197	0.27977
1307.6776	0.2832
1306.71324	0.28575
1305.74887	0.28746
1304.78451	0.28844
1303.82015	0.28861
1302.85578	0.28768
1301.89142	0.28537
1300.92705	0.28175
1299.96269	0.2772
1298.99833	0.27191
1298.03396	0.26576
1297.0696	0.25878
1296.10523	0.25129
1295.14087	0.24378
1294.17651	0.23651
1293.21214	0.22945
1292.24778	0.22266
1291.28341	0.21643
1290.31905	0.21106
1289.35469	0.20662
1288.39032	0.20294
1287.42596	0.19994
1286.46159	0.19779
1285.49723	0.19671
1284.53287	0.19668
1283.5685	0.19752
1282.60414	0.19911
1281.63977	0.2016
1280.67541	0.20517
1279.71105	0.20971
1278.74668	0.2149
1277.78232	0.22057
1276.81795	0.22673
1275.85359	0.2334
1274.88923	0.24042
1273.92486	0.2476
1272.9605	0.25478
1271.99613	0.262
1271.03177	0.26918
1270.06741	0.27608
1269.10304	0.28232
1268.13868	0.28773
1267.17431	0.29239
1266.20995	0.29641
1265.24559	0.29969
1264.28122	0.30211
1263.31686	0.30378
1262.35249	0.30501
1261.38813	0.30609
1260.42377	0.30698
1259.4594	0.30754
1258.49504	0.30788
1257.53067	0.3083
1256.56631	0.30899
1255.60195	0.3099
1254.63758	0.31084
1253.67322	0.31188
1252.70885	0.31324
1251.74449	0.31502
1250.78013	0.31706
1249.81576	0.31909
1248.8514	0.32099
1247.88703	0.32287
1246.92267	0.32484
1245.95831	0.32674
1244.99394	0.32837
1244.02958	0.32976
1243.06521	0.33118
1242.10085	0.33279
1241.13649	0.33457
1240.17212	0.33644
1239.20776	0.33846
1238.24339	0.34084
1237.27903	0.34368
1236.31467	0.34687
1235.3503	0.35036
1234.38594	0.35441
1233.42157	0.35937
1232.45721	0.36534
1231.49285	0.37214
1230.52848	0.37948
1229.56412	0.38715
1228.59975	0.39502
1227.63539	0.40286
1226.67103	0.41035
1225.70666	0.41721
1224.7423	0.42341
1223.77793	0.429
1222.81357	0.43391
1221.84921	0.43797
1220.88484	0.4411
1219.92048	0.44344
1218.95611	0.44519
1217.99175	0.44645
1217.02739	0.44717
1216.06302	0.4474
1215.09866	0.44741
1214.13429	0.44754
1213.16993	0.44796
1212.20557	0.44877
1211.2412	0.45003
1210.27684	0.45183
1209.31247	0.45414
1208.34811	0.45673
1207.38375	0.45931
1206.41938	0.46168
1205.45502	0.46386
1204.49065	0.46591
1203.52629	0.46775
1202.56193	0.46922
1201.59756	0.47019
1200.6332	0.47068
1199.66883	0.47071
1198.70447	0.47019
1197.7401	0.46896
1196.77574	0.46698
1195.81138	0.46439
1194.84701	0.46135
1193.88265	0.45795
1192.91828	0.45426
1191.95392	0.45038
1190.98956	0.44657
1190.02519	0.44308
1189.06083	0.44009
1188.09646	0.43772
1187.1321	0.43625
1186.16774	0.43603
1185.20337	0.43738
1184.23901	0.44056
1183.27464	0.44567
1182.31028	0.45274
1181.34592	0.46174
1180.38155	0.47252
1179.41719	0.48472
1178.45282	0.49794
1177.48846	0.51185
1176.5241	0.52616
1175.55973	0.54058
1174.59537	0.5548
1173.631	0.56856
1172.66664	0.58174
1171.70228	0.59429
1170.73791	0.60614
1169.77355	0.61718
1168.80918	0.62738
1167.84482	0.63684
1166.88046	0.64567
1165.91609	0.65385
1164.95173	0.66133
1163.98736	0.66804
1163.023	0.67391
1162.05864	0.67886
1161.09427	0.68271
1160.12991	0.68518
1159.16554	0.68608
1158.20118	0.68532
1157.23682	0.68282
1156.27245	0.67855
1155.30809	0.67253
1154.34372	0.66492
1153.37936	0.65601
1152.415	0.64606
1151.45063	0.63537
1150.48627	0.62426
1149.5219	0.61314
1148.55754	0.60242
1147.59318	0.59238
1146.62881	0.58325
1145.66445	0.57526
1144.70008	0.56859
1143.73572	0.56329
1142.77136	0.55928
1141.80699	0.55644
1140.84263	0.55467
1139.87826	0.55389
1138.9139	0.55401
1137.94954	0.55488
1136.98517	0.5564
1136.02081	0.55855
1135.05644	0.56135
1134.09208	0.56477
1133.12772	0.56874
1132.16335	0.57325
1131.19899	0.57836
1130.23462	0.58413
1129.27026	0.59055
1128.3059	0.59752
1127.34153	0.60499
1126.37717	0.61296
1125.4128	0.62147
1124.44844	0.63049
1123.48408	0.63992
1122.51971	0.64972
1121.55535	0.65989
1120.59098	0.67037
1119.62662	0.68107
1118.66226	0.69187
1117.69789	0.70268
1116.73353	0.71353
1115.76916	0.72443
1114.8048	0.73528
1113.84044	0.7459
1112.87607	0.75617
1111.91171	0.76601
1110.94734	0.77528
1109.98298	0.78373
1109.01862	0.79112
1108.05425	0.79733
1107.08989	0.80237
1106.12552	0.80628
1105.16116	0.80908
1104.1968	0.81074
1103.23243	0.81145
1102.26807	0.81151
1101.3037	0.81118
1100.33934	0.81058
1099.37498	0.80982
1098.41061	0.80908
1097.44625	0.80865
1096.48188	0.80878
1095.51752	0.80953
1094.55316	0.8109
1093.58879	0.81302
1092.62443	0.81605
1091.66006	0.81995
1090.6957	0.82447
1089.73134	0.82927
1088.76697	0.83408
1087.80261	0.83869
1086.83824	0.84279
1085.87388	0.84597
1084.90952	0.84791
1083.94515	0.84857
1082.98079	0.84812
1082.01642	0.84669
1081.05206	0.84428
1080.0877	0.84098
1079.12333	0.83712
1078.15897	0.83312
1077.1946	0.82934
1076.23024	0.82596
1075.26588	0.82328
1074.30151	0.82179
1073.33715	0.82193
1072.37278	0.82393
1071.40842	0.82779
1070.44406	0.83347
1069.47969	0.84101
1068.51533	0.85037
1067.55096	0.86129
1066.5866	0.87332
1065.62224	0.88598
1064.65787	0.89886
1063.69351	0.91156
1062.72914	0.92356
1061.76478	0.93432
1060.80042	0.94348
1059.83605	0.95106
1058.87169	0.95722
1057.90732	0.96212
1056.94296	0.96591
1055.97859	0.96894
1055.01423	0.97167
1054.04987	0.97445
1053.0855	0.97742
1052.12114	0.98053
1051.15677	0.98378
1050.19241	0.98715
1049.22805	0.99057
1048.26368	0.99377
1047.29932	0.99645
1046.33495	0.99843
1045.37059	0.99964
1044.40623	1
1043.44186	0.99924
1042.4775	0.99702
1041.51313	0.99314
1040.54877	0.9876
1039.58441	0.98047
1038.62004	0.97174
1037.65568	0.96151
1036.69131	0.95016
1035.72695	0.93827
1034.76259	0.9264
1033.79822	0.9148
1032.83386	0.90356
1031.86949	0.89285
1030.90513	0.88293
1029.94077	0.8739
1028.9764	0.86571
1028.01204	0.85828
1027.04767	0.85171
1026.08331	0.84623
1025.11895	0.84202
1024.15458	0.8391
1023.19022	0.83739
1022.22585	0.83688
1021.26149	0.83762
1020.29713	0.83953
1019.33276	0.84231
1018.3684	0.84559
1017.40403	0.84918
1016.43967	0.85296
1015.47531	0.85669
1014.51094	0.85992
1013.54658	0.86225
1012.58221	0.86345
1011.61785	0.86334
1010.65349	0.86168
1009.68912	0.85812
1008.72476	0.85246
1007.76039	0.84463
1006.79603	0.83468
1005.83167	0.82262
1004.8673	0.80843
1003.90294	0.79218
1002.93857	0.77409
1001.97421	0.75449
1001.00985	0.73365
1000.04548	0.71179
999.08112	0.68914
998.11675	0.66608
997.15239	0.64302
996.18803	0.62024
995.22366	0.59793
994.2593	0.57624
993.29493	0.55544
992.33057	0.53566
991.36621	0.51695
990.40184	0.49921
989.43748	0.4824
988.47311	0.46643
987.50875	0.45128
986.54439	0.43687
985.58002	0.42311
984.61566	0.40998
983.65129	0.39761
982.68693	0.38613
981.72257	0.37567
980.7582	0.36631
979.79384	0.35822
978.82947	0.35164
977.86511	0.34679
976.90075	0.34375
975.93638	0.34252
974.97202	0.34305
974.00765	0.34526
973.04329	0.34902
972.07893	0.35409
971.11456	0.36016
970.1502	0.36692
969.18583	0.37403
968.22147	0.38113
967.25711	0.38779
966.29274	0.39357
965.32838	0.39813
964.36401	0.40133
963.39965	0.40318
962.43529	0.40373
961.47092	0.40307
960.50656	0.4013
959.54219	0.39853
958.57783	0.3949
957.61347	0.3906
956.6491	0.38579
955.68474	0.38064
954.72037	0.37538
953.75601	0.37024
952.79165	0.36541
951.82728	0.36102
950.86292	0.3571
949.89855	0.35361
948.93419	0.35045
947.96983	0.34752
947.00546	0.34466
946.0411	0.34166
945.07673	0.3383
944.11237	0.3344
943.14801	0.32988
942.18364	0.32474
941.21928	0.31897
940.25491	0.31252
939.29055	0.30534
938.32619	0.29745
937.36182	0.28888
936.39746	0.27965
935.43309	0.26984
934.46873	0.25969
933.50437	0.24964
932.54	0.24013
931.57564	0.23143
930.61127	0.22368
929.64691	0.21696
928.68255	0.21139
927.71818	0.20696
926.75382	0.20347
925.78945	0.20068
924.82509	0.19845
923.86073	0.19678
922.89636	0.19563
921.932	0.19482
920.96763	0.1941
920.00327	0.19334
919.03891	0.19256
918.07454	0.19168
917.11018	0.19044
916.14581	0.18858
915.18145	0.18606
914.21708	0.18301
913.25272	0.17947
912.28836	0.17536
911.32399	0.17067
910.35963	0.16559
909.39526	0.16037
908.4309	0.15507
907.46654	0.14958
906.50217	0.14382
905.53781	0.13793
904.57344	0.13218
903.60908	0.12663
902.64472	0.12112
901.68035	0.11553
900.71599	0.11003
899.75162	0.10499
898.78726	0.10089
897.8229	0.09811
896.85853	0.09682
895.89417	0.09696
894.9298	0.09837
893.96544	0.10064
893.00108	0.10321
892.03671	0.10572
891.07235	0.1081
890.10798	0.11037
889.14362	0.11232
888.17926	0.11353
887.21489	0.11379
886.25053	0.11321
885.28616	0.11196
884.3218	0.10996
883.35744	0.10699
882.39307	0.10303
881.42871	0.0984
880.46434	0.09356
879.49998	0.08869
878.53562	0.08389
877.57125	0.07961
876.60689	0.07673
875.64252	0.07602
874.67816	0.07749
873.7138	0.08056
872.74943	0.08475
871.78507	0.09011
870.8207	0.09673
869.85634	0.10429
868.89198	0.11228
867.92761	0.12047
866.96325	0.12887
865.99888	0.13737
865.03452	0.14546
864.07016	0.15254
863.10579	0.15839
862.14143	0.16316
861.17706	0.16683
860.2127	0.16905
859.24834	0.16943
858.28397	0.16808
857.31961	0.16552
856.35524	0.16214
855.39088	0.15785
854.42652	0.15253
853.46215	0.14647
852.49779	0.14026
851.53342	0.13424
850.56906	0.12826
849.6047	0.12212
848.64033	0.11605
847.67597	0.11048
846.7116	0.10553
845.74724	0.10083
844.78288	0.09601
843.81851	0.09114
842.85415	0.08658
841.88978	0.08238
840.92542	0.07809
839.96106	0.07339
838.99669	0.06843
838.03233	0.06361
837.06796	0.05899
836.1036	0.05418
835.13924	0.04899
834.17487	0.04387
833.21051	0.03945
832.24614	0.03587
831.28178	0.03275
830.31742	0.02991
829.35305	0.02769
828.38869	0.02648
827.42432	0.02606
826.45996	0.0258
825.4956	0.02537
824.53123	0.0251
823.56687	0.02535
822.6025	0.02591
821.63814	0.02614
820.67378	0.02584
819.70941	0.02542
818.74505	0.02529
817.78068	0.02522
816.81632	0.02463
815.85196	0.02339
814.88759	0.02202
813.92323	0.02098
812.95886	0.02011
811.9945	0.01897
811.03014	0.01765
810.06577	0.01679
809.10141	0.01671
808.13704	0.01703
807.17268	0.01715
806.20832	0.01709
805.24395	0.01733
804.27959	0.01803
803.31522	0.01871
802.35086	0.01887
801.3865	0.01863
800.42213	0.01858
799.45777	0.01893
798.4934	0.0192
797.52904	0.01896
796.56468	0.01843
795.60031	0.01828
794.63595	0.01872
793.67158	0.01926
792.70722	0.01949
791.74286	0.01971
790.77849	0.0206
789.81413	0.02238
788.84976	0.02465
787.8854	0.02706
786.92104	0.02985
785.95667	0.03345
784.99231	0.03771
784.02794	0.04191
783.06358	0.04561
782.09922	0.04906
781.13485	0.05275
780.17049	0.0566
779.20612	0.06002
778.24176	0.06274
777.2774	0.06524
776.31303	0.06812
775.34867	0.07128
774.3843	0.07415
773.41994	0.07658
772.45557	0.07916
771.49121	0.08247
770.52685	0.08636
769.56248	0.09026
768.59812	0.0941
767.63375	0.09849
766.66939	0.10397
765.70503	0.11019
764.74066	0.11634
763.7763	0.12211
762.81193	0.12788
761.84757	0.13395
760.88321	0.13988
759.91884	0.14503
758.95448	0.14931
757.99011	0.15315
757.02575	0.15673
756.06139	0.15959
755.09702	0.16106
754.13266	0.16114
753.16829	0.16035
752.20393	0.15896
751.23957	0.15657
750.2752	0.15274
749.31084	0.14773
748.34647	0.14225
747.38211	0.13664
746.41775	0.13053
745.45338	0.12355
744.48902	0.11599
743.52465	0.10854
742.56029	0.1015
741.59593	0.09456
740.63156	0.08752
739.6672	0.08086
738.70283	0.07529
737.73847	0.07094
736.77411	0.06726
735.80974	0.06382
734.84538	0.06087
733.88101	0.05881
732.91665	0.05747
731.95229	0.05643
730.98792	0.0557
730.02356	0.05571
729.05919	0.05669
728.09483	0.05835
727.13047	0.06004
726.1661	0.06149
725.20174	0.06311
724.23737	0.06537
723.27301	0.06815
722.30865	0.07089
721.34428	0.07337
720.37992	0.07607
719.41555	0.07947
718.45119	0.08339
717.48683	0.08727
716.52246	0.09093
715.5581	0.09475
714.59373	0.09907
713.62937	0.10356
712.66501	0.10764
711.70064	0.11116
710.73628	0.1145
709.77191	0.11807
708.80755	0.12175
707.84319	0.12493
706.87882	0.1272
705.91446	0.12875
704.95009	0.12989
703.98573	0.13032
703.02137	0.12964
702.057	0.12797
701.09264	0.12594
700.12827	0.12393
699.16391	0.12162
698.19955	0.11863
697.23518	0.11528
696.27082	0.11226
695.30645	0.10987
694.34209	0.10776
693.37773	0.10557
692.41336	0.10359
691.449	0.10243
690.48463	0.10219
689.52027	0.10238
688.55591	0.10269
687.59154	0.10337
686.62718	0.10483
685.66281	0.10696
684.69845	0.10923
683.73409	0.11122
682.76972	0.11284
681.80536	0.11382
680.84099	0.11358
679.87663	0.11337
678.91227	0.11697
677.9479	0.1225
676.98354	0.1284
676.01917	0.13371
675.05481	0.13783
674.09045	0.14084
673.12608	0.14321
672.16172	0.14527
671.19735	0.14691
670.23299	0.14781
669.26863	0.14797
668.30426	0.14779
667.3399	0.14755
666.37553	0.14711
665.41117	0.14624
664.44681	0.14498
663.48244	0.14365
662.51808	0.14237
661.55371	0.14077
660.58935	0.13849
659.62499	0.1358
658.66062	0.13356
657.69626	0.13305
656.73189	0.13582
655.76753	0.14131
654.80317	0.14482
653.8388	0.14678
652.87444	0.14807
651.91007	0.14888
650.94571	0.14911
649.98135	0.14889
649.01698	0.14854
648.05262	0.14821
647.08825	0.14765
646.12389	0.1466
645.15953	0.14529
644.19516	0.1441
643.2308	0.14315
642.26643	0.14222
641.30207	0.14117
640.33771	0.1402
639.37334	0.13961
638.40898	0.13943
637.44461	0.13953
636.48025	0.13977
635.51589	0.14014
634.55152	0.14081
633.58716	0.14183
632.62279	0.14303
631.65843	0.14428
630.69406	0.14565
629.7297	0.14727
628.76534	0.14942
627.80097	0.15215
626.83661	0.15524
625.87224	0.15867
624.90788	0.16256
623.94352	0.16687
622.97915	0.1714
622.01479	0.1761
621.05042	0.18106
620.08606	0.18633
619.1217	0.19182
618.15733	0.19738
617.19297	0.20292
616.2286	0.20839
615.26424	0.21368
614.29988	0.21856
613.33551	0.22285
612.37115	0.22658
611.40678	0.22986
610.44242	0.23267
609.47806	0.23479
608.51369	0.23614
607.54933	0.23694
606.58496	0.2376
605.6206	0.23843
604.65624	0.2393
603.69187	0.23994
602.72751	0.24036
601.76314	0.24087
600.79878	0.24168
599.83442	0.24272
598.87005	0.24387
597.90569	0.24512
596.94132	0.24657
595.97696	0.24811
595.0126	0.24948
594.04823	0.25055
593.08387	0.25142
592.1195	0.25208
591.15514	0.25246
590.19078	0.25261
589.22641	0.25258
588.26205	0.25232
587.29768	0.25171
586.33332	0.25082
585.36896	0.24991
584.40459	0.24909
583.44023	0.24827
582.47586	0.24753
581.5115	0.24711
580.54714	0.24704
579.58277	0.24716
578.61841	0.24741
577.65404	0.24783
576.68968	0.24844
575.72532	0.24923
574.76095	0.25
573.79659	0.25046
572.83222	0.25054
571.86786	0.2504
570.9035	0.25024
569.93913	0.24995
568.97477	0.2493
568.0104	0.24838
567.04604	0.24747
566.08168	0.24648
565.11731	0.24514
564.15295	0.24343
563.18858	0.2417
562.22422	0.24019
561.25986	0.23871
560.29549	0.23695
559.33113	0.23496
558.36676	0.23305
557.4024	0.23137
556.43804	0.22973
555.47367	0.22791
554.50931	0.22607
553.54494	0.22459
552.58058	0.22347
551.61622	0.22237
550.65185	0.22101
549.68749	0.21951
548.72312	0.21828
547.75876	0.2175
546.7944	0.21688
545.83003	0.21608
544.86567	0.21515
543.9013	0.21438
542.93694	0.21381
541.97258	0.21328
541.00821	0.21257
540.04385	0.21174
539.07948	0.21107
538.11512	0.21051
537.15076	0.20952
536.18639	0.20778
535.22203	0.20568
534.25766	0.20358
533.2933	0.20153
532.32894	0.19944
531.36457	0.1972
530.40021	0.19483
529.43584	0.19242
528.47148	0.18982
527.50712	0.18671
526.54275	0.18331
525.57839	0.18017
524.61402	0.17751
523.64966	0.17508
522.6853	0.17266
521.72093	0.1703
520.75657	0.16828
519.7922	0.16677
518.82784	0.1655
517.86348	0.16403
516.89911	0.16247
515.93475	0.16133
514.97038	0.16059
514.00602	0.15966
513.04166	0.15821
512.07729	0.15662
511.11293	0.15535
510.14856	0.15437
509.1842	0.15335
508.21984	0.152
507.25547	0.15057
506.29111	0.14944
505.32674	0.14851
504.36238	0.14743
503.39802	0.14614
502.43365	0.14483
501.46929	0.14388
500.50492	0.14338
499.54056	0.14299
498.5762	0.14264
497.61183	0.14269
496.64747	0.14325
495.6831	0.14377
494.71874	0.14358
493.75437	0.1429
492.79001	0.14244
491.82565	0.14225
490.86128	0.14166
489.89692	0.1402
488.93255	0.13834
487.96819	0.13672
487.00383	0.13542
486.03946	0.13411
485.0751	0.13266
484.11073	0.13122
483.14637	0.12956
482.18201	0.12748
481.21764	0.12492
480.25328	0.12179
479.28891	0.11854
478.32455	0.11585
477.36019	0.11365
476.39582	0.11142
475.43146	0.10909
474.46709	0.10712
473.50273	0.10571
472.53837	0.10433
471.574	0.10241
470.60964	0.10038
469.64527	0.09891
468.68091	0.09748
467.71655	0.09519
466.75218	0.09224
465.78782	0.08957
464.82345	0.08793
463.85909	0.08692
462.89473	0.08562
461.93036	0.08396
460.966	0.08231
460.00163	0.08098
459.03727	0.08036
458.07291	0.08008
457.10854	0.07958
456.14418	0.07927
455.17981	0.07974
454.21545	0.08041
453.25109	0.08017
452.28672	0.07924
451.32236	0.07885
450.35799	0.07924
449.39363	0.07959
448.42927	0.07947
447.4649	0.0791
446.50054	0.07856
445.53617	0.07788
444.57181	0.07724
443.60745	0.07676
442.64308	0.07642
441.67872	0.07622
440.71435	0.07583
439.74999	0.07527
438.78563	0.07505
437.82126	0.07544
436.8569	0.07629
435.89253	0.07716
434.92817	0.0776
433.96381	0.07767
432.99944	0.07783
432.03508	0.07819
431.07071	0.07823
430.10635	0.07624
429.14199	0.07217
428.17762	0.06785
427.21326	0.06363
426.24889	0.05944
425.28453	0.05542
424.32017	0.0519
423.3558	0.04927
422.39144	0.04737
421.42707	0.04499
420.46271	0.04162
419.49835	0.03798
418.53398	0.03512
417.56962	0.03321
416.60525	0.03174
415.64089	0.03066
414.67653	0.03057
413.71216	0.03167
412.7478	0.03363
411.78343	0.03624
410.81907	0.03759
409.85471	0.03922
408.89034	0.04114
407.92598	0.04335
406.96161	0.04583
405.99725	0.04861
405.03289	0.05166
404.06852	0.055
403.10416	0.05863
402.13979	0.06254
401.17543	0.06673
400.21107	0.07121