3996.41167	0.01274
3994.4829	0.01254
3992.55413	0.01237
3990.62536	0.01219
3988.69659	0.0122
3986.76782	0.01241
3984.83905	0.01251
3982.91028	0.01244
3980.98151	0.01254
3979.05274	0.01289
3977.12397	0.01293
3975.1952	0.01251
3973.26643	0.01229
3971.33766	0.01245
3969.40889	0.01272
3967.48012	0.01281
3965.55135	0.01283
3963.62258	0.01279
3961.69381	0.01268
3959.76504	0.01267
3957.83627	0.01269
3955.9075	0.01242
3953.97873	0.01204
3952.04996	0.01184
3950.12119	0.01164
3948.19242	0.01147
3946.26365	0.01148
3944.33488	0.01161
3942.40611	0.01151
3940.47734	0.01107
3938.54857	0.01084
3936.6198	0.01107
3934.69103	0.01132
3932.76226	0.0111
3930.83349	0.01054
3928.90472	0.01026
3926.97595	0.01044
3925.04718	0.01062
3923.11841	0.01068
3921.18964	0.01089
3919.26087	0.01105
3917.3321	0.0108
3915.40333	0.01021
3913.47456	0.00985
3911.54579	0.00991
3909.61702	0.01023
3907.68825	0.01037
3905.75948	0.01023
3903.83071	0.01042
3901.90194	0.01077
3899.97317	0.01049
3898.0444	0.01003
3896.11563	0.01006
3894.18686	0.01022
3892.25809	0.01019
3890.32932	0.01025
3888.40055	0.01069
3886.47178	0.01112
3884.54301	0.01091
3882.61424	0.01028
3880.68547	0.00965
3878.7567	0.00964
3876.82792	0.01011
3874.89915	0.01019
3872.97038	0.00964
3871.04161	0.0092
3869.11284	0.00949
3867.18407	0.0103
3865.2553	0.0106
3863.32653	0.01021
3861.39776	0.01013
3859.46899	0.01073
3857.54022	0.01178
3855.61145	0.01242
3853.68268	0.01148
3851.75391	0.01008
3849.82514	0.00988
3847.89637	0.01027
3845.9676	0.01033
3844.03883	0.01009
3842.11006	0.00971
3840.18129	0.00879
3838.25252	0.00751
3836.32375	0.00707
3834.39498	0.00747
3832.46621	0.00789
3830.53744	0.00817
3828.60867	0.00854
3826.6799	0.0088
3824.75113	0.00876
3822.82236	0.00841
3820.89359	0.00769
3818.96482	0.0072
3817.03605	0.00721
3815.10728	0.00706
3813.17851	0.00674
3811.24974	0.00675
3809.32097	0.00707
3807.3922	0.00754
3805.46343	0.00799
3803.53466	0.00776
3801.60589	0.00643
3799.67712	0.0054
3797.74835	0.00548
3795.81958	0.00607
3793.89081	0.00649
3791.96204	0.00643
3790.03327	0.00594
3788.1045	0.00543
3786.17573	0.00538
3784.24696	0.0057
3782.31819	0.00581
3780.38942	0.00522
3778.46065	0.00461
3776.53188	0.00482
3774.60311	0.00552
3772.67434	0.00609
3770.74557	0.00628
3768.8168	0.00619
3766.88803	0.00609
3764.95926	0.00617
3763.03049	0.00657
3761.10172	0.0068
3759.17295	0.00657
3757.24418	0.00637
3755.31541	0.0066
3753.38664	0.00687
3751.45787	0.00734
3749.5291	0.00873
3747.60033	0.01035
3745.67156	0.01136
3743.74279	0.01057
3741.81402	0.00831
3739.88525	0.00837
3737.95648	0.00886
3736.02771	0.00662
3734.09894	0.00539
3732.17017	0.00445
3730.2414	0.00295
3728.31263	0.00181
3726.38386	3.45264E-4
3724.45509	0.00119
3722.52632	0.00152
3720.59755	0.00386
3718.66878	0.00555
3716.74001	0.00891
3714.81124	0.01197
3712.88247	0.00777
3710.9537	0.00529
3709.02493	0.0022
3707.09616	0.00223
3705.16739	0.00253
3703.23861	0.00334
3701.30984	0.00507
3699.38107	0.00629
3697.4523	0.00736
3695.52353	0.00883
3693.59476	0.00778
3691.66599	0.00998
3689.73722	0.01218
3687.80845	0.01463
3685.87968	0.01467
3683.95091	0.01535
3682.02214	0.01541
3680.09337	0.01579
3678.1646	0.0163
3676.23583	0.01809
3674.30706	0.01947
3672.37829	0.02013
3670.44952	0.02105
3668.52075	0.02308
3666.59198	0.02549
3664.66321	0.02758
3662.73444	0.02892
3660.80567	0.03029
3658.8769	0.03193
3656.94813	0.03396
3655.01936	0.03633
3653.09059	0.03851
3651.16182	0.04052
3649.23305	0.04306
3647.30428	0.04598
3645.37551	0.04783
3643.44674	0.04955
3641.51797	0.05199
3639.5892	0.05432
3637.66043	0.05635
3635.73166	0.0588
3633.80289	0.06025
3631.87412	0.06262
3629.94535	0.06629
3628.01658	0.06916
3626.08781	0.07015
3624.15904	0.07393
3622.23027	0.07721
3620.3015	0.07913
3618.37273	0.08417
3616.44396	0.08873
3614.51519	0.09394
3612.58642	0.09891
3610.65765	0.09933
3608.72888	0.10092
3606.80011	0.10475
3604.87134	0.10699
3602.94257	0.10962
3601.0138	0.11375
3599.08503	0.1185
3597.15626	0.12038
3595.22749	0.12396
3593.29872	0.12608
3591.36995	0.13084
3589.44118	0.1339
3587.51241	0.13971
3585.58364	0.14551
3583.65487	0.14943
3581.7261	0.15261
3579.79733	0.15657
3577.86856	0.16099
3575.93979	0.16543
3574.01102	0.17
3572.08225	0.17437
3570.15348	0.17839
3568.22471	0.18302
3566.29594	0.18861
3564.36717	0.19449
3562.4384	0.20006
3560.50963	0.20537
3558.58086	0.21036
3556.65209	0.21536
3554.72332	0.22104
3552.79455	0.22755
3550.86578	0.23401
3548.93701	0.24017
3547.00824	0.2469
3545.07947	0.25397
3543.1507	0.26021
3541.22193	0.2653
3539.29316	0.26995
3537.36439	0.27455
3535.43562	0.2787
3533.50685	0.28243
3531.57807	0.28656
3529.6493	0.29156
3527.72053	0.29718
3525.79176	0.30295
3523.86299	0.3084
3521.93422	0.31311
3520.00545	0.31761
3518.07668	0.32277
3516.14791	0.32889
3514.21914	0.3352
3512.29037	0.34117
3510.3616	0.34711
3508.43283	0.35341
3506.50406	0.36035
3504.57529	0.36815
3502.64652	0.3758
3500.71775	0.38217
3498.78898	0.38807
3496.86021	0.39469
3494.93144	0.40159
3493.00267	0.40777
3491.0739	0.41333
3489.14513	0.41905
3487.21636	0.42481
3485.28759	0.43009
3483.35882	0.43516
3481.43005	0.44044
3479.50128	0.44543
3477.57251	0.45012
3475.64374	0.45533
3473.71497	0.46097
3471.7862	0.46631
3469.85743	0.47124
3467.92866	0.47627
3465.99989	0.4815
3464.07112	0.48704
3462.14235	0.49307
3460.21358	0.49907
3458.28481	0.50447
3456.35604	0.50974
3454.42727	0.51551
3452.4985	0.5217
3450.56973	0.52807
3448.64096	0.53462
3446.71219	0.54116
3444.78342	0.54736
3442.85465	0.55357
3440.92588	0.56003
3438.99711	0.56618
3437.06834	0.57197
3435.13957	0.57765
3433.2108	0.58358
3431.28203	0.58944
3429.35326	0.59467
3427.42449	0.59979
3425.49572	0.60543
3423.56695	0.61136
3421.63818	0.61735
3419.70941	0.62323
3417.78064	0.62883
3415.85187	0.63449
3413.9231	0.64031
3411.99433	0.64578
3410.06556	0.65089
3408.13679	0.65603
3406.20802	0.66134
3404.27925	0.66672
3402.35048	0.67176
3400.42171	0.67615
3398.49294	0.68047
3396.56417	0.68461
3394.6354	0.68867
3392.70663	0.69297
3390.77786	0.69725
3388.84909	0.70102
3386.92032	0.70458
3384.99155	0.70814
3383.06278	0.71167
3381.13401	0.71503
3379.20524	0.71819
3377.27647	0.72129
3375.3477	0.72436
3373.41893	0.72723
3371.49016	0.7299
3369.56139	0.73267
3367.63262	0.73541
3365.70385	0.73794
3363.77508	0.74011
3361.84631	0.74205
3359.91753	0.7439
3357.98876	0.74576
3356.05999	0.74752
3354.13122	0.74921
3352.20245	0.75104
3350.27368	0.75283
3348.34491	0.75399
3346.41614	0.75477
3344.48737	0.75557
3342.5586	0.75629
3340.62983	0.75668
3338.70106	0.75701
3336.77229	0.75748
3334.84352	0.75771
3332.91475	0.7572
3330.98598	0.75615
3329.05721	0.75545
3327.12844	0.75549
3325.19967	0.75569
3323.2709	0.75532
3321.34213	0.75445
3319.41336	0.75353
3317.48459	0.75263
3315.55582	0.75166
3313.62705	0.75115
3311.69828	0.75141
3309.76951	0.75185
3307.84074	0.75174
3305.91197	0.75068
3303.9832	0.74909
3302.05443	0.74755
3300.12566	0.74637
3298.19689	0.7453
3296.26812	0.74445
3294.33935	0.74411
3292.41058	0.74343
3290.48181	0.74174
3288.55304	0.73962
3286.62427	0.73786
3284.6955	0.73623
3282.76673	0.73432
3280.83796	0.73231
3278.90919	0.73064
3276.98042	0.72946
3275.05165	0.72813
3273.12288	0.72606
3271.19411	0.72346
3269.26534	0.72082
3267.33657	0.71863
3265.4078	0.71687
3263.47903	0.71502
3261.55026	0.71288
3259.62149	0.71076
3257.69272	0.7085
3255.76395	0.70552
3253.83518	0.70192
3251.90641	0.69834
3249.97764	0.69501
3248.04887	0.69143
3246.1201	0.68724
3244.19133	0.68249
3242.26256	0.67748
3240.33379	0.67251
3238.40502	0.66783
3236.47625	0.66342
3234.54748	0.65919
3232.61871	0.65523
3230.68994	0.65111
3228.76117	0.64638
3226.8324	0.64117
3224.90363	0.63608
3222.97486	0.63122
3221.04609	0.62653
3219.11732	0.62204
3217.18855	0.61777
3215.25978	0.61362
3213.33101	0.60911
3211.40224	0.60421
3209.47347	0.59944
3207.5447	0.59483
3205.61593	0.59017
3203.68716	0.58535
3201.75839	0.58043
3199.82962	0.57559
3197.90085	0.57084
3195.97208	0.56606
3194.04331	0.56116
3192.11454	0.55622
3190.18577	0.55084
3188.257	0.54492
3186.32822	0.53887
3184.39945	0.533
3182.47068	0.52696
3180.54191	0.52069
3178.61314	0.51443
3176.68437	0.50834
3174.7556	0.50244
3172.82683	0.49654
3170.89806	0.49042
3168.96929	0.48426
3167.04052	0.47824
3165.11175	0.47238
3163.18298	0.46658
3161.25421	0.46066
3159.32544	0.45464
3157.39667	0.44878
3155.4679	0.44319
3153.53913	0.43753
3151.61036	0.43165
3149.68159	0.42564
3147.75282	0.41957
3145.82405	0.414
3143.89528	0.40898
3141.96651	0.40412
3140.03774	0.39915
3138.10897	0.39384
3136.1802	0.38823
3134.25143	0.38298
3132.32266	0.37835
3130.39389	0.37391
3128.46512	0.36935
3126.53635	0.36481
3124.60758	0.36037
3122.67881	0.35596
3120.75004	0.35171
3118.82127	0.34789
3116.8925	0.34417
3114.96373	0.33992
3113.03496	0.33512
3111.10619	0.33046
3109.17742	0.32634
3107.24865	0.32245
3105.31988	0.31863
3103.39111	0.31498
3101.46234	0.3114
3099.53357	0.3077
3097.6048	0.304
3095.67603	0.30059
3093.74726	0.29757
3091.81849	0.29475
3089.88972	0.29199
3087.96095	0.28939
3086.03218	0.28684
3084.10341	0.2842
3082.17464	0.28161
3080.24587	0.27913
3078.3171	0.27639
3076.38833	0.27339
3074.45956	0.27059
3072.53079	0.26833
3070.60202	0.26648
3068.67325	0.26474
3066.74448	0.26282
3064.81571	0.26054
3062.88694	0.25799
3060.95817	0.25556
3059.0294	0.25387
3057.10063	0.25291
3055.17186	0.25189
3053.24309	0.2503
3051.31432	0.24813
3049.38555	0.24578
3047.45678	0.24392
3045.52801	0.24274
3043.59924	0.24149
3041.67047	0.2398
3039.7417	0.23785
3037.81293	0.23585
3035.88416	0.23419
3033.95539	0.23296
3032.02662	0.23156
3030.09785	0.22968
3028.16908	0.22756
3026.24031	0.22559
3024.31154	0.22378
3022.38277	0.22221
3020.454	0.22101
3018.52523	0.21998
3016.59646	0.2191
3014.66768	0.21851
3012.73891	0.21805
3010.81014	0.21756
3008.88137	0.2171
3006.9526	0.21694
3005.02383	0.2176
3003.09506	0.21915
3001.16629	0.22124
2999.23752	0.22387
2997.30875	0.22738
2995.37998	0.23156
2993.45121	0.23591
2991.52244	0.24047
2989.59367	0.24602
2987.6649	0.25247
2985.73613	0.25924
2983.80736	0.26607
2981.87859	0.27275
2979.94982	0.27902
2978.02105	0.28449
2976.09228	0.28879
2974.16351	0.29121
2972.23474	0.29133
2970.30597	0.28918
2968.3772	0.28537
2966.44843	0.28086
2964.51966	0.27683
2962.59089	0.27399
2960.66212	0.27247
2958.73335	0.27227
2956.80458	0.27331
2954.87581	0.27589
2952.94704	0.2805
2951.01827	0.28677
2949.0895	0.29413
2947.16073	0.30226
2945.23196	0.31065
2943.30319	0.31898
2941.37442	0.32682
2939.44565	0.33316
2937.51688	0.33755
2935.58811	0.34116
2933.65934	0.34522
2931.73057	0.34964
2929.8018	0.35291
2927.87303	0.35316
2925.94426	0.35014
2924.01549	0.34543
2922.08672	0.34027
2920.15795	0.33512
2918.22918	0.32986
2916.30041	0.32435
2914.37164	0.31868
2912.44287	0.31324
2910.5141	0.30825
2908.58533	0.30402
2906.65656	0.30107
2904.72779	0.29924
2902.79902	0.29758
2900.87025	0.2955
2898.94148	0.29353
2897.01271	0.29184
2895.08394	0.28947
2893.15517	0.28613
2891.2264	0.28259
2889.29763	0.27921
2887.36886	0.27597
2885.44009	0.2726
2883.51132	0.26881
2881.58255	0.26492
2879.65378	0.26122
2877.72501	0.25755
2875.79624	0.25347
2873.86747	0.24857
2871.9387	0.24265
2870.00993	0.23624
2868.08116	0.22999
2866.15239	0.22368
2864.22362	0.21718
2862.29485	0.21121
2860.36608	0.20596
2858.43731	0.20074
2856.50854	0.19549
2854.57977	0.19064
2852.651	0.18656
2850.72223	0.18337
2848.79346	0.1807
2846.86469	0.17796
2844.93592	0.17531
2843.00714	0.17318
2841.07837	0.17144
2839.1496	0.16983
2837.22083	0.16821
2835.29206	0.1666
2833.36329	0.16491
2831.43452	0.1633
2829.50575	0.16185
2827.57698	0.16042
2825.64821	0.15909
2823.71944	0.15774
2821.79067	0.15604
2819.8619	0.15389
2817.93313	0.15141
2816.00436	0.14873
2814.07559	0.14647
2812.14682	0.14482
2810.21805	0.14312
2808.28928	0.14084
2806.36051	0.1385
2804.43174	0.13667
2802.50297	0.13542
2800.5742	0.1345
2798.64543	0.13343
2796.71666	0.13186
2794.78789	0.13013
2792.85912	0.12905
2790.93035	0.12861
2789.00158	0.12771
2787.07281	0.12599
2785.14404	0.12443
2783.21527	0.12346
2781.2865	0.12261
2779.35773	0.12167
2777.42896	0.12116
2775.50019	0.121
2773.57142	0.12054
2771.64265	0.11945
2769.71388	0.11838
2767.78511	0.11776
2765.85634	0.11719
2763.92757	0.11658
2761.9988	0.11617
2760.07003	0.11589
2758.14126	0.11542
2756.21249	0.11472
2754.28372	0.11414
2752.35495	0.11401
2750.42618	0.11395
2748.49741	0.11341
2746.56864	0.11242
2744.63987	0.11138
2742.7111	0.11051
2740.78233	0.1099
2738.85356	0.10946
2736.92479	0.10897
2734.99602	0.10825
2733.06725	0.10744
2731.13848	0.10691
2729.20971	0.10682
2727.28094	0.10696
2725.35217	0.10659
2723.4234	0.1055
2721.49463	0.10412
2719.56586	0.10285
2717.63709	0.10185
2715.70832	0.10103
2713.77955	0.10033
2711.85078	0.09981
2709.92201	0.09917
2707.99324	0.09823
2706.06447	0.09727
2704.1357	0.09639
2702.20693	0.0956
2700.27816	0.09501
2698.34939	0.09448
2696.42062	0.0938
2694.49185	0.09299
2692.56308	0.09222
2690.63431	0.09154
2688.70554	0.09093
2686.77677	0.09032
2684.848	0.08983
2682.91923	0.08967
2680.99046	0.08952
2679.06169	0.08896
2677.13292	0.08799
2675.20415	0.08705
2673.27538	0.0862
2671.34661	0.08533
2669.41783	0.08441
2667.48906	0.08368
2665.56029	0.08309
2663.63152	0.08239
2661.70275	0.08151
2659.77398	0.08055
2657.84521	0.07954
2655.91644	0.07862
2653.98767	0.07777
2652.0589	0.07687
2650.13013	0.07591
2648.20136	0.07501
2646.27259	0.07423
2644.34382	0.07346
2642.41505	0.07261
2640.48628	0.07195
2638.55751	0.07134
2636.62874	0.07037
2634.69997	0.06904
2632.7712	0.06765
2630.84243	0.06658
2628.91366	0.06614
2626.98489	0.06587
2625.05612	0.06519
2623.12735	0.06422
2621.19858	0.06335
2619.26981	0.06267
2617.34104	0.06184
2615.41227	0.06081
2613.4835	0.05989
2611.55473	0.05921
2609.62596	0.05864
2607.69719	0.05815
2605.76842	0.05766
2603.83965	0.05713
2601.91088	0.05659
2599.98211	0.0561
2598.05334	0.05561
2596.12457	0.05522
2594.1958	0.0549
2592.26703	0.0545
2590.33826	0.05421
2588.40949	0.05414
2586.48072	0.05421
2584.55195	0.05406
2582.62318	0.05364
2580.69441	0.05293
2578.76564	0.05242
2576.83687	0.05234
2574.9081	0.05224
2572.97933	0.05194
2571.05056	0.05176
2569.12179	0.05151
2567.19302	0.05095
2565.26425	0.05037
2563.33548	0.05012
2561.40671	0.05001
2559.47794	0.04971
2557.54917	0.04947
2555.6204	0.04931
2553.69163	0.04921
2551.76286	0.04914
2549.83409	0.04906
2547.90532	0.04884
2545.97655	0.04844
2544.04778	0.04791
2542.11901	0.04737
2540.19024	0.04712
2538.26147	0.04708
2536.3327	0.04677
2534.40393	0.04604
2532.47516	0.04524
2530.54639	0.04494
2528.61762	0.04512
2526.68885	0.04538
2524.76008	0.04531
2522.83131	0.04485
2520.90254	0.04448
2518.97377	0.04457
2517.045	0.04453
2515.11623	0.04407
2513.18746	0.04356
2511.25869	0.04312
2509.32992	0.04275
2507.40115	0.04254
2505.47238	0.04239
2503.54361	0.04202
2501.61484	0.04139
2499.68607	0.04088
2497.75729	0.04065
2495.82852	0.04043
2493.89975	0.04027
2491.97098	0.04041
2490.04221	0.04047
2488.11344	0.04019
2486.18467	0.03995
2484.2559	0.03983
2482.32713	0.03961
2480.39836	0.03903
2478.46959	0.03837
2476.54082	0.03802
2474.61205	0.03818
2472.68328	0.03846
2470.75451	0.03845
2468.82574	0.0382
2466.89697	0.03797
2464.9682	0.03799
2463.03943	0.03798
2461.11066	0.03775
2459.18189	0.0377
2457.25312	0.03754
2455.32435	0.03697
2453.39558	0.03657
2451.46681	0.03662
2449.53804	0.03659
2447.60927	0.03617
2445.6805	0.03566
2443.75173	0.03536
2441.82296	0.0353
2439.89419	0.03515
2437.96542	0.03485
2436.03665	0.03446
2434.10788	0.03395
2432.17911	0.0335
2430.25034	0.03328
2428.32157	0.03325
2426.3928	0.03328
2424.46403	0.03306
2422.53526	0.03262
2420.60649	0.03256
2418.67772	0.03305
2416.74895	0.03352
2414.82018	0.03349
2412.89141	0.03317
2410.96264	0.03289
2409.03387	0.03274
2407.1051	0.03263
2405.17633	0.0324
2403.24756	0.03209
2401.31879	0.03186
2399.39002	0.03218
2397.46125	0.03247
2395.53248	0.0326
2393.60371	0.03259
2391.67494	0.0326
2389.74617	0.03295
2387.8174	0.03409
2385.88863	0.03657
2383.95986	0.03624
2382.03109	0.03207
2380.10232	0.03103
2378.17355	0.02585
2376.24478	0.0254
2374.31601	0.03037
2372.38724	0.03022
2370.45847	0.03007
2368.5297	0.02992
2366.60093	0.02977
2364.67216	0.02963
2362.74339	0.02948
2360.81462	0.02933
2358.88585	0.02918
2356.95708	0.02904
2355.02831	0.02889
2353.09954	0.02874
2351.17077	0.02859
2349.242	0.02845
2347.31323	0.0283
2345.38446	0.02815
2343.45569	0.028
2341.52692	0.02785
2339.59815	0.02771
2337.66938	0.02756
2335.74061	0.02741
2333.81184	0.02726
2331.88307	0.02712
2329.9543	0.02697
2328.02553	0.02682
2326.09675	0.02667
2324.16798	0.02653
2322.23921	0.02638
2320.31044	0.02623
2318.38167	0.02608
2316.4529	0.02594
2314.52413	0.02579
2312.59536	0.02564
2310.66659	0.02549
2308.73782	0.02534
2306.80905	0.0252
2304.88028	0.02505
2302.95151	0.0249
2301.02274	0.02475
2299.09397	0.02461
2297.1652	0.02446
2295.23643	0.02431
2293.30766	0.02416
2291.37889	0.02402
2289.45012	0.02387
2287.52135	0.02372
2285.59258	0.02333
2283.66381	0.02444
2281.73504	0.02331
2279.80627	0.02172
2277.8775	0.02142
2275.94873	0.02048
2274.01996	0.02059
2272.09119	0.02049
2270.16242	0.02023
2268.23365	0.01972
2266.30488	0.01956
2264.37611	0.01998
2262.44734	0.02084
2260.51857	0.02018
2258.5898	0.02123
2256.66103	0.0215
2254.73226	0.02034
2252.80349	0.02069
2250.87472	0.02111
2248.94595	0.02153
2247.01718	0.02176
2245.08841	0.0214
2243.15964	0.02105
2241.23087	0.02108
2239.3021	0.02158
2237.37333	0.02191
2235.44456	0.02151
2233.51579	0.02095
2231.58702	0.02082
2229.65825	0.02064
2227.72948	0.02006
2225.80071	0.01978
2223.87194	0.02057
2221.94317	0.02164
2220.0144	0.02193
2218.08563	0.02169
2216.15686	0.02163
2214.22809	0.02152
2212.29932	0.02136
2210.37055	0.02159
2208.44178	0.02161
2206.51301	0.02086
2204.58424	0.02025
2202.65547	0.0204
2200.7267	0.02066
2198.79793	0.02084
2196.86916	0.02141
2194.94039	0.02185
2193.01162	0.02161
2191.08285	0.02078
2189.15408	0.01973
2187.22531	0.01916
2185.29654	0.01931
2183.36777	0.01981
2181.439	0.02054
2179.51023	0.02157
2177.58146	0.02217
2175.65269	0.02185
2173.72392	0.02102
2171.79515	0.01986
2169.86638	0.01863
2167.93761	0.01826
2166.00884	0.01873
2164.08007	0.01881
2162.1513	0.0182
2160.22253	0.01698
2158.29376	0.01599
2156.36499	0.01662
2154.43622	0.018
2152.50744	0.0189
2150.57867	0.01946
2148.6499	0.0201
2146.72113	0.02079
2144.79236	0.02125
2142.86359	0.02148
2140.93482	0.0221
2139.00605	0.02338
2137.07728	0.02442
2135.14851	0.02446
2133.21974	0.0243
2131.29097	0.0247
2129.3622	0.02493
2127.43343	0.02464
2125.50466	0.02452
2123.57589	0.02486
2121.64712	0.0252
2119.71835	0.02541
2117.78958	0.02544
2115.86081	0.02529
2113.93204	0.02485
2112.00327	0.0245
2110.0745	0.02462
2108.14573	0.02492
2106.21696	0.02491
2104.28819	0.02466
2102.35942	0.02456
2100.43065	0.02455
2098.50188	0.02456
2096.57311	0.02452
2094.64434	0.02405
2092.71557	0.0234
2090.7868	0.02329
2088.85803	0.02367
2086.92926	0.02373
2085.00049	0.0235
2083.07172	0.02337
2081.14295	0.0232
2079.21418	0.02283
2077.28541	0.02243
2075.35664	0.02199
2073.42787	0.02157
2071.4991	0.02116
2069.57033	0.02057
2067.64156	0.01987
2065.71279	0.01926
2063.78402	0.01886
2061.85525	0.01881
2059.92648	0.01918
2057.99771	0.0197
2056.06894	0.01956
2054.14017	0.01838
2052.2114	0.01692
2050.28263	0.0157
2048.35386	0.01454
2046.42509	0.0136
2044.49632	0.0135
2042.56755	0.01419
2040.63878	0.01481
2038.71001	0.01462
2036.78124	0.01379
2034.85247	0.01268
2032.9237	0.01122
2030.99493	0.00996
2029.06616	0.00956
2027.13739	0.01013
2025.20862	0.01103
2023.27985	0.01102
2021.35108	0.00976
2019.42231	0.00827
2017.49354	0.00714
2015.56477	0.00616
2013.636	0.00546
2011.70723	0.00549
2009.77846	0.00606
2007.84969	0.00646
2005.92092	0.0063
2003.99215	0.00611
2002.06338	0.00657
2000.13461	0.00744
1998.20584	0.00767
1996.27707	0.00685
1994.3483	0.00573
1992.41953	0.0051
1990.49076	0.00515
1988.56199	0.00508
1986.63322	0.00485
1984.70445	0.00467
1982.77568	0.00369
1980.8469	0.00168
1978.91813	1.15088E-4
1976.98936	0
1975.06059	4.08039E-4
1973.13182	4.9174E-4
1971.20305	4.18502E-4
1969.27428	2.82489E-4
1967.34551	3.13876E-4
1965.41674	9.73017E-4
1963.48797	0.00177
1961.5592	0.00218
1959.63043	0.00284
1957.70166	0.0038
1955.77289	0.00423
1953.84412	0.00431
1951.91535	0.00477
1949.98658	0.00552
1948.05781	0.00591
1946.12904	0.00572
1944.20027	0.00518
1942.2715	0.0049
1940.34273	0.00517
1938.41396	0.00568
1936.48519	0.00611
1934.55642	0.00636
1932.62765	0.00653
1930.69888	0.00673
1928.77011	0.00685
1926.84134	0.00703
1924.91257	0.00723
1922.9838	0.0075
1921.05503	0.00774
1919.12626	0.00772
1917.19749	0.00756
1915.26872	0.00743
1913.33995	0.00709
1911.41118	0.00641
1909.48241	0.00596
1907.55364	0.006
1905.62487	0.00609
1903.6961	0.00588
1901.76733	0.00553
1899.83856	0.00513
1897.90979	0.00468
1895.98102	0.00437
1894.05225	0.00429
1892.12348	0.00422
1890.19471	0.00411
1888.26594	0.00416
1886.33717	0.00429
1884.4084	0.00432
1882.47963	0.00417
1880.55086	0.00407
1878.62209	0.00407
1876.69332	0.00408
1874.76455	0.00372
1872.83578	0.00292
1870.90701	0.00182
1868.97824	0.00116
1867.04947	0.00145
1865.1207	0.0022
1863.19193	0.00252
1861.26316	0.00219
1859.33439	0.00162
1857.40562	0.00127
1855.47685	0.00128
1853.54808	0.0015
1851.61931	0.00166
1849.69054	0.00175
1847.76177	0.00171
1845.833	0.00164
1843.90423	0.00169
1841.97546	0.00206
1840.04669	0.00252
1838.11792	0.00298
1836.18915	0.00349
1834.26038	0.00383
1832.33161	0.00381
1830.40284	0.0037
1828.47407	0.00407
1826.5453	0.005
1824.61653	0.00633
1822.68776	0.00785
1820.75899	0.0095
1818.83022	0.01157
1816.90145	0.01416
1814.97268	0.01725
1813.04391	0.02121
1811.11514	0.02675
1809.18636	0.03394
1807.25759	0.04223
1805.32882	0.05148
1803.40005	0.06252
1801.47128	0.07649
1799.54251	0.09269
1797.61374	0.10888
1795.68497	0.12469
1793.7562	0.14301
1791.82743	0.16493
1789.89866	0.18527
1787.96989	0.20056
1786.04112	0.21243
1784.11235	0.22116
1782.18358	0.22519
1780.25481	0.2251
1778.32604	0.22355
1776.39727	0.22355
1774.4685	0.22795
1772.53973	0.23794
1770.61096	0.24922
1768.68219	0.25663
1766.75342	0.26188
1764.82465	0.26871
1762.89588	0.27755
1760.96711	0.28409
1759.03834	0.28278
1757.10957	0.27332
1755.1808	0.26127
1753.25203	0.25109
1751.32326	0.24176
1749.39449	0.23222
1747.46572	0.22444
1745.53695	0.21896
1743.60818	0.21472
1741.67941	0.21131
1739.75064	0.20897
1737.82187	0.20785
1735.8931	0.20749
1733.96433	0.20707
1732.03556	0.20627
1730.10679	0.20495
1728.17802	0.20259
1726.24925	0.19853
1724.32048	0.19252
1722.39171	0.18542
1720.46294	0.17809
1718.53417	0.16955
1716.6054	0.1588
1714.67663	0.14787
1712.74786	0.13848
1710.81909	0.13047
1708.89032	0.12344
1706.96155	0.11769
1705.03278	0.11384
1703.10401	0.11211
1701.17524	0.11264
1699.24647	0.11499
1697.3177	0.11806
1695.38893	0.12142
1693.46016	0.12461
1691.53139	0.12789
1689.60262	0.13203
1687.67385	0.13663
1685.74508	0.14267
1683.81631	0.15182
1681.88754	0.16066
1679.95877	0.16651
1678.03	0.1708
1676.10123	0.17457
1674.17246	0.17733
1672.24369	0.17851
1670.31492	0.17907
1668.38615	0.18029
1666.45738	0.18224
1664.52861	0.18533
1662.59984	0.19092
1660.67107	0.19888
1658.7423	0.20732
1656.81353	0.21434
1654.88476	0.21707
1652.95599	0.21332
1651.02722	0.20827
1649.09845	0.2056
1647.16968	0.20374
1645.24091	0.20279
1643.31214	0.20339
1641.38337	0.20419
1639.4546	0.20407
1637.52583	0.20185
1635.59705	0.19717
1633.66828	0.19281
1631.73951	0.18971
1629.81074	0.18521
1627.88197	0.17781
1625.9532	0.16831
1624.02443	0.15708
1622.09566	0.1456
1620.16689	0.13648
1618.23812	0.12823
1616.30935	0.11895
1614.38058	0.11133
1612.45181	0.10624
1610.52304	0.10141
1608.59427	0.09586
1606.6655	0.09041
1604.73673	0.08557
1602.80796	0.08131
1600.87919	0.07752
1598.95042	0.07415
1597.02165	0.07113
1595.09288	0.06846
1593.16411	0.06629
1591.23534	0.06454
1589.30657	0.06307
1587.3778	0.06167
1585.44903	0.06025
1583.52026	0.05899
1581.59149	0.05814
1579.66272	0.05783
1577.73395	0.05836
1575.80518	0.06014
1573.87641	0.0629
1571.94764	0.06587
1570.01887	0.06902
1568.0901	0.07216
1566.16133	0.07457
1564.23256	0.07598
1562.30379	0.0764
1560.37502	0.07552
1558.44625	0.07399
1556.51748	0.07404
1554.58871	0.07549
1552.65994	0.07708
1550.73117	0.07837
1548.8024	0.0796
1546.87363	0.08071
1544.94486	0.08131
1543.01609	0.08113
1541.08732	0.08049
1539.15855	0.08088
1537.22978	0.0823
1535.30101	0.08374
1533.37224	0.08532
1531.44347	0.08732
1529.5147	0.08881
1527.58593	0.08867
1525.65716	0.08638
1523.72839	0.08165
1521.79962	0.0744
1519.87085	0.0665
1517.94208	0.05949
1516.01331	0.05313
1514.08454	0.048
1512.15577	0.044
1510.227	0.03968
1508.29823	0.03392
1506.36946	0.02806
1504.44069	0.02546
1502.51192	0.02474
1500.58315	0.02375
1498.65438	0.02222
1496.72561	0.02118
1494.79684	0.02127
1492.86807	0.02238
1490.9393	0.0254
1489.01053	0.03179
1487.08176	0.0405
1485.15299	0.04908
1483.22422	0.05608
1481.29545	0.06035
1479.36668	0.06105
1477.43791	0.05914
1475.50914	0.05723
1473.58037	0.05819
1471.6516	0.06292
1469.72283	0.06896
1467.79406	0.07527
1465.86529	0.08307
1463.93651	0.09185
1462.00774	0.09854
1460.07897	0.1024
1458.1502	0.10485
1456.22143	0.10711
1454.29266	0.10935
1452.36389	0.11154
1450.43512	0.11315
1448.50635	0.11342
1446.57758	0.11238
1444.64881	0.11068
1442.72004	0.10873
1440.79127	0.10674
1438.8625	0.10498
1436.93373	0.10374
1435.00496	0.10338
1433.07619	0.10389
1431.14742	0.10543
1429.21865	0.108
1427.28988	0.11122
1425.36111	0.11476
1423.43234	0.11855
1421.50357	0.1227
1419.5748	0.12827
1417.64603	0.13531
1415.71726	0.14222
1413.78849	0.14859
1411.85972	0.1543
1409.93095	0.15833
1408.00218	0.16024
1406.07341	0.16104
1404.14464	0.16157
1402.21587	0.16168
1400.2871	0.16119
1398.35833	0.1602
1396.42956	0.15885
1394.50079	0.15735
1392.57202	0.15645
1390.64325	0.15702
1388.71448	0.15973
1386.78571	0.16398
1384.85694	0.16775
1382.92817	0.17031
1380.9994	0.17279
1379.07063	0.17585
1377.14186	0.17919
1375.21309	0.18205
1373.28432	0.18375
1371.35555	0.18388
1369.42678	0.18285
1367.49801	0.18133
1365.56924	0.17866
1363.64047	0.17289
1361.7117	0.16386
1359.78293	0.15466
1357.85416	0.14776
1355.92539	0.14367
1353.99662	0.14212
1352.06785	0.14258
1350.13908	0.14439
1348.21031	0.14722
1346.28154	0.15101
1344.35277	0.15547
1342.424	0.16021
1340.49523	0.16526
1338.56646	0.17072
1336.63769	0.17625
1334.70892	0.18156
1332.78015	0.1862
1330.85138	0.18935
1328.92261	0.19003
1326.99384	0.18761
1325.06507	0.18209
1323.1363	0.17429
1321.20753	0.16543
1319.27876	0.1569
1317.34999	0.15002
1315.42122	0.14548
1313.49245	0.1428
1311.56368	0.14135
1309.63491	0.14078
1307.70614	0.14082
1305.77737	0.14109
1303.8486	0.14068
1301.91983	0.13841
1299.99106	0.1338
1298.06229	0.12725
1296.13352	0.11935
1294.20475	0.11119
1292.27597	0.10425
1290.3472	0.09975
1288.41843	0.09753
1286.48966	0.09643
1284.56089	0.09555
1282.63212	0.09458
1280.70335	0.09324
1278.77458	0.09129
1276.84581	0.08883
1274.91704	0.08639
1272.98827	0.08432
1271.0595	0.0826
1269.13073	0.08104
1267.20196	0.07966
1265.27319	0.07874
1263.34442	0.07859
1261.41565	0.07954
1259.48688	0.0812
1257.55811	0.08291
1255.62934	0.08439
1253.70057	0.08622
1251.7718	0.08869
1249.84303	0.09138
1247.91426	0.09335
1245.98549	0.09427
1244.05672	0.09465
1242.12795	0.09485
1240.19918	0.09422
1238.27041	0.09192
1236.34164	0.08817
1234.41287	0.08387
1232.4841	0.07944
1230.55533	0.07496
1228.62656	0.07096
1226.69779	0.06832
1224.76902	0.06761
1222.84025	0.06894
1220.91148	0.07187
1218.98271	0.07549
1217.05394	0.07872
1215.12517	0.08055
1213.1964	0.08001
1211.26763	0.07661
1209.33886	0.07087
1207.41009	0.06412
1205.48132	0.0576
1203.55255	0.0518
1201.62378	0.04678
1199.69501	0.04233
1197.76624	0.03868
1195.83747	0.03586
1193.9087	0.03345
1191.97993	0.03111
1190.05116	0.02905
1188.12239	0.02772
1186.19362	0.02739
1184.26485	0.02823
1182.33608	0.03023
1180.40731	0.0334
1178.47854	0.03785
1176.54977	0.04363
1174.621	0.05096
1172.69223	0.06098
1170.76346	0.07569
1168.83469	0.09684
1166.90592	0.12538
1164.97715	0.16189
1163.04838	0.20603
1161.11961	0.25548
1159.19084	0.30465
1157.26207	0.34487
1155.3333	0.36884
1153.40453	0.37517
1151.47576	0.36703
1149.54699	0.34862
1147.61822	0.32404
1145.68945	0.2972
1143.76068	0.27131
1141.83191	0.24932
1139.90314	0.2333
1137.97437	0.22328
1136.0456	0.21773
1134.11683	0.21532
1132.18806	0.21549
1130.25929	0.21756
1128.33052	0.22012
1126.40175	0.22171
1124.47298	0.22176
1122.54421	0.2204
1120.61544	0.21787
1118.68666	0.21479
1116.75789	0.21276
1114.82912	0.2132
1112.90035	0.21646
1110.97158	0.22245
1109.04281	0.23022
1107.11404	0.23779
1105.18527	0.24424
1103.2565	0.25047
1101.32773	0.25755
1099.39896	0.26572
1097.47019	0.27506
1095.54142	0.28476
1093.61265	0.29378
1091.68388	0.30331
1089.75511	0.31709
1087.82634	0.33771
1085.89757	0.36439
1083.9688	0.3945
1082.04003	0.42456
1080.11126	0.45014
1078.18249	0.46487
1076.25372	0.46112
1074.32495	0.43593
1072.39618	0.39734
1070.46741	0.36004
1068.53864	0.33595
1066.60987	0.33076
1064.6811	0.34507
1062.75233	0.37555
1060.82356	0.4149
1058.89479	0.45317
1056.96602	0.48208
1055.03725	0.50007
1053.10848	0.51299
1051.17971	0.52889
1049.25094	0.55289
1047.32217	0.58637
1045.3934	0.62695
1043.46463	0.6678
1041.53586	0.70243
1039.60709	0.73161
1037.67832	0.76093
1035.74955	0.79398
1033.82078	0.83074
1031.89201	0.86971
1029.96324	0.90939
1028.03447	0.94828
1026.1057	0.98163
1024.17693	1
1022.24816	0.99715
1020.31939	0.97492
1018.39062	0.9386
1016.46185	0.89492
1014.53308	0.85267
1012.60431	0.81819
1010.67554	0.79157
1008.74677	0.77014
1006.818	0.75404
1004.88923	0.74614
1002.96046	0.74652
1001.03169	0.74905
999.10292	0.7433
997.17415	0.72073
995.24538	0.68063
993.31661	0.62951
991.38784	0.57571
989.45907	0.52614
987.5303	0.48446
985.60153	0.45004
983.67276	0.41869
981.74399	0.3858
979.81522	0.34935
977.88645	0.31069
975.95768	0.27286
974.02891	0.23836
972.10014	0.20851
970.17137	0.18357
968.2426	0.16322
966.31383	0.14677
964.38506	0.13372
962.45629	0.12413
960.52752	0.11868
958.59875	0.11868
956.66998	0.12568
954.74121	0.13927
952.81244	0.155
950.88367	0.16751
948.9549	0.17558
947.02612	0.18145
945.09735	0.18663
943.16858	0.19023
941.23981	0.19026
939.31104	0.18531
937.38227	0.17548
935.4535	0.16212
933.52473	0.14709
931.59596	0.13196
929.66719	0.11801
927.73842	0.10585
925.80965	0.09518
923.88088	0.08529
921.95211	0.07581
920.02334	0.06641
918.09457	0.05683
916.1658	0.0476
914.23703	0.03925
912.30826	0.03157
910.37949	0.02431
908.45072	0.01801
906.52195	0.0131
904.59318	0.0093
902.66441	0.00601
900.73564	0.00303
898.80687	9.62555E-4
896.8781	3.24339E-4
894.94933	0.00129
893.02056	0.00388
891.09179	0.00841
889.16302	0.01491
887.23425	0.02161
885.30548	0.02535
883.37671	0.02527
881.44794	0.02384
879.51917	0.02316
877.5904	0.02319
875.66163	0.02346
873.73286	0.02443
871.80409	0.02719
869.87532	0.03283
867.94655	0.04101
866.01778	0.04951
864.08901	0.05572
862.16024	0.05882
860.23147	0.05972
858.3027	0.05956
856.37393	0.05884
854.44516	0.05735
852.51639	0.05477
850.58762	0.05181
848.65885	0.04948
846.73008	0.04783
844.80131	0.04606
842.87254	0.04361
840.94377	0.04014
839.015	0.03537
837.08623	0.02925
835.15746	0.02254
833.22869	0.01618
831.29992	0.0109
829.37115	0.00723
827.44238	0.00533
825.51361	0.00491
823.58484	0.00551
821.65607	0.0068
819.7273	0.00865
817.79853	0.01111
815.86976	0.01342
813.94099	0.01418
812.01222	0.01314
810.08345	0.01181
808.15468	0.01154
806.22591	0.01215
804.29714	0.01284
802.36837	0.01289
800.4396	0.01228
798.51083	0.01122
796.58206	0.01006
794.65329	0.00921
792.72452	0.00891
790.79575	0.00933
788.86698	0.01053
786.93821	0.01228
785.00944	0.01433
783.08067	0.01676
781.1519	0.01998
779.22313	0.0244
777.29436	0.02983
775.36558	0.03578
773.43681	0.04157
771.50804	0.04663
769.57927	0.05121
767.6505	0.05674
765.72173	0.06459
763.79296	0.07441
761.86419	0.08386
759.93542	0.08998
758.00665	0.09134
756.07788	0.08893
754.14911	0.0848
752.22034	0.08055
750.29157	0.07678
748.3628	0.07315
746.43403	0.06887
744.50526	0.06358
742.57649	0.0578
740.64772	0.0529
738.71895	0.04963
736.79018	0.04799
734.86141	0.0477
732.93264	0.04857
731.00387	0.05047
729.0751	0.05317
727.14633	0.05593
725.21756	0.05825
723.28879	0.06147
721.36002	0.06354
719.43125	0.06796
717.50248	0.07416
715.57371	0.08047
713.64494	0.08831
711.71617	0.09606
709.7874	0.10179
707.85863	0.10477
705.92986	0.10532
704.00109	0.10384
702.07232	0.10058
700.14355	0.0964
698.21478	0.09222
696.28601	0.0886
694.35724	0.08614
692.42847	0.08477
690.4997	0.08433
688.57093	0.08453
686.64216	0.08483
684.71339	0.0851
682.78462	0.08517
680.85585	0.08519
678.92708	0.08503
676.99831	0.08422
675.06954	0.08367
673.14077	0.09139
671.212	0.10874
669.28323	0.08442
667.35446	0.03688
665.42569	0.09012
663.49692	0.08861
661.56815	0.0766
659.63938	0.07568
657.71061	0.07734
655.78184	0.07733
653.85307	0.07821
651.9243	0.07783
649.99553	0.07682
648.06676	0.07547
646.13799	0.07321
644.20922	0.07058
642.28045	0.06825
640.35168	0.06654
638.42291	0.06527
636.49414	0.06427
634.56537	0.06359
632.6366	0.06303
630.70783	0.06263
628.77906	0.0623
626.85029	0.063
624.92152	0.06451
622.99275	0.0669
621.06398	0.07029
619.13521	0.07502
617.20644	0.0814
615.27767	0.08858
613.3489	0.09541
611.42013	0.10182
609.49136	0.10787
607.56259	0.11308
605.63382	0.11656
603.70505	0.11756
601.77627	0.1164
599.8475	0.11445
597.91873	0.11288
595.98996	0.11217
594.06119	0.11216
592.13242	0.11261
590.20365	0.11341
588.27488	0.11478
586.34611	0.11765
584.41734	0.12322
582.48857	0.1314
580.5598	0.13988
578.63103	0.14622
576.70226	0.15105
574.77349	0.15683
572.84472	0.16341
570.91595	0.16781
568.98718	0.16686
567.05841	0.1598
565.12964	0.14871
563.20087	0.13622
561.2721	0.12434
559.34333	0.11431
557.41456	0.10638
555.48579	0.10007
553.55702	0.09486
551.62825	0.09045
549.69948	0.08667
547.77071	0.08363
545.84194	0.08141
543.91317	0.08025
541.9844	0.0804
540.05563	0.08219
538.12686	0.08556
536.19809	0.08974
534.26932	0.09335
532.34055	0.09559
530.41178	0.09691
528.48301	0.09824
526.55424	0.09955
524.62547	0.09961
522.6967	0.0974
520.76793	0.09305
518.83916	0.08751
516.91039	0.08199
514.98162	0.07723
513.05285	0.07319
511.12408	0.06967
509.19531	0.06689
507.26654	0.06484
505.33777	0.06347
503.409	0.06249
501.48023	0.06155
499.55146	0.06052
497.62269	0.05952
495.69392	0.05869
493.76515	0.05813
491.83638	0.05814
489.90761	0.05876
487.97884	0.05964
486.05007	0.0601
484.1213	0.05958
482.19253	0.05788
480.26376	0.05518
478.33499	0.05204
476.40622	0.04872
474.47745	0.04487
472.54868	0.04042
470.61991	0.03636
468.69114	0.03364
466.76237	0.03219
464.8336	0.03113
462.90483	0.02968
460.97606	0.02792
459.04729	0.02686
457.11852	0.02761
455.18975	0.03011
453.26098	0.033
451.33221	0.03501
449.40344	0.03545
447.47467	0.03431
445.5459	0.032
443.61713	0.02912
441.68836	0.02654
439.75959	0.02481
437.83082	0.02408
435.90205	0.0243
433.97328	0.02487
432.04451	0.02469
430.11573	0.02329
428.18696	0.02125
426.25819	0.01949
424.32942	0.01869
422.40065	0.01899
420.47188	0.02082
418.54311	0.0246
416.61434	0.02779
414.68557	0.02776
412.7568	0.0247
410.82803	0.02021
408.89926	0.01621
406.97049	0.01395
405.04172	0.01303
403.11295	0.01177
401.18418	0.00942
399.25541	0.0064