401	0.0284
402	0.02784
403	0.02404
404	0.01868
405	0.01691
406	0.01809
407	0.02014
408	0.02312
409	0.02291
410	0.0198
411	0.01941
412	0.02325
413	0.02502
414	0.02198
415	0.02035
416	0.02361
417	0.02665
418	0.02448
419	0.02098
420	0.02263
421	0.02582
422	0.02699
423	0.02716
424	0.02725
425	0.02928
426	0.03328
427	0.03494
428	0.03201
429	0.02923
430	0.03165
431	0.03713
432	0.04064
433	0.04094
434	0.04126
435	0.04466
436	0.04794
437	0.04702
438	0.04463
439	0.04401
440	0.04399
441	0.04228
442	0.03912
443	0.03674
444	0.03578
445	0.03576
446	0.03624
447	0.0363
448	0.03703
449	0.03991
450	0.04224
451	0.04156
452	0.04002
453	0.03982
454	0.04009
455	0.03993
456	0.03961
457	0.03899
458	0.0387
459	0.04013
460	0.04119
461	0.04064
462	0.04115
463	0.04277
464	0.04274
465	0.0421
466	0.04313
467	0.04512
468	0.04706
469	0.04834
470	0.04854
471	0.04888
472	0.04992
473	0.05098
474	0.05222
475	0.05416
476	0.05674
477	0.05985
478	0.06219
479	0.06209
480	0.06057
481	0.06064
482	0.06268
483	0.06393
484	0.06259
485	0.06078
486	0.06274
487	0.06826
488	0.07173
489	0.07106
490	0.06985
491	0.07088
492	0.07321
493	0.07483
494	0.07578
495	0.07724
496	0.07886
497	0.07974
498	0.08048
499	0.08163
500	0.08237
501	0.08236
502	0.08209
503	0.08243
504	0.08367
505	0.0852
506	0.08608
507	0.08597
508	0.08581
509	0.08648
510	0.08789
511	0.08974
512	0.09107
513	0.09239
514	0.09545
515	0.09907
516	0.10027
517	0.0998
518	0.10074
519	0.10327
520	0.1061
521	0.10848
522	0.11005
523	0.11151
524	0.1135
525	0.11538
526	0.11619
527	0.11634
528	0.11722
529	0.11885
530	0.12007
531	0.12013
532	0.11959
533	0.1197
534	0.12086
535	0.12189
536	0.12161
537	0.12067
538	0.12062
539	0.12175
540	0.12275
541	0.12232
542	0.12126
543	0.12149
544	0.12297
545	0.1241
546	0.12427
547	0.12478
548	0.12639
549	0.12806
550	0.12944
551	0.13097
552	0.13263
553	0.13433
554	0.13602
555	0.13725
556	0.13795
557	0.13881
558	0.14043
559	0.14307
560	0.14654
561	0.14966
562	0.15191
563	0.15496
564	0.16022
565	0.16651
566	0.17187
567	0.17683
568	0.18305
569	0.19031
570	0.1965
571	0.20022
572	0.20231
573	0.20423
574	0.20608
575	0.20663
576	0.20503
577	0.20213
578	0.19982
579	0.19842
580	0.19637
581	0.19235
582	0.18754
583	0.18391
584	0.18148
585	0.17874
586	0.17492
587	0.17098
588	0.16845
589	0.1672
590	0.16545
591	0.16212
592	0.15859
593	0.15728
594	0.1576
595	0.1568
596	0.15374
597	0.15074
598	0.15093
599	0.15385
600	0.15614
601	0.1559
602	0.15533
603	0.15726
604	0.16056
605	0.1625
606	0.163
607	0.16393
608	0.16565
609	0.16651
610	0.16491
611	0.16159
612	0.15893
613	0.1578
614	0.15586
615	0.15038
616	0.14177
617	0.13397
618	0.13052
619	0.12895
620	0.12483
621	0.11896
622	0.11539
623	0.1147
624	0.11313
625	0.1091
626	0.10555
627	0.10505
628	0.1061
629	0.10567
630	0.10264
631	0.0993
632	0.09853
633	0.09963
634	0.09946
635	0.09714
636	0.09511
637	0.09539
638	0.09651
639	0.09567
640	0.09298
641	0.09111
642	0.09157
643	0.09268
644	0.09218
645	0.09028
646	0.08944
647	0.09074
648	0.09195
649	0.09103
650	0.08932
651	0.08931
652	0.09154
653	0.09383
654	0.09394
655	0.0928
656	0.09315
657	0.09535
658	0.09697
659	0.09647
660	0.09514
661	0.09487
662	0.09578
663	0.09645
664	0.09603
665	0.09494
666	0.09302
667	0.08566
668	0.06769
669	0.06428
670	0.07578
671	0.08566
672	0.09001
673	0.09003
674	0.0876
675	0.08549
676	0.08526
677	0.08589
678	0.08528
679	0.08334
680	0.08199
681	0.08235
682	0.08334
683	0.08349
684	0.08274
685	0.08254
686	0.08355
687	0.08457
688	0.08461
689	0.08446
690	0.08549
691	0.08761
692	0.08961
693	0.09077
694	0.0917
695	0.09376
696	0.09716
697	0.10085
698	0.10417
699	0.10772
700	0.11206
701	0.11659
702	0.12047
703	0.12351
704	0.12595
705	0.128
706	0.12961
707	0.13013
708	0.12929
709	0.12745
710	0.12511
711	0.12241
712	0.11919
713	0.11543
714	0.11155
715	0.10799
716	0.10479
717	0.10184
718	0.09868
719	0.09494
720	0.09152
721	0.09022
722	0.09065
723	0.09092
724	0.09042
725	0.08943
726	0.08828
727	0.08699
728	0.08527
729	0.08274
730	0.07969
731	0.07714
732	0.07516
733	0.07294
734	0.07054
735	0.06862
736	0.0676
737	0.06752
738	0.0679
739	0.0683
740	0.06927
741	0.07176
742	0.07586
743	0.08074
744	0.08598
745	0.09189
746	0.09841
747	0.1048
748	0.11008
749	0.11374
750	0.11632
751	0.11838
752	0.11946
753	0.11903
754	0.11763
755	0.11642
756	0.11591
757	0.11525
758	0.1132
759	0.11
760	0.10704
761	0.10461
762	0.1018
763	0.09802
764	0.0936
765	0.08933
766	0.08552
767	0.08205
768	0.07883
769	0.07646
770	0.07539
771	0.07468
772	0.07269
773	0.06897
774	0.0645
775	0.0602
776	0.05585
777	0.05082
778	0.04557
779	0.04166
780	0.03945
781	0.03749
782	0.03459
783	0.03131
784	0.0289
785	0.02764
786	0.02622
787	0.0236
788	0.02075
789	0.01939
790	0.01945
791	0.01945
792	0.01884
793	0.01867
794	0.01992
795	0.02204
796	0.02339
797	0.02355
798	0.02405
799	0.02586
800	0.02804
801	0.02896
802	0.02866
803	0.02887
804	0.03055
805	0.03218
806	0.03189
807	0.03001
808	0.02847
809	0.02838
810	0.02888
811	0.02904
812	0.0297
813	0.03234
814	0.0356
815	0.03609
816	0.0323
817	0.02653
818	0.022
819	0.01967
820	0.01786
821	0.01511
822	0.01239
823	0.01155
824	0.01234
825	0.01265
826	0.01183
827	0.01169
828	0.01396
829	0.01801
830	0.02193
831	0.02508
832	0.02912
833	0.03552
834	0.04325
835	0.04971
836	0.05417
837	0.05876
838	0.06516
839	0.07157
840	0.07543
841	0.0773
842	0.07967
843	0.08375
844	0.088
845	0.09039
846	0.09143
847	0.09343
848	0.09708
849	0.10049
850	0.10186
851	0.10219
852	0.10364
853	0.10622
854	0.10767
855	0.10644
856	0.10384
857	0.10217
858	0.10166
859	0.10038
860	0.09728
861	0.09345
862	0.0905
863	0.08808
864	0.08377
865	0.07629
866	0.06747
867	0.05983
868	0.05357
869	0.04702
870	0.03962
871	0.03289
872	0.02844
873	0.02565
874	0.02254
875	0.01867
876	0.01535
877	0.01357
878	0.01258
879	0.01095
880	0.00852
881	0.00664
882	0.0064
883	0.0072
884	0.00761
885	0.00751
886	0.00813
887	0.01004
888	0.01225
889	0.01347
890	0.01369
891	0.01425
892	0.01602
893	0.01813
894	0.01919
895	0.01971
896	0.02141
897	0.02453
898	0.02802
899	0.03103
900	0.03381
901	0.03704
902	0.04101
903	0.04489
904	0.0478
905	0.05015
906	0.05299
907	0.05659
908	0.06035
909	0.06382
910	0.06729
911	0.07147
912	0.07666
913	0.08237
914	0.0879
915	0.0933
916	0.09915
917	0.10559
918	0.11216
919	0.11819
920	0.12358
921	0.12882
922	0.13429
923	0.13966
924	0.1442
925	0.1477
926	0.15075
927	0.15412
928	0.15757
929	0.16072
930	0.16365
931	0.16704
932	0.1713
933	0.176
934	0.18048
935	0.18474
936	0.18938
937	0.1946
938	0.19994
939	0.20477
940	0.20863
941	0.2117
942	0.21439
943	0.21654
944	0.21779
945	0.21856
946	0.22021
947	0.22335
948	0.22724
949	0.23026
950	0.23156
951	0.2311
952	0.22937
953	0.22604
954	0.22042
955	0.21319
956	0.20621
957	0.20081
958	0.1972
959	0.19511
960	0.19452
961	0.1962
962	0.20069
963	0.20709
964	0.21418
965	0.22183
966	0.23072
967	0.24108
968	0.25213
969	0.26298
970	0.27383
971	0.28568
972	0.2988
973	0.31241
974	0.3257
975	0.33903
976	0.35342
977	0.36915
978	0.38494
979	0.39943
980	0.41259
981	0.42494
982	0.43596
983	0.44411
984	0.44877
985	0.45132
986	0.45402
987	0.45764
988	0.46189
989	0.46687
990	0.47353
991	0.48264
992	0.49378
993	0.50567
994	0.51773
995	0.53045
996	0.54417
997	0.55814
998	0.57101
999	0.58232
1000	0.59276
1001	0.60337
1002	0.61381
1003	0.62277
1004	0.63017
1005	0.63726
1006	0.64488
1007	0.65259
1008	0.65967
1009	0.6662
1010	0.6734
1011	0.6823
1012	0.6925
1013	0.7032
1014	0.71467
1015	0.72829
1016	0.74467
1017	0.76256
1018	0.78067
1019	0.79905
1020	0.81836
1021	0.83877
1022	0.8592
1023	0.87845
1024	0.89663
1025	0.91449
1026	0.93161
1027	0.94666
1028	0.95901
1029	0.9693
1030	0.97892
1031	0.98762
1032	0.9939
1033	0.99749
1034	0.9993
1035	1
1036	0.99909
1037	0.99565
1038	0.98953
1039	0.98197
1040	0.97426
1041	0.96634
1042	0.95745
1043	0.94754
1044	0.93733
1045	0.92739
1046	0.91745
1047	0.90676
1048	0.89533
1049	0.88397
1050	0.87329
1051	0.86303
1052	0.85243
1053	0.84111
1054	0.82979
1055	0.81899
1056	0.8078
1057	0.79525
1058	0.78169
1059	0.76829
1060	0.75546
1061	0.74219
1062	0.72743
1063	0.7115
1064	0.69557
1065	0.68033
1066	0.66533
1067	0.65011
1068	0.63556
1069	0.62342
1070	0.61487
1071	0.61004
1072	0.60865
1073	0.61104
1074	0.6179
1075	0.62861
1076	0.64092
1077	0.65265
1078	0.66259
1079	0.67027
1080	0.67509
1081	0.67627
1082	0.6735
1083	0.66763
1084	0.66008
1085	0.65157
1086	0.642
1087	0.63146
1088	0.62111
1089	0.61186
1090	0.60386
1091	0.59693
1092	0.59071
1093	0.58527
1094	0.58101
1095	0.57777
1096	0.57478
1097	0.5715
1098	0.56806
1099	0.56508
1100	0.56259
1101	0.55984
1102	0.55659
1103	0.55304
1104	0.54921
1105	0.54506
1106	0.54045
1107	0.53493
1108	0.52887
1109	0.52312
1110	0.51783
1111	0.51234
1112	0.50635
1113	0.50076
1114	0.49644
1115	0.49363
1116	0.4922
1117	0.49213
1118	0.49365
1119	0.49724
1120	0.50252
1121	0.50842
1122	0.51376
1123	0.51808
1124	0.52158
1125	0.52444
1126	0.52647
1127	0.52727
1128	0.52689
1129	0.52608
1130	0.52542
1131	0.52448
1132	0.52254
1133	0.51973
1134	0.51698
1135	0.51475
1136	0.51278
1137	0.51099
1138	0.5101
1139	0.51099
1140	0.51405
1141	0.51898
1142	0.52542
1143	0.53356
1144	0.54404
1145	0.5569
1146	0.57113
1147	0.58572
1148	0.60018
1149	0.61458
1150	0.62884
1151	0.64202
1152	0.6529
1153	0.66098
1154	0.66644
1155	0.66923
1156	0.66867
1157	0.66414
1158	0.6557
1159	0.64429
1160	0.63067
1161	0.61478
1162	0.59643
1163	0.57645
1164	0.55611
1165	0.53566
1166	0.51464
1167	0.49312
1168	0.47202
1169	0.45231
1170	0.43399
1171	0.41645
1172	0.39943
1173	0.38364
1174	0.36988
1175	0.35813
1176	0.34731
1177	0.33647
1178	0.32578
1179	0.31588
1180	0.30672
1181	0.29771
1182	0.28872
1183	0.28019
1184	0.27243
1185	0.26507
1186	0.25741
1187	0.24905
1188	0.24069
1189	0.23358
1190	0.2277
1191	0.22222
1192	0.21699
1193	0.21267
1194	0.20947
1195	0.20655
1196	0.203
1197	0.19873
1198	0.1947
1199	0.19148
1200	0.18876
1201	0.18601
1202	0.18345
1203	0.18171
1204	0.18095
1205	0.18081
1206	0.18074
1207	0.18095
1208	0.18226
1209	0.18496
1210	0.1884
1211	0.1918
1212	0.19516
1213	0.19881
1214	0.20252
1215	0.20541
1216	0.2069
1217	0.20734
1218	0.20766
1219	0.20807
1220	0.20755
1221	0.20548
1222	0.20239
1223	0.19915
1224	0.19598
1225	0.19238
1226	0.18836
1227	0.18455
1228	0.1816
1229	0.17936
1230	0.17732
1231	0.17545
1232	0.17421
1233	0.17408
1234	0.17489
1235	0.17618
1236	0.17784
1237	0.18015
1238	0.18284
1239	0.18501
1240	0.18576
1241	0.18496
1242	0.18334
1243	0.18152
1244	0.1794
1245	0.17675
1246	0.17373
1247	0.17095
1248	0.16873
1249	0.16669
1250	0.16455
1251	0.16255
1252	0.16099
1253	0.15979
1254	0.15869
1255	0.15746
1256	0.15629
1257	0.15544
1258	0.15483
1259	0.15427
1260	0.15377
1261	0.15345
1262	0.15343
1263	0.15367
1264	0.154
1265	0.1544
1266	0.15515
1267	0.15648
1268	0.15826
1269	0.16013
1270	0.16183
1271	0.16346
1272	0.16522
1273	0.16704
1274	0.16873
1275	0.17054
1276	0.17277
1277	0.17545
1278	0.17839
1279	0.18136
1280	0.18419
1281	0.18668
1282	0.18869
1283	0.19006
1284	0.19075
1285	0.19095
1286	0.19089
1287	0.19063
1288	0.19026
1289	0.18997
1290	0.18988
1291	0.19002
1292	0.19037
1293	0.19097
1294	0.19176
1295	0.19256
1296	0.19331
1297	0.19401
1298	0.19478
1299	0.19567
1300	0.19663
1301	0.19748
1302	0.19818
1303	0.19877
1304	0.1993
1305	0.19985
1306	0.20054
1307	0.20147
1308	0.20272
1309	0.2042
1310	0.20573
1311	0.20717
1312	0.20853
1313	0.20985
1314	0.21104
1315	0.21185
1316	0.2122
1317	0.2123
1318	0.21246
1319	0.21268
1320	0.21288
1321	0.21319
1322	0.21372
1323	0.21447
1324	0.21523
1325	0.21581
1326	0.21641
1327	0.21712
1328	0.21779
1329	0.21816
1330	0.21811
1331	0.21763
1332	0.21696
1333	0.21619
1334	0.21506
1335	0.2134
1336	0.21136
1337	0.20934
1338	0.20756
1339	0.20585
1340	0.20415
1341	0.20291
1342	0.20235
1343	0.20227
1344	0.20236
1345	0.20251
1346	0.20285
1347	0.20356
1348	0.20463
1349	0.20573
1350	0.20676
1351	0.20792
1352	0.20947
1353	0.21148
1354	0.21368
1355	0.21627
1356	0.21961
1357	0.22386
1358	0.22894
1359	0.23441
1360	0.24003
1361	0.24602
1362	0.25251
1363	0.25946
1364	0.26596
1365	0.27074
1366	0.2744
1367	0.27766
1368	0.2806
1369	0.28297
1370	0.28456
1371	0.2854
1372	0.28556
1373	0.28473
1374	0.28301
1375	0.28147
1376	0.28093
1377	0.28083
1378	0.28029
1379	0.27874
1380	0.27645
1381	0.27383
1382	0.27081
1383	0.26709
1384	0.2629
1385	0.25897
1386	0.25519
1387	0.2503
1388	0.24409
1389	0.23824
1390	0.23307
1391	0.2285
1392	0.2251
1393	0.22285
1394	0.22117
1395	0.22022
1396	0.22007
1397	0.2198
1398	0.21823
1399	0.21507
1400	0.21186
1401	0.20979
1402	0.2083
1403	0.20688
1404	0.20534
1405	0.20407
1406	0.20398
1407	0.20463
1408	0.20511
1409	0.20518
1410	0.20526
1411	0.20552
1412	0.20572
1413	0.20529
1414	0.20413
1415	0.20265
1416	0.20115
1417	0.19958
1418	0.19757
1419	0.19471
1420	0.19215
1421	0.19126
1422	0.19088
1423	0.18964
1424	0.18755
1425	0.18573
1426	0.18445
1427	0.18298
1428	0.18097
1429	0.17838
1430	0.17565
1431	0.17376
1432	0.17249
1433	0.17123
1434	0.17011
1435	0.16935
1436	0.16842
1437	0.16765
1438	0.16777
1439	0.1679
1440	0.16782
1441	0.168
1442	0.16852
1443	0.16916
1444	0.16993
1445	0.17113
1446	0.17291
1447	0.17509
1448	0.17759
1449	0.18017
1450	0.18256
1451	0.18506
1452	0.18786
1453	0.19067
1454	0.19305
1455	0.19509
1456	0.19735
1457	0.20103
1458	0.20489
1459	0.2073
1460	0.209
1461	0.21011
1462	0.21052
1463	0.20981
1464	0.20763
1465	0.20324
1466	0.1985
1467	0.1941
1468	0.18826
1469	0.18088
1470	0.17314
1471	0.1652
1472	0.15519
1473	0.14381
1474	0.13542
1475	0.13046
1476	0.12674
1477	0.12452
1478	0.12443
1479	0.12561
1480	0.12715
1481	0.12803
1482	0.1268
1483	0.12233
1484	0.11484
1485	0.10579
1486	0.09648
1487	0.08641
1488	0.07686
1489	0.06941
1490	0.06155
1491	0.05465
1492	0.05081
1493	0.04766
1494	0.04439
1495	0.04121
1496	0.03812
1497	0.03568
1498	0.03398
1499	0.03225
1500	0.03098
1501	0.03045
1502	0.03014
1503	0.02979
1504	0.02923
1505	0.0283
1506	0.02717
1507	0.02763
1508	0.02936
1509	0.03126
1510	0.03331
1511	0.03553
1512	0.03824
1513	0.04126
1514	0.04394
1515	0.04668
1516	0.04998
1517	0.05505
1518	0.06121
1519	0.06515
1520	0.06839
1521	0.07377
1522	0.08135
1523	0.08742
1524	0.09143
1525	0.09519
1526	0.09944
1527	0.10288
1528	0.10521
1529	0.10701
1530	0.10831
1531	0.10904
1532	0.10908
1533	0.1082
1534	0.10719
1535	0.10704
1536	0.1072
1537	0.10709
1538	0.10629
1539	0.10394
1540	0.10126
1541	0.10076
1542	0.10009
1543	0.09899
1544	0.09799
1545	0.09654
1546	0.09514
1547	0.09395
1548	0.09232
1549	0.08998
1550	0.08716
1551	0.0848
1552	0.0829
1553	0.08052
1554	0.07696
1555	0.07339
1556	0.07141
1557	0.06986
1558	0.06634
1559	0.06155
1560	0.06036
1561	0.06153
1562	0.06239
1563	0.06278
1564	0.06295
1565	0.06333
1566	0.06385
1567	0.06386
1568	0.06306
1569	0.06112
1570	0.05875
1571	0.05749
1572	0.05595
1573	0.05351
1574	0.05091
1575	0.04823
1576	0.04424
1577	0.03984
1578	0.03743
1579	0.0355
1580	0.03338
1581	0.03116
1582	0.0289
1583	0.02672
1584	0.02478
1585	0.02312
1586	0.02148
1587	0.01969
1588	0.01793
1589	0.01636
1590	0.01495
1591	0.01368
1592	0.0124
1593	0.01116
1594	0.0102
1595	0.00989
1596	0.01018
1597	0.01089
1598	0.01183
1599	0.01309
1600	0.01475
1601	0.01673
1602	0.01889
1603	0.02132
1604	0.02423
1605	0.02743
1606	0.03074
1607	0.03417
1608	0.0377
1609	0.04145
1610	0.04566
1611	0.04992
1612	0.05394
1613	0.05799
1614	0.06212
1615	0.06603
1616	0.07062
1617	0.07805
1618	0.08544
1619	0.09178
1620	0.09889
1621	0.10657
1622	0.11393
1623	0.12258
1624	0.13389
1625	0.143
1626	0.14994
1627	0.15677
1628	0.16458
1629	0.17222
1630	0.17842
1631	0.18402
1632	0.18924
1633	0.19366
1634	0.19697
1635	0.20002
1636	0.20382
1637	0.2074
1638	0.21031
1639	0.21312
1640	0.216
1641	0.21899
1642	0.22187
1643	0.22455
1644	0.22679
1645	0.22828
1646	0.22908
1647	0.22981
1648	0.2315
1649	0.2341
1650	0.23694
1651	0.23955
1652	0.242
1653	0.24878
1654	0.26253
1655	0.26963
1656	0.27324
1657	0.27502
1658	0.27473
1659	0.2721
1660	0.26758
1661	0.2619
1662	0.25476
1663	0.2462
1664	0.23904
1665	0.23394
1666	0.22928
1667	0.22496
1668	0.22096
1669	0.21673
1670	0.21368
1671	0.21222
1672	0.21152
1673	0.21138
1674	0.21106
1675	0.20953
1676	0.2074
1677	0.20592
1678	0.20385
1679	0.2006
1680	0.19589
1681	0.19083
1682	0.18683
1683	0.18242
1684	0.1746
1685	0.1654
1686	0.16141
1687	0.15813
1688	0.15344
1689	0.14775
1690	0.14188
1691	0.13617
1692	0.13086
1693	0.12602
1694	0.12176
1695	0.11685
1696	0.10939
1697	0.10368
1698	0.1011
1699	0.09902
1700	0.09463
1701	0.09042
1702	0.08972
1703	0.08948
1704	0.08907
1705	0.08884
1706	0.08911
1707	0.09025
1708	0.09229
1709	0.0947
1710	0.09761
1711	0.10104
1712	0.10445
1713	0.10779
1714	0.11151
1715	0.11581
1716	0.11953
1717	0.12232
1718	0.12639
1719	0.13193
1720	0.13709
1721	0.14222
1722	0.14851
1723	0.15685
1724	0.16732
1725	0.17839
1726	0.18904
1727	0.19911
1728	0.20796
1729	0.21552
1730	0.22268
1731	0.22875
1732	0.23257
1733	0.23493
1734	0.23734
1735	0.24081
1736	0.24325
1737	0.24476
1738	0.24614
1739	0.24766
1740	0.2498
1741	0.25245
1742	0.25497
1743	0.25816
1744	0.26261
1745	0.26741
1746	0.2719
1747	0.27646
1748	0.28164
1749	0.28725
1750	0.29227
1751	0.29729
1752	0.3033
1753	0.30973
1754	0.31694
1755	0.32505
1756	0.33484
1757	0.34846
1758	0.3635
1759	0.37657
1760	0.3866
1761	0.39217
1762	0.39247
1763	0.38907
1764	0.38413
1765	0.37825
1766	0.37262
1767	0.36835
1768	0.36564
1769	0.36458
1770	0.36411
1771	0.36212
1772	0.35741
1773	0.35167
1774	0.34733
1775	0.34335
1776	0.33902
1777	0.33582
1778	0.33431
1779	0.33397
1780	0.33436
1781	0.33528
1782	0.33631
1783	0.33686
1784	0.3361
1785	0.3333
1786	0.32884
1787	0.32333
1788	0.31655
1789	0.30875
1790	0.30008
1791	0.29004
1792	0.27807
1793	0.26476
1794	0.25359
1795	0.24373
1796	0.23232
1797	0.22057
1798	0.21008
1799	0.1993
1800	0.18751
1801	0.17631
1802	0.16593
1803	0.15607
1804	0.14725
1805	0.13902
1806	0.13119
1807	0.12376
1808	0.11686
1809	0.11068
1810	0.10482
1811	0.09903
1812	0.09411
1813	0.09008
1814	0.08627
1815	0.08263
1816	0.07924
1817	0.07605
1818	0.07304
1819	0.07041
1820	0.06795
1821	0.06554
1822	0.06325
1823	0.06113
1824	0.05905
1825	0.05691
1826	0.05503
1827	0.05359
1828	0.0521
1829	0.05026
1830	0.04845
1831	0.04719
1832	0.04617
1833	0.04504
1834	0.04387
1835	0.0428
1836	0.04175
1837	0.04062
1838	0.03946
1839	0.03849
1840	0.03761
1841	0.03672
1842	0.03578
1843	0.03458
1844	0.03336
1845	0.03271
1846	0.03249
1847	0.03198
1848	0.03128
1849	0.03068
1850	0.03019
1851	0.02968
1852	0.02909
1853	0.0285
1854	0.028
1855	0.02757
1856	0.02718
1857	0.02678
1858	0.02637
1859	0.02601
1860	0.0257
1861	0.02536
1862	0.02503
1863	0.02472
1864	0.02446
1865	0.02416
1866	0.02375
1867	0.02322
1868	0.02272
1869	0.02246
1870	0.0225
1871	0.02254
1872	0.02246
1873	0.02234
1874	0.02221
1875	0.02203
1876	0.02183
1877	0.02166
1878	0.02154
1879	0.02144
1880	0.02135
1881	0.02121
1882	0.02103
1883	0.02084
1884	0.02069
1885	0.02053
1886	0.02039
1887	0.02027
1888	0.02014
1889	0.01993
1890	0.01977
1891	0.01972
1892	0.0197
1893	0.01968
1894	0.01955
1895	0.01927
1896	0.01912
1897	0.01915
1898	0.01917
1899	0.01907
1900	0.01885
1901	0.01873
1902	0.01871
1903	0.01858
1904	0.01826
1905	0.01786
1906	0.01752
1907	0.01724
1908	0.01695
1909	0.01655
1910	0.01617
1911	0.01595
1912	0.01581
1913	0.01561
1914	0.01528
1915	0.01486
1916	0.0145
1917	0.01416
1918	0.01387
1919	0.0137
1920	0.01354
1921	0.01326
1922	0.01297
1923	0.01276
1924	0.01258
1925	0.01235
1926	0.01223
1927	0.0122
1928	0.01206
1929	0.01168
1930	0.01126
1931	0.01102
1932	0.01094
1933	0.01084
1934	0.01057
1935	0.01026
1936	0.01008
1937	0.01003
1938	0.00987
1939	0.00954
1940	0.00919
1941	0.00896
1942	0.00876
1943	0.00862
1944	0.00844
1945	0.00819
1946	0.00815
1947	0.00832
1948	0.00832
1949	0.00802
1950	0.00771
1951	0.00772
1952	0.00781
1953	0.00768
1954	0.00731
1955	0.00704
1956	0.00702
1957	0.00708
1958	0.00694
1959	0.00667
1960	0.0065
1961	0.00651
1962	0.00654
1963	0.00641
1964	0.00609
1965	0.00582
1966	0.00571
1967	0.00566
1968	0.0056
1969	0.00546
1970	0.00537
1971	0.00545
1972	0.00555
1973	0.00546
1974	0.00515
1975	0.00492
1976	0.00497
1977	0.0051
1978	0.00496
1979	0.00466
1980	0.00456
1981	0.0047
1982	0.00486
1983	0.00479
1984	0.0045
1985	0.00434
1986	0.00441
1987	0.00449
1988	0.00434
1989	0.00411
1990	0.00399
1991	0.00392
1992	0.00386
1993	0.00378
1994	0.0036
1995	0.00352
1996	0.00363
1997	0.00374
1998	0.00363
1999	0.0034
2000	0.00326
2001	0.00339
2002	0.00344
2003	0.00324
2004	0.00294
2005	0.00279
2006	0.00288
2007	0.00295
2008	0.00281
2009	0.00258
2010	0.00245
2011	0.00248
2012	0.00249
2013	0.00237
2014	0.0022
2015	0.00213
2016	0.00214
2017	0.00215
2018	0.00211
2019	0.00205
2020	0.00209
2021	0.00222
2022	0.00237
2023	0.0024
2024	0.00231
2025	0.00229
2026	0.00249
2027	0.00273
2028	0.00285
2029	0.0028
2030	0.00281
2031	0.00304
2032	0.00336
2033	0.00349
2034	0.00345
2035	0.00349
2036	0.00369
2037	0.00396
2038	0.0041
2039	0.004
2040	0.00389
2041	0.00401
2042	0.00432
2043	0.00451
2044	0.00444
2045	0.0044
2046	0.00456
2047	0.00481
2048	0.0049
2049	0.00475
2050	0.00462
2051	0.00467
2052	0.00489
2053	0.00497
2054	0.00485
2055	0.00467
2056	0.00475
2057	0.00502
2058	0.00515
2059	0.00501
2060	0.00483
2061	0.00483
2062	0.00499
2063	0.00501
2064	0.00482
2065	0.00465
2066	0.00472
2067	0.00487
2068	0.00487
2069	0.00469
2070	0.00454
2071	0.00457
2072	0.00466
2073	0.00466
2074	0.00451
2075	0.00433
2076	0.00431
2077	0.00438
2078	0.00439
2079	0.00425
2080	0.00408
2081	0.00405
2082	0.00416
2083	0.00419
2084	0.00402
2085	0.00386
2086	0.0039
2087	0.004
2088	0.00396
2089	0.00373
2090	0.00351
2091	0.00349
2092	0.00358
2093	0.00358
2094	0.00338
2095	0.00315
2096	0.00309
2097	0.0032
2098	0.00326
2099	0.00316
2100	0.00295
2101	0.00284
2102	0.00286
2103	0.00288
2104	0.0028
2105	0.0027
2106	0.00268
2107	0.00275
2108	0.00275
2109	0.00263
2110	0.00243
2111	0.00234
2112	0.00242
2113	0.00245
2114	0.00239
2115	0.00231
2116	0.00233
2117	0.00244
2118	0.00249
2119	0.00241
2120	0.00232
2121	0.0023
2122	0.00235
2123	0.00238
2124	0.00233
2125	0.00229
2126	0.00225
2127	0.00228
2128	0.00232
2129	0.0023
2130	0.00228
2131	0.00229
2132	0.00229
2133	0.00231
2134	0.0023
2135	0.00231
2136	0.00247
2137	0.00259
2138	0.0025
2139	0.00233
2140	0.00227
2141	0.00234
2142	0.00241
2143	0.0024
2144	0.00234
2145	0.00229
2146	0.00223
2147	0.00219
2148	0.00211
2149	0.00207
2150	0.00208
2151	0.00209
2152	0.00202
2153	0.00189
2154	0.00178
2155	0.00174
2156	0.00175
2157	0.00173
2158	0.00161
2159	0.00144
2160	0.00131
2161	0.00128
2162	0.00124
2163	0.00113
2164	0.00102
2165	8.43919E-4
2166	7.32877E-4
2167	6.10731E-4
2168	4.77481E-4
2169	3.10918E-4
2170	1.88771E-4
2171	6.66252E-5
2172	0
2173	0
2174	0
2175	0
2176	0
2177	0
2178	0
2179	0
2180	0
2181	0
2182	0
2183	0
2184	0
2185	0
2186	0
2187	0
2188	0
2189	0
2190	0
2191	0
2192	0
2193	0
2194	0
2195	0
2196	0
2197	0
2198	0
2199	0
2200	0
2201	0
2202	0
2203	0
2204	0
2205	0
2206	0
2207	0
2208	0
2209	0
2210	0
2211	0
2212	0
2213	0
2214	0
2215	0
2216	0
2217	0
2218	0
2219	0
2220	0
2221	0
2222	0
2223	0
2224	0
2225	0
2226	0
2227	0
2228	0
2229	0
2230	0
2231	0
2232	0
2233	0
2234	0
2235	0
2236	0
2237	0
2238	0
2239	0
2240	0
2241	0
2242	0
2243	0
2244	0
2245	0
2246	0
2247	0
2248	0
2249	0
2250	0
2251	0
2252	0
2253	0
2254	0
2255	0
2256	0
2257	0
2258	0
2259	0
2260	0
2261	0
2262	0
2263	0
2264	0
2265	0
2266	0
2267	0
2268	0
2269	0
2270	0
2271	0
2272	0
2273	0
2274	0
2275	0
2276	0
2277	0
2278	0
2279	0
2280	0
2281	0
2282	0
2283	0
2284	0
2285	0
2286	0
2287	0
2288	0
2289	0
2290	0
2291	0
2292	0
2293	0
2294	0
2295	0
2296	0
2297	0
2298	0
2299	0
2300	0
2301	0
2302	0
2303	0
2304	0
2305	0
2306	0
2307	0
2308	0
2309	0
2310	0
2311	0
2312	0
2313	0
2314	0
2315	0
2316	0
2317	0
2318	0
2319	0
2320	0
2321	0
2322	0
2323	0
2324	0
2325	0
2326	0
2327	0
2328	0
2329	0
2330	0
2331	0
2332	0
2333	0
2334	0
2335	0
2336	0
2337	0
2338	0
2339	0
2340	0
2341	0
2342	0
2343	0
2344	0
2345	0
2346	0
2347	0
2348	0
2349	0
2350	0
2351	0
2352	0
2353	0
2354	0
2355	0
2356	0
2357	0
2358	0
2359	0
2360	0
2361	0
2362	0
2363	0
2364	0
2365	0
2366	0
2367	0
2368	0
2369	0
2370	0
2371	0
2372	0
2373	0
2374	0
2375	0
2376	0
2377	0
2378	0
2379	0
2380	0
2381	0
2382	0
2383	0
2384	0
2385	0
2386	0
2387	0
2388	0
2389	0
2390	0
2391	0
2392	0
2393	0
2394	0
2395	0
2396	0
2397	0
2398	0
2399	0
2400	0
2401	0
2402	0
2403	0
2404	0
2405	0
2406	0
2407	0
2408	0
2409	0
2410	0
2411	0
2412	0
2413	8.88336E-5
2414	2.33188E-4
2415	4.2196E-4
2416	6.55148E-4
2417	8.55024E-4
2418	0.00101
2419	0.00112
2420	0.00124
2421	0.00141
2422	0.00162
2423	0.00183
2424	0.00203
2425	0.00223
2426	0.00245
2427	0.00268
2428	0.00291
2429	0.00315
2430	0.00338
2431	0.00354
2432	0.0037
2433	0.00398
2434	0.00432
2435	0.00457
2436	0.00472
2437	0.00489
2438	0.00509
2439	0.00527
2440	0.00545
2441	0.00563
2442	0.00586
2443	0.00615
2444	0.00644
2445	0.00672
2446	0.00697
2447	0.00714
2448	0.00727
2449	0.00742
2450	0.00762
2451	0.00781
2452	0.00802
2453	0.00833
2454	0.00869
2455	0.00895
2456	0.00913
2457	0.00932
2458	0.00956
2459	0.00982
2460	0.01003
2461	0.01025
2462	0.01047
2463	0.0107
2464	0.01084
2465	0.01102
2466	0.01119
2467	0.01145
2468	0.01169
2469	0.01191
2470	0.01213
2471	0.01238
2472	0.01264
2473	0.01288
2474	0.0131
2475	0.01327
2476	0.01341
2477	0.01357
2478	0.01376
2479	0.0139
2480	0.01404
2481	0.01424
2482	0.0145
2483	0.01474
2484	0.0149
2485	0.01502
2486	0.01525
2487	0.01553
2488	0.01573
2489	0.01586
2490	0.016
2491	0.01626
2492	0.01653
2493	0.01672
2494	0.01683
2495	0.01693
2496	0.01719
2497	0.01751
2498	0.01771
2499	0.01773
2500	0.0178
2501	0.01804
2502	0.01838
2503	0.01858
2504	0.01866
2505	0.0188
2506	0.01903
2507	0.01924
2508	0.01934
2509	0.01933
2510	0.01935
2511	0.01958
2512	0.01985
2513	0.02003
2514	0.02004
2515	0.02013
2516	0.0203
2517	0.02053
2518	0.02071
2519	0.02076
2520	0.02088
2521	0.0211
2522	0.02138
2523	0.02153
2524	0.02161
2525	0.02174
2526	0.02199
2527	0.02223
2528	0.02236
2529	0.02244
2530	0.0226
2531	0.02284
2532	0.0231
2533	0.02327
2534	0.02336
2535	0.02354
2536	0.02389
2537	0.02425
2538	0.0245
2539	0.02461
2540	0.02474
2541	0.02494
2542	0.02522
2543	0.02545
2544	0.02555
2545	0.02567
2546	0.02592
2547	0.02622
2548	0.02647
2549	0.02659
2550	0.02667
2551	0.02686
2552	0.02716
2553	0.02743
2554	0.02755
2555	0.02765
2556	0.02785
2557	0.02817
2558	0.02852
2559	0.02876
2560	0.02888
2561	0.02902
2562	0.02924
2563	0.02948
2564	0.02963
2565	0.02978
2566	0.03005
2567	0.03044
2568	0.03075
2569	0.03088
2570	0.03094
2571	0.03118
2572	0.03155
2573	0.03185
2574	0.03194
2575	0.03204
2576	0.03227
2577	0.03259
2578	0.03288
2579	0.03309
2580	0.03322
2581	0.03345
2582	0.03377
2583	0.034
2584	0.0341
2585	0.03419
2586	0.03445
2587	0.03481
2588	0.03508
2589	0.03516
2590	0.03519
2591	0.0354
2592	0.03579
2593	0.03609
2594	0.03617
2595	0.0362
2596	0.03637
2597	0.03668
2598	0.03699
2599	0.03715
2600	0.03729
2601	0.03747
2602	0.03777
2603	0.03808
2604	0.03831
2605	0.03845
2606	0.03866
2607	0.03902
2608	0.03935
2609	0.03953
2610	0.03971
2611	0.04005
2612	0.04047
2613	0.0408
2614	0.04092
2615	0.04104
2616	0.04136
2617	0.04184
2618	0.04228
2619	0.04258
2620	0.04282
2621	0.0431
2622	0.04343
2623	0.04381
2624	0.04416
2625	0.04448
2626	0.04479
2627	0.04521
2628	0.04564
2629	0.04589
2630	0.04612
2631	0.04645
2632	0.04694
2633	0.04743
2634	0.04786
2635	0.04824
2636	0.04864
2637	0.04909
2638	0.04952
2639	0.04988
2640	0.05026
2641	0.05071
2642	0.05123
2643	0.05175
2644	0.05216
2645	0.05252
2646	0.05292
2647	0.05337
2648	0.05377
2649	0.05414
2650	0.0546
2651	0.05511
2652	0.05562
2653	0.056
2654	0.05632
2655	0.05664
2656	0.05706
2657	0.05743
2658	0.05779
2659	0.05819
2660	0.05866
2661	0.05916
2662	0.0596
2663	0.05995
2664	0.06027
2665	0.06064
2666	0.061
2667	0.06133
2668	0.06166
2669	0.06203
2670	0.06238
2671	0.06271
2672	0.06301
2673	0.06334
2674	0.06372
2675	0.06406
2676	0.06439
2677	0.06465
2678	0.06497
2679	0.06534
2680	0.06565
2681	0.06583
2682	0.06598
2683	0.06619
2684	0.06649
2685	0.06681
2686	0.06711
2687	0.06739
2688	0.06764
2689	0.06789
2690	0.06815
2691	0.06835
2692	0.06851
2693	0.06877
2694	0.06908
2695	0.06938
2696	0.06959
2697	0.06982
2698	0.07015
2699	0.07054
2700	0.07091
2701	0.07113
2702	0.07128
2703	0.07158
2704	0.07204
2705	0.07248
2706	0.07275
2707	0.07304
2708	0.07348
2709	0.07403
2710	0.07454
2711	0.07505
2712	0.07554
2713	0.07604
2714	0.07652
2715	0.07697
2716	0.07734
2717	0.07774
2718	0.0783
2719	0.07894
2720	0.07953
2721	0.07999
2722	0.08049
2723	0.08109
2724	0.08167
2725	0.08212
2726	0.08255
2727	0.08302
2728	0.08357
2729	0.0841
2730	0.08455
2731	0.08492
2732	0.08522
2733	0.08557
2734	0.086
2735	0.08637
2736	0.08669
2737	0.08705
2738	0.0874
2739	0.08767
2740	0.08785
2741	0.08808
2742	0.08839
2743	0.0887
2744	0.08897
2745	0.08929
2746	0.08972
2747	0.09013
2748	0.09048
2749	0.0908
2750	0.09111
2751	0.09138
2752	0.09159
2753	0.09184
2754	0.09208
2755	0.09233
2756	0.09271
2757	0.09312
2758	0.09344
2759	0.09368
2760	0.09397
2761	0.09429
2762	0.09463
2763	0.09497
2764	0.0953
2765	0.09565
2766	0.09604
2767	0.09644
2768	0.09675
2769	0.09703
2770	0.09736
2771	0.09776
2772	0.09815
2773	0.09847
2774	0.09879
2775	0.09922
2776	0.0997
2777	0.10018
2778	0.10057
2779	0.10093
2780	0.10138
2781	0.10191
2782	0.10247
2783	0.10291
2784	0.1034
2785	0.10404
2786	0.10475
2787	0.10532
2788	0.10573
2789	0.10621
2790	0.10694
2791	0.10782
2792	0.10852
2793	0.10908
2794	0.10963
2795	0.11036
2796	0.11126
2797	0.11211
2798	0.11285
2799	0.11358
2800	0.11447
2801	0.11553
2802	0.11662
2803	0.11765
2804	0.11872
2805	0.1199
2806	0.12108
2807	0.12218
2808	0.12336
2809	0.12471
2810	0.12622
2811	0.12772
2812	0.12909
2813	0.13045
2814	0.13201
2815	0.13382
2816	0.13555
2817	0.13714
2818	0.13865
2819	0.14011
2820	0.14167
2821	0.14323
2822	0.14463
2823	0.14579
2824	0.14686
2825	0.148
2826	0.14911
2827	0.15013
2828	0.15111
2829	0.15221
2830	0.15342
2831	0.15466
2832	0.15584
2833	0.15706
2834	0.15856
2835	0.16039
2836	0.16239
2837	0.16449
2838	0.16676
2839	0.16943
2840	0.17245
2841	0.17578
2842	0.17949
2843	0.18384
2844	0.18898
2845	0.1948
2846	0.20116
2847	0.20807
2848	0.21553
2849	0.22334
2850	0.23097
2851	0.23781
2852	0.24343
2853	0.24777
2854	0.25091
2855	0.25289
2856	0.25381
2857	0.25401
2858	0.25392
2859	0.25371
2860	0.25358
2861	0.25378
2862	0.25447
2863	0.25563
2864	0.25725
2865	0.25933
2866	0.26177
2867	0.26459
2868	0.26786
2869	0.27144
2870	0.27512
2871	0.27869
2872	0.28198
2873	0.28487
2874	0.28743
2875	0.28974
2876	0.29165
2877	0.29318
2878	0.29455
2879	0.2959
2880	0.29716
2881	0.29829
2882	0.29949
2883	0.30085
2884	0.30228
2885	0.30372
2886	0.30525
2887	0.30695
2888	0.30894
2889	0.31117
2890	0.31347
2891	0.3159
2892	0.31848
2893	0.32116
2894	0.32399
2895	0.32716
2896	0.33049
2897	0.33384
2898	0.33719
2899	0.34064
2900	0.34419
2901	0.34785
2902	0.35165
2903	0.35555
2904	0.35955
2905	0.36373
2906	0.36813
2907	0.37271
2908	0.37744
2909	0.38246
2910	0.38786
2911	0.39371
2912	0.40011
2913	0.40707
2914	0.41469
2915	0.42286
2916	0.43121
2917	0.43932
2918	0.44704
2919	0.45459
2920	0.46197
2921	0.46892
2922	0.47502
2923	0.4801
2924	0.48413
2925	0.48705
2926	0.48876
2927	0.48907
2928	0.48806
2929	0.48618
2930	0.48374
2931	0.48077
2932	0.47713
2933	0.47287
2934	0.46804
2935	0.46265
2936	0.45669
2937	0.45016
2938	0.44317
2939	0.43594
2940	0.42851
2941	0.42085
2942	0.41298
2943	0.40501
2944	0.39726
2945	0.38995
2946	0.38297
2947	0.3762
2948	0.36986
2949	0.36421
2950	0.35921
2951	0.35482
2952	0.35098
2953	0.34778
2954	0.34537
2955	0.34375
2956	0.34262
2957	0.34182
2958	0.34135
2959	0.34129
2960	0.34151
2961	0.34181
2962	0.34195
2963	0.34195
2964	0.34191
2965	0.34188
2966	0.34173
2967	0.34138
2968	0.3408
2969	0.33996
2970	0.33884
2971	0.33746
2972	0.33578
2973	0.33373
2974	0.33145
2975	0.32901
2976	0.32629
2977	0.32319
2978	0.31968
2979	0.31598
2980	0.31225
2981	0.30847
2982	0.30459
2983	0.30057
2984	0.2964
2985	0.29212
2986	0.28763
2987	0.28294
2988	0.27813
2989	0.2733
2990	0.26848
2991	0.26374
2992	0.25911
2993	0.25467
2994	0.25056
2995	0.24674
2996	0.2431
2997	0.23966
2998	0.23651
2999	0.23378
3000	0.23137
3001	0.22918
3002	0.22715
3003	0.22528
3004	0.22361
3005	0.22214
3006	0.22081
3007	0.21956
3008	0.21841
3009	0.2173
3010	0.21619
3011	0.21524
3012	0.21449
3013	0.21389
3014	0.21339
3015	0.21303
3016	0.21281
3017	0.21273
3018	0.21277
3019	0.21282
3020	0.21298
3021	0.21327
3022	0.21367
3023	0.21407
3024	0.2144
3025	0.2148
3026	0.21541
3027	0.21612
3028	0.21672
3029	0.21712
3030	0.21754
3031	0.21819
3032	0.21893
3033	0.21959
3034	0.22017
3035	0.22086
3036	0.22174
3037	0.22269
3038	0.22349
3039	0.22409
3040	0.22466
3041	0.2254
3042	0.22631
3043	0.2272
3044	0.228
3045	0.22874
3046	0.22955
3047	0.23042
3048	0.2313
3049	0.2321
3050	0.23283
3051	0.23368
3052	0.23469
3053	0.23566
3054	0.23638
3055	0.23701
3056	0.23784
3057	0.23886
3058	0.23986
3059	0.24064
3060	0.24136
3061	0.24222
3062	0.24317
3063	0.24407
3064	0.24488
3065	0.2457
3066	0.24649
3067	0.24732
3068	0.2483
3069	0.24923
3070	0.25011
3071	0.25104
3072	0.25202
3073	0.25285
3074	0.25359
3075	0.25438
3076	0.25523
3077	0.25609
3078	0.25691
3079	0.25773
3080	0.25867
3081	0.25974
3082	0.2608
3083	0.26176
3084	0.26263
3085	0.26354
3086	0.2646
3087	0.26573
3088	0.26685
3089	0.26787
3090	0.26882
3091	0.26987
3092	0.27109
3093	0.27246
3094	0.27375
3095	0.27484
3096	0.27594
3097	0.27722
3098	0.27848
3099	0.27956
3100	0.28058
3101	0.28185
3102	0.28333
3103	0.28471
3104	0.28593
3105	0.28713
3106	0.28833
3107	0.28949
3108	0.29059
3109	0.29165
3110	0.29273
3111	0.29377
3112	0.29477
3113	0.29577
3114	0.29674
3115	0.29769
3116	0.29867
3117	0.29967
3118	0.30062
3119	0.30158
3120	0.30267
3121	0.30394
3122	0.30539
3123	0.3069
3124	0.30831
3125	0.30952
3126	0.31064
3127	0.31197
3128	0.31342
3129	0.31469
3130	0.3159
3131	0.3173
3132	0.31885
3133	0.32042
3134	0.32192
3135	0.32332
3136	0.32466
3137	0.32605
3138	0.32746
3139	0.32883
3140	0.33024
3141	0.33185
3142	0.33363
3143	0.33539
3144	0.3371
3145	0.33874
3146	0.34042
3147	0.34216
3148	0.34395
3149	0.34556
3150	0.34708
3151	0.34868
3152	0.35039
3153	0.3522
3154	0.35414
3155	0.35613
3156	0.35825
3157	0.36044
3158	0.36251
3159	0.36434
3160	0.36614
3161	0.36805
3162	0.37004
3163	0.37201
3164	0.37393
3165	0.3758
3166	0.37768
3167	0.37974
3168	0.38193
3169	0.38399
3170	0.38584
3171	0.38765
3172	0.38957
3173	0.3916
3174	0.39363
3175	0.39568
3176	0.39765
3177	0.3996
3178	0.40153
3179	0.4034
3180	0.40527
3181	0.4073
3182	0.40953
3183	0.41175
3184	0.4138
3185	0.41564
3186	0.41756
3187	0.41964
3188	0.42158
3189	0.42328
3190	0.42508
3191	0.42709
3192	0.42911
3193	0.43101
3194	0.43281
3195	0.43455
3196	0.43633
3197	0.43818
3198	0.44002
3199	0.44167
3200	0.44322
3201	0.44481
3202	0.44643
3203	0.44808
3204	0.44968
3205	0.4512
3206	0.45275
3207	0.45443
3208	0.45612
3209	0.45765
3210	0.45906
3211	0.46049
3212	0.46199
3213	0.46344
3214	0.46479
3215	0.46618
3216	0.46774
3217	0.46926
3218	0.47063
3219	0.47194
3220	0.47347
3221	0.47512
3222	0.47679
3223	0.4785
3224	0.48008
3225	0.48147
3226	0.48282
3227	0.48422
3228	0.48575
3229	0.4874
3230	0.48894
3231	0.49033
3232	0.49156
3233	0.49285
3234	0.49438
3235	0.49615
3236	0.49797
3237	0.4997
3238	0.5014
3239	0.50308
3240	0.50469
3241	0.50625
3242	0.50777
3243	0.50926
3244	0.51073
3245	0.51211
3246	0.51342
3247	0.5148
3248	0.51635
3249	0.518
3250	0.51965
3251	0.52123
3252	0.52277
3253	0.5242
3254	0.52542
3255	0.52653
3256	0.52779
3257	0.52933
3258	0.53089
3259	0.53237
3260	0.53379
3261	0.53523
3262	0.53665
3263	0.53798
3264	0.53929
3265	0.5406
3266	0.54184
3267	0.54291
3268	0.54377
3269	0.54461
3270	0.54553
3271	0.54672
3272	0.54821
3273	0.54979
3274	0.55098
3275	0.55202
3276	0.55332
3277	0.55479
3278	0.55601
3279	0.55701
3280	0.55805
3281	0.55926
3282	0.56046
3283	0.56155
3284	0.56255
3285	0.56345
3286	0.56439
3287	0.5655
3288	0.56671
3289	0.56786
3290	0.56879
3291	0.56961
3292	0.57061
3293	0.5718
3294	0.57288
3295	0.57377
3296	0.57469
3297	0.57575
3298	0.57692
3299	0.57806
3300	0.57892
3301	0.57964
3302	0.58058
3303	0.58157
3304	0.58228
3305	0.58294
3306	0.5838
3307	0.5847
3308	0.58554
3309	0.58635
3310	0.58722
3311	0.58823
3312	0.58926
3313	0.59008
3314	0.59077
3315	0.59153
3316	0.5924
3317	0.59321
3318	0.59386
3319	0.59434
3320	0.59483
3321	0.59557
3322	0.59636
3323	0.59696
3324	0.59735
3325	0.59763
3326	0.59802
3327	0.59872
3328	0.59955
3329	0.60002
3330	0.60034
3331	0.60075
3332	0.60134
3333	0.60195
3334	0.60235
3335	0.60246
3336	0.60244
3337	0.60243
3338	0.60241
3339	0.60251
3340	0.60288
3341	0.60342
3342	0.60388
3343	0.6041
3344	0.60431
3345	0.60466
3346	0.60505
3347	0.60533
3348	0.60535
3349	0.605
3350	0.60457
3351	0.60456
3352	0.60497
3353	0.60541
3354	0.6054
3355	0.60519
3356	0.60517
3357	0.60519
3358	0.60501
3359	0.60472
3360	0.60441
3361	0.60428
3362	0.60439
3363	0.60451
3364	0.60432
3365	0.60387
3366	0.6033
3367	0.60277
3368	0.60219
3369	0.6016
3370	0.60126
3371	0.60134
3372	0.60155
3373	0.60158
3374	0.60149
3375	0.60125
3376	0.60074
3377	0.60025
3378	0.59997
3379	0.59952
3380	0.59874
3381	0.59819
3382	0.59823
3383	0.59828
3384	0.59784
3385	0.59723
3386	0.59676
3387	0.59628
3388	0.59555
3389	0.59454
3390	0.59323
3391	0.59169
3392	0.59058
3393	0.59029
3394	0.59025
3395	0.5899
3396	0.5894
3397	0.58871
3398	0.58749
3399	0.586
3400	0.5847
3401	0.58378
3402	0.58326
3403	0.58321
3404	0.5833
3405	0.58294
3406	0.58198
3407	0.58067
3408	0.57923
3409	0.578
3410	0.57747
3411	0.57716
3412	0.57611
3413	0.5748
3414	0.57403
3415	0.5735
3416	0.5728
3417	0.57199
3418	0.57121
3419	0.57028
3420	0.5689
3421	0.56761
3422	0.56679
3423	0.56599
3424	0.56494
3425	0.56389
3426	0.56288
3427	0.56157
3428	0.55995
3429	0.55843
3430	0.55716
3431	0.55612
3432	0.55533
3433	0.55446
3434	0.55302
3435	0.55139
3436	0.55015
3437	0.5492
3438	0.54834
3439	0.54769
3440	0.54719
3441	0.54646
3442	0.54544
3443	0.54426
3444	0.54304
3445	0.5418
3446	0.54037
3447	0.53871
3448	0.53737
3449	0.53661
3450	0.53584
3451	0.53453
3452	0.53267
3453	0.53087
3454	0.52956
3455	0.52838
3456	0.52708
3457	0.52589
3458	0.52468
3459	0.523
3460	0.521
3461	0.51943
3462	0.51851
3463	0.51751
3464	0.516
3465	0.51417
3466	0.51223
3467	0.51062
3468	0.50947
3469	0.50823
3470	0.50678
3471	0.50554
3472	0.5043
3473	0.50289
3474	0.50158
3475	0.50047
3476	0.49934
3477	0.49787
3478	0.49598
3479	0.49415
3480	0.4927
3481	0.49141
3482	0.4899
3483	0.48831
3484	0.48689
3485	0.4854
3486	0.48357
3487	0.48154
3488	0.4796
3489	0.47782
3490	0.47616
3491	0.47435
3492	0.47233
3493	0.47039
3494	0.4686
3495	0.46681
3496	0.4649
3497	0.46288
3498	0.4608
3499	0.45887
3500	0.4571
3501	0.45535
3502	0.45338
3503	0.45121
3504	0.44915
3505	0.44728
3506	0.44533
3507	0.44337
3508	0.44154
3509	0.43963
3510	0.43746
3511	0.43536
3512	0.43335
3513	0.43128
3514	0.42931
3515	0.42745
3516	0.4255
3517	0.42344
3518	0.42147
3519	0.41953
3520	0.41755
3521	0.41552
3522	0.41351
3523	0.41148
3524	0.4094
3525	0.40737
3526	0.40529
3527	0.40308
3528	0.40084
3529	0.39875
3530	0.3969
3531	0.39532
3532	0.39388
3533	0.39209
3534	0.38979
3535	0.38737
3536	0.38514
3537	0.38305
3538	0.38097
3539	0.37892
3540	0.37699
3541	0.37522
3542	0.37327
3543	0.37098
3544	0.36869
3545	0.36667
3546	0.36491
3547	0.36321
3548	0.36124
3549	0.35904
3550	0.35696
3551	0.35489
3552	0.35276
3553	0.35058
3554	0.34856
3555	0.34658
3556	0.34459
3557	0.34254
3558	0.34037
3559	0.33829
3560	0.33622
3561	0.33391
3562	0.33157
3563	0.32942
3564	0.32737
3565	0.3254
3566	0.32327
3567	0.32106
3568	0.31898
3569	0.31668
3570	0.31443
3571	0.31237
3572	0.31033
3573	0.30827
3574	0.30625
3575	0.30414
3576	0.30206
3577	0.30007
3578	0.29807
3579	0.29589
3580	0.29356
3581	0.29129
3582	0.28911
3583	0.28684
3584	0.28446
3585	0.28216
3586	0.28004
3587	0.27788
3588	0.27564
3589	0.27344
3590	0.27118
3591	0.26867
3592	0.26598
3593	0.26342
3594	0.26129
3595	0.25956
3596	0.25776
3597	0.25563
3598	0.25342
3599	0.2511
3600	0.24862
3601	0.24628
3602	0.24416
3603	0.2422
3604	0.24031
3605	0.2382
3606	0.23604
3607	0.23408
3608	0.23246
3609	0.23111
3610	0.22946
3611	0.2275
3612	0.2258
3613	0.22386
3614	0.22124
3615	0.21836
3616	0.21563
3617	0.21326
3618	0.21127
3619	0.20951
3620	0.20727
3621	0.20428
3622	0.20143
3623	0.19902
3624	0.19661
3625	0.19418
3626	0.19189
3627	0.18977
3628	0.18837
3629	0.18798
3630	0.18628
3631	0.18332
3632	0.18087
3633	0.17911
3634	0.1775
3635	0.17561
3636	0.17363
3637	0.17183
3638	0.17018
3639	0.16857
3640	0.16684
3641	0.165
3642	0.16314
3643	0.16116
3644	0.15897
3645	0.15659
3646	0.15449
3647	0.15296
3648	0.15127
3649	0.14896
3650	0.14691
3651	0.14606
3652	0.14482
3653	0.14259
3654	0.14006
3655	0.13791
3656	0.13673
3657	0.13544
3658	0.13295
3659	0.13051
3660	0.1286
3661	0.12701
3662	0.12546
3663	0.12379
3664	0.12205
3665	0.12026
3666	0.11838
3667	0.11644
3668	0.11466
3669	0.11337
3670	0.1129
3671	0.11217
3672	0.10992
3673	0.10707
3674	0.10486
3675	0.10446
3676	0.10481
3677	0.10269
3678	0.10015
3679	0.09862
3680	0.09749
3681	0.09582
3682	0.09399
3683	0.09239
3684	0.09093
3685	0.08942
3686	0.08759
3687	0.08571
3688	0.0847
3689	0.08411
3690	0.08277
3691	0.08174
3692	0.08098
3693	0.07967
3694	0.07822
3695	0.07696
3696	0.0759
3697	0.0749
3698	0.07385
3699	0.07271
3700	0.07176
3701	0.0715
3702	0.07152
3703	0.07059
3704	0.06929
3705	0.0684
3706	0.06771
3707	0.06676
3708	0.06549
3709	0.06482
3710	0.06469
3711	0.06453
3712	0.06543
3713	0.0664
3714	0.06576
3715	0.06478
3716	0.06382
3717	0.06261
3718	0.06145
3719	0.06054
3720	0.05936
3721	0.05786
3722	0.0568
3723	0.05624
3724	0.05544
3725	0.05439
3726	0.05363
3727	0.05343
3728	0.05337
3729	0.05292
3730	0.05203
3731	0.0515
3732	0.05217
3733	0.05205
3734	0.05079
3735	0.05062
3736	0.05125
3737	0.05126
3738	0.05082
3739	0.05031
3740	0.05012
3741	0.05031
3742	0.05004
3743	0.04939
3744	0.05039
3745	0.05238
3746	0.05143
3747	0.04914
3748	0.04799
3749	0.0485
3750	0.04919
3751	0.04897
3752	0.0496
3753	0.05
3754	0.04878
3755	0.04739
3756	0.0468
3757	0.04649
3758	0.04584
3759	0.04565
3760	0.0461
3761	0.04563
3762	0.04476
3763	0.04423
3764	0.04386
3765	0.04388
3766	0.04423
3767	0.04381
3768	0.04274
3769	0.04223
3770	0.04268
3771	0.04288
3772	0.04215
3773	0.04142
3774	0.04096
3775	0.04047
3776	0.0398
3777	0.03898
3778	0.03825
3779	0.03825
3780	0.03884
3781	0.03878
3782	0.03809
3783	0.03754
3784	0.0374
3785	0.03742
3786	0.03715
3787	0.03675
3788	0.03643
3789	0.03614
3790	0.03579
3791	0.03551
3792	0.0353
3793	0.03489
3794	0.03418
3795	0.03365
3796	0.03378
3797	0.03412
3798	0.03373
3799	0.03279
3800	0.03217
3801	0.03295
3802	0.03422
3803	0.03381
3804	0.03247
3805	0.03144
3806	0.03118
3807	0.03198
3808	0.03218
3809	0.0314
3810	0.03071
3811	0.03035
3812	0.03001
3813	0.02947
3814	0.02876
3815	0.02845
3816	0.02942
3817	0.02971
3818	0.02839
3819	0.02713
3820	0.02684
3821	0.02833
3822	0.02951
3823	0.02834
3824	0.02715
3825	0.02658
3826	0.02648
3827	0.02669
3828	0.02667
3829	0.02614
3830	0.02553
3831	0.02547
3832	0.02568
3833	0.0251
3834	0.02443
3835	0.02442
3836	0.024
3837	0.0237
3838	0.0246
3839	0.02478
3840	0.02453
3841	0.02457
3842	0.02377
3843	0.02301
3844	0.02313
3845	0.02306
3846	0.02249
3847	0.02202
3848	0.02181
3849	0.02175
3850	0.02148
3851	0.02111
3852	0.02131
3853	0.02266
3854	0.02452
3855	0.02415
3856	0.02215
3857	0.02115
3858	0.0209
3859	0.02048
3860	0.0199
3861	0.01963
3862	0.01957
3863	0.01911
3864	0.01913
3865	0.02014
3866	0.0202
3867	0.01893
3868	0.01769
3869	0.01759
3870	0.01901
3871	0.01929
3872	0.01821
3873	0.01759
3874	0.01792
3875	0.01828
3876	0.01764
3877	0.01693
3878	0.01638
3879	0.01615
3880	0.01658
3881	0.01697
3882	0.01655
3883	0.01581
3884	0.01501
3885	0.01482
3886	0.01592
3887	0.01655
3888	0.01598
3889	0.0152
3890	0.01486
3891	0.01541
3892	0.01606
3893	0.01562
3894	0.01506
3895	0.01487
3896	0.01465
3897	0.01409
3898	0.01377
3899	0.01422
3900	0.01449
3901	0.01424
3902	0.01426
3903	0.01415
3904	0.01382
3905	0.0138
3906	0.01375
3907	0.01351
3908	0.01327
3909	0.0131
3910	0.01301
3911	0.01284
3912	0.01265
3913	0.01255
3914	0.01246
3915	0.01221
3916	0.01203
3917	0.0122
3918	0.01227
3919	0.01211
3920	0.0123
3921	0.01254
3922	0.01221
3923	0.01171
3924	0.01161
3925	0.01198
3926	0.01201
3927	0.01161
3928	0.01126
3929	0.0112
3930	0.01124
3931	0.01122
3932	0.01127
3933	0.01125
3934	0.01094
3935	0.01064
3936	0.01062
3937	0.01078
3938	0.01093
3939	0.0109
3940	0.01062
3941	0.01023
3942	0.01016
3943	0.01043
3944	0.01062
3945	0.01056
3946	0.0104
3947	0.0103
3948	0.01019
3949	0.00996
3950	0.00985
3951	0.00973
3952	0.00963
3953	0.00962
3954	0.00965
3955	0.00971
3956	0.00985
3957	0.00985
3958	0.00961
3959	0.00932
3960	0.00909
3961	0.00904
3962	0.00922
3963	0.00931
3964	0.00904
3965	0.00863
3966	0.00841
3967	0.00847
3968	0.00859
3969	0.00853
3970	0.00828
3971	0.00813
3972	0.00817
3973	0.00827
3974	0.00826
3975	0.00823
3976	0.00823
3977	0.00826
3978	0.00832
3979	0.00835
3980	0.00832
3981	0.00805
3982	0.0077
3983	0.00745
3984	0.00742
3985	0.00758
3986	0.00771
3987	0.00762
3988	0.00752
3989	0.00762
3990	0.00768
3991	0.00747
3992	0.00714
3993	0.00706
3994	0.00728
3995	0.00748
3996	0.00745
3997	0.00736