4000.18193	0.00884
3999.21756	0.00875
3998.2532	0.00888
3997.28884	0.00921
3996.32447	0.00977
3995.36011	0.01002
3994.39574	0.00965
3993.43138	0.00951
3992.46702	0.00994
3991.50265	0.01035
3990.53829	0.01021
3989.57392	0.00974
3988.60956	0.00946
3987.6452	0.00959
3986.68083	0.00981
3985.71647	0.00973
3984.7521	0.00948
3983.78774	0.0097
3982.82338	0.01023
3981.85901	0.01055
3980.89465	0.01062
3979.93028	0.01053
3978.96592	0.01042
3978.00156	0.01067
3977.03719	0.01129
3976.07283	0.01156
3975.10846	0.01136
3974.1441	0.01126
3973.17974	0.01139
3972.21537	0.01126
3971.25101	0.01107
3970.28664	0.01128
3969.32228	0.01133
3968.35792	0.01092
3967.39355	0.01075
3966.42919	0.01109
3965.46482	0.01147
3964.50046	0.01177
3963.5361	0.01248
3962.57173	0.01311
3961.60737	0.01261
3960.643	0.01178
3959.67864	0.01181
3958.71428	0.0123
3957.74991	0.01271
3956.78555	0.01266
3955.82118	0.01225
3954.85682	0.01233
3953.89246	0.01277
3952.92809	0.01288
3951.96373	0.01337
3950.99936	0.01483
3950.035	0.01524
3949.07064	0.01469
3948.10627	0.01435
3947.14191	0.01315
3946.17754	0.01244
3945.21318	0.01374
3944.24882	0.01616
3943.28445	0.01696
3942.32009	0.01423
3941.35572	0.01204
3940.39136	0.01251
3939.427	0.01351
3938.46263	0.01368
3937.49827	0.01342
3936.5339	0.01354
3935.56954	0.01415
3934.60518	0.01554
3933.64081	0.01766
3932.67645	0.01821
3931.71208	0.01637
3930.74772	0.01543
3929.78336	0.01525
3928.81899	0.01422
3927.85463	0.01395
3926.89026	0.01592
3925.9259	0.01902
3924.96154	0.01948
3923.99717	0.01631
3923.03281	0.01405
3922.06844	0.01503
3921.10408	0.01751
3920.13972	0.01745
3919.17535	0.01639
3918.21099	0.01859
3917.24662	0.01962
3916.28226	0.01603
3915.3179	0.01391
3914.35353	0.0146
3913.38917	0.01538
3912.4248	0.01547
3911.46044	0.01543
3910.49608	0.01558
3909.53171	0.01576
3908.56735	0.01652
3907.60298	0.01874
3906.63862	0.02226
3905.67426	0.0252
3904.70989	0.02482
3903.74553	0.02273
3902.78116	0.02252
3901.8168	0.02117
3900.85244	0.02049
3899.88807	0.02236
3898.92371	0.02008
3897.95934	0.01616
3896.99498	0.01587
3896.03062	0.01742
3895.06625	0.01924
3894.10189	0.02065
3893.13752	0.02311
3892.17316	0.02562
3891.2088	0.02132
3890.24443	0.01603
3889.28007	0.01637
3888.3157	0.01959
3887.35134	0.02455
3886.38698	0.02753
3885.42261	0.02194
3884.45825	0.01823
3883.49388	0.01974
3882.52952	0.02296
3881.56516	0.02769
3880.60079	0.02683
3879.63643	0.0189
3878.67206	0.01689
3877.7077	0.01897
3876.74333	0.02142
3875.77897	0.0254
3874.81461	0.02855
3873.85024	0.02398
3872.88588	0.021
3871.92151	0.02621
3870.95715	0.03456
3869.99279	0.03206
3869.02842	0.0204
3868.06406	0.01844
3867.09969	0.02348
3866.13533	0.03053
3865.17097	0.03132
3864.2066	0.02501
3863.24224	0.02426
3862.27787	0.02545
3861.31351	0.02245
3860.34915	0.02074
3859.38478	0.02308
3858.42042	0.02675
3857.45605	0.02856
3856.49169	0.02993
3855.52733	0.03697
3854.56296	0.04711
3853.5986	0.04148
3852.63423	0.02823
3851.66987	0.02208
3850.70551	0.02157
3849.74114	0.02316
3848.77678	0.02337
3847.81241	0.02341
3846.84805	0.02449
3845.88369	0.02695
3844.91932	0.03047
3843.95496	0.03051
3842.99059	0.02786
3842.02623	0.0303
3841.06187	0.03478
3840.0975	0.03517
3839.13314	0.03607
3838.16877	0.03417
3837.20441	0.02735
3836.24005	0.02752
3835.27568	0.02938
3834.31132	0.02721
3833.34695	0.02827
3832.38259	0.03153
3831.41823	0.02885
3830.45386	0.02543
3829.4895	0.02699
3828.52513	0.03054
3827.56077	0.0326
3826.59641	0.03062
3825.63204	0.02843
3824.66768	0.02976
3823.70331	0.03399
3822.73895	0.04101
3821.77459	0.04582
3820.81022	0.03522
3819.84586	0.02678
3818.88149	0.0284
3817.91713	0.0346
3816.95277	0.04095
3815.9884	0.03558
3815.02404	0.02662
3814.05967	0.02644
3813.09531	0.02887
3812.13095	0.0302
3811.16658	0.03076
3810.20222	0.03151
3809.23785	0.03418
3808.27349	0.03963
3807.30913	0.04066
3806.34476	0.03239
3805.3804	0.03008
3804.41603	0.0347
3803.45167	0.0421
3802.48731	0.0487
3801.52294	0.04311
3800.55858	0.03197
3799.59421	0.03097
3798.62985	0.03526
3797.66549	0.03935
3796.70112	0.03771
3795.73676	0.03246
3794.77239	0.03127
3793.80803	0.03281
3792.84367	0.03392
3791.8793	0.03433
3790.91494	0.03464
3789.95057	0.03497
3788.98621	0.0353
3788.02185	0.036
3787.05748	0.03764
3786.09312	0.03979
3785.12875	0.0397
3784.16439	0.03692
3783.20003	0.03571
3782.23566	0.03719
3781.2713	0.04037
3780.30693	0.04314
3779.34257	0.04044
3778.37821	0.03645
3777.41384	0.03641
3776.44948	0.03774
3775.48511	0.0385
3774.52075	0.03895
3773.55639	0.03964
3772.59202	0.04124
3771.62766	0.04476
3770.66329	0.04753
3769.69893	0.04314
3768.73457	0.03866
3767.7702	0.041
3766.80584	0.04566
3765.84147	0.04545
3764.87711	0.04147
3763.91275	0.04086
3762.94838	0.04244
3761.98402	0.04478
3761.01965	0.04913
3760.05529	0.05137
3759.09093	0.047
3758.12656	0.04553
3757.1622	0.04728
3756.19783	0.04635
3755.23347	0.04641
3754.26911	0.05165
3753.30474	0.05995
3752.34038	0.06186
3751.37601	0.05638
3750.41165	0.05665
3749.44729	0.05356
3748.48292	0.0473
3747.51856	0.04863
3746.55419	0.05581
3745.58983	0.06541
3744.62547	0.05879
3743.6611	0.04318
3742.69674	0.04465
3741.73237	0.04949
3740.76801	0.04988
3739.80365	0.04963
3738.83928	0.0525
3737.87492	0.05628
3736.91055	0.05993
3735.94619	0.06154
3734.98182	0.05458
3734.01746	0.0497
3733.0531	0.05161
3732.08873	0.04977
3731.12437	0.04431
3730.16	0.04414
3729.19564	0.04719
3728.23128	0.05094
3727.26691	0.05354
3726.30255	0.05264
3725.33818	0.05073
3724.37382	0.0519
3723.40946	0.05538
3722.44509	0.05504
3721.48073	0.05151
3720.51636	0.05282
3719.552	0.05571
3718.58764	0.05527
3717.62327	0.05496
3716.65891	0.05741
3715.69454	0.06035
3714.73018	0.06283
3713.76582	0.06721
3712.80145	0.07172
3711.83709	0.06745
3710.87272	0.06244
3709.90836	0.0613
3708.944	0.0579
3707.97963	0.05654
3707.01527	0.05851
3706.0509	0.06005
3705.08654	0.06035
3704.12218	0.06185
3703.15781	0.06581
3702.19345	0.06756
3701.22908	0.06338
3700.26472	0.06127
3699.30036	0.06279
3698.33599	0.06471
3697.37163	0.06589
3696.40726	0.06638
3695.4429	0.06698
3694.47854	0.06845
3693.51417	0.07109
3692.54981	0.07551
3691.58544	0.07905
3690.62108	0.07857
3689.65672	0.08007
3688.69235	0.07964
3687.72799	0.07306
3686.76362	0.07183
3685.79926	0.07462
3684.8349	0.07665
3683.87053	0.07735
3682.90617	0.07834
3681.9418	0.08043
3680.97744	0.08358
3680.01308	0.08583
3679.04871	0.08614
3678.08435	0.08914
3677.11998	0.09742
3676.15562	0.10534
3675.19126	0.09524
3674.22689	0.0865
3673.26253	0.08933
3672.29816	0.09682
3671.3338	0.10422
3670.36944	0.10439
3669.40507	0.09996
3668.44071	0.09731
3667.47634	0.09732
3666.51198	0.09946
3665.54762	0.10166
3664.58325	0.10322
3663.61889	0.10466
3662.65452	0.10611
3661.69016	0.10766
3660.7258	0.10916
3659.76143	0.11059
3658.79707	0.11301
3657.8327	0.11774
3656.86834	0.12161
3655.90398	0.11927
3654.93961	0.11783
3653.97525	0.12078
3653.01088	0.12615
3652.04652	0.13347
3651.08216	0.14018
3650.11779	0.14063
3649.15343	0.13913
3648.18906	0.13972
3647.2247	0.1375
3646.26034	0.13424
3645.29597	0.13477
3644.33161	0.13775
3643.36724	0.14089
3642.40288	0.14285
3641.43852	0.14382
3640.47415	0.14554
3639.50979	0.14805
3638.54542	0.14988
3637.58106	0.1508
3636.6167	0.15235
3635.65233	0.1557
3634.68797	0.15934
3633.7236	0.16021
3632.75924	0.16045
3631.79488	0.16435
3630.83051	0.17223
3629.86615	0.18105
3628.90178	0.17897
3627.93742	0.17209
3626.97306	0.17231
3626.00869	0.1746
3625.04433	0.1767
3624.07996	0.17938
3623.1156	0.18263
3622.15124	0.18678
3621.18687	0.19233
3620.22251	0.19766
3619.25814	0.20017
3618.29378	0.20017
3617.32942	0.20026
3616.36505	0.20329
3615.40069	0.20891
3614.43632	0.21386
3613.47196	0.21679
3612.5076	0.21706
3611.54323	0.21751
3610.57887	0.22169
3609.6145	0.22613
3608.65014	0.22755
3607.68578	0.22855
3606.72141	0.22919
3605.75705	0.23017
3604.79268	0.23314
3603.82832	0.23691
3602.86396	0.24055
3601.89959	0.24427
3600.93523	0.24718
3599.97086	0.24934
3599.0065	0.25206
3598.04214	0.25516
3597.07777	0.25901
3596.11341	0.26293
3595.14904	0.26508
3594.18468	0.2669
3593.22031	0.26919
3592.25595	0.27127
3591.29159	0.27467
3590.32722	0.28021
3589.36286	0.28692
3588.39849	0.29246
3587.43413	0.29432
3586.46977	0.29316
3585.5054	0.29343
3584.54104	0.29658
3583.57667	0.30008
3582.61231	0.30286
3581.64795	0.30618
3580.68358	0.30987
3579.71922	0.31282
3578.75485	0.31547
3577.79049	0.31862
3576.82613	0.32157
3575.86176	0.32438
3574.8974	0.32741
3573.93303	0.33014
3572.96867	0.33284
3572.00431	0.33602
3571.03994	0.33948
3570.07558	0.34364
3569.11121	0.34914
3568.14685	0.35469
3567.18249	0.35757
3566.21812	0.35724
3565.25376	0.35672
3564.28939	0.35861
3563.32503	0.3613
3562.36067	0.36364
3561.3963	0.36643
3560.43194	0.36904
3559.46757	0.37107
3558.50321	0.37349
3557.53885	0.37616
3556.57448	0.37843
3555.61012	0.38098
3554.64575	0.3845
3553.68139	0.38816
3552.71703	0.391
3551.75266	0.39248
3550.7883	0.39406
3549.82393	0.39676
3548.85957	0.40032
3547.89521	0.40409
3546.93084	0.40715
3545.96648	0.40976
3545.00211	0.41178
3544.03775	0.41326
3543.07339	0.41501
3542.10902	0.41705
3541.14466	0.41931
3540.18029	0.42181
3539.21593	0.4244
3538.25157	0.42735
3537.2872	0.43066
3536.32284	0.43311
3535.35847	0.43467
3534.39411	0.43684
3533.42975	0.43957
3532.46538	0.44232
3531.50102	0.44505
3530.53665	0.44788
3529.57229	0.45097
3528.60793	0.45381
3527.64356	0.45593
3526.6792	0.45774
3525.71483	0.46008
3524.75047	0.463
3523.78611	0.46559
3522.82174	0.46706
3521.85738	0.46822
3520.89301	0.47026
3519.92865	0.47279
3518.96429	0.47496
3517.99992	0.47677
3517.03556	0.47861
3516.07119	0.4807
3515.10683	0.48312
3514.14247	0.48579
3513.1781	0.48851
3512.21374	0.4913
3511.24937	0.49433
3510.28501	0.49761
3509.32065	0.49976
3508.35628	0.50076
3507.39192	0.50241
3506.42755	0.50506
3505.46319	0.50833
3504.49883	0.51168
3503.53446	0.51412
3502.5701	0.51551
3501.60573	0.51695
3500.64137	0.51897
3499.67701	0.52108
3498.71264	0.52327
3497.74828	0.52578
3496.78391	0.5284
3495.81955	0.53076
3494.85519	0.53299
3493.89082	0.53529
3492.92646	0.53767
3491.96209	0.54011
3490.99773	0.54269
3490.03337	0.54537
3489.069	0.54799
3488.10464	0.55019
3487.14027	0.55228
3486.17591	0.55469
3485.21155	0.55726
3484.24718	0.55984
3483.28282	0.56262
3482.31845	0.56522
3481.35409	0.56716
3480.38973	0.56888
3479.42536	0.57081
3478.461	0.57301
3477.49663	0.57545
3476.53227	0.5781
3475.56791	0.58065
3474.60354	0.58285
3473.63918	0.58481
3472.67481	0.58684
3471.71045	0.58887
3470.74609	0.5907
3469.78172	0.59243
3468.81736	0.59446
3467.85299	0.5968
3466.88863	0.59908
3465.92427	0.60139
3464.9599	0.60394
3463.99554	0.6066
3463.03117	0.60901
3462.06681	0.611
3461.10245	0.61257
3460.13808	0.61447
3459.17372	0.61697
3458.20935	0.61962
3457.24499	0.6219
3456.28062	0.62362
3455.31626	0.6251
3454.3519	0.62675
3453.38753	0.62865
3452.42317	0.63064
3451.4588	0.63249
3450.49444	0.63406
3449.53008	0.63567
3448.56571	0.63795
3447.60135	0.6401
3446.63698	0.6411
3445.67262	0.64193
3444.70826	0.64325
3443.74389	0.64488
3442.77953	0.64647
3441.81516	0.64758
3440.8508	0.64848
3439.88644	0.64941
3438.92207	0.65006
3437.95771	0.65056
3436.99334	0.6515
3436.02898	0.6527
3435.06462	0.65378
3434.10025	0.65495
3433.13589	0.65617
3432.17152	0.65704
3431.20716	0.65756
3430.2428	0.65815
3429.27843	0.65892
3428.31407	0.65982
3427.3497	0.66076
3426.38534	0.66164
3425.42098	0.66233
3424.45661	0.66302
3423.49225	0.66383
3422.52788	0.66443
3421.56352	0.66458
3420.59916	0.66424
3419.63479	0.66398
3418.67043	0.66415
3417.70606	0.66448
3416.7417	0.66457
3415.77734	0.66431
3414.81297	0.66385
3413.84861	0.66331
3412.88424	0.6629
3411.91988	0.66282
3410.95552	0.66278
3409.99115	0.66248
3409.02679	0.66236
3408.06242	0.66275
3407.09806	0.66301
3406.1337	0.66282
3405.16933	0.6625
3404.20497	0.66206
3403.2406	0.66127
3402.27624	0.66035
3401.31188	0.65969
3400.34751	0.6593
3399.38315	0.6594
3398.41878	0.65996
3397.45442	0.66021
3396.49006	0.65959
3395.52569	0.65879
3394.56133	0.65846
3393.59696	0.65823
3392.6326	0.65745
3391.66824	0.65645
3390.70387	0.65609
3389.73951	0.65609
3388.77514	0.6559
3387.81078	0.65553
3386.84642	0.65506
3385.88205	0.65433
3384.91769	0.65336
3383.95332	0.65248
3382.98896	0.65165
3382.0246	0.65052
3381.06023	0.64923
3380.09587	0.64825
3379.1315	0.64739
3378.16714	0.64598
3377.20278	0.64421
3376.23841	0.64286
3375.27405	0.64182
3374.30968	0.64072
3373.34532	0.63931
3372.38096	0.63753
3371.41659	0.63555
3370.45223	0.63383
3369.48786	0.63236
3368.5235	0.63077
3367.55914	0.62907
3366.59477	0.62754
3365.63041	0.62614
3364.66604	0.6247
3363.70168	0.62325
3362.73732	0.62161
3361.77295	0.61961
3360.80859	0.61748
3359.84422	0.61566
3358.87986	0.61416
3357.9155	0.61277
3356.95113	0.61116
3355.98677	0.60915
3355.0224	0.60718
3354.05804	0.60557
3353.09368	0.60386
3352.12931	0.6018
3351.16495	0.59977
3350.20058	0.59812
3349.23622	0.59687
3348.27186	0.5956
3347.30749	0.59426
3346.34313	0.59292
3345.37876	0.59142
3344.4144	0.58955
3343.45004	0.58757
3342.48567	0.58601
3341.52131	0.58475
3340.55694	0.58329
3339.59258	0.58136
3338.62822	0.57944
3337.66385	0.57782
3336.69949	0.57657
3335.73512	0.57543
3334.77076	0.57412
3333.8064	0.57234
3332.84203	0.5705
3331.87767	0.56897
3330.9133	0.56742
3329.94894	0.5656
3328.98458	0.5639
3328.02021	0.5624
3327.05585	0.56078
3326.09148	0.55914
3325.12712	0.55761
3324.16276	0.55611
3323.19839	0.55462
3322.23403	0.55326
3321.26966	0.55195
3320.3053	0.55051
3319.34094	0.54897
3318.37657	0.54739
3317.41221	0.54566
3316.44784	0.54401
3315.48348	0.54262
3314.51911	0.54129
3313.55475	0.5398
3312.59039	0.53836
3311.62602	0.53706
3310.66166	0.53591
3309.69729	0.53486
3308.73293	0.53356
3307.76857	0.53206
3306.8042	0.53065
3305.83984	0.52935
3304.87547	0.52808
3303.91111	0.52683
3302.94675	0.52558
3301.98238	0.52424
3301.01802	0.52287
3300.05365	0.52165
3299.08929	0.52039
3298.12493	0.51895
3297.16056	0.51736
3296.1962	0.51582
3295.23183	0.51446
3294.26747	0.51327
3293.30311	0.51218
3292.33874	0.51107
3291.37438	0.50981
3290.41001	0.50855
3289.44565	0.50745
3288.48129	0.50633
3287.51692	0.50508
3286.55256	0.50382
3285.58819	0.50271
3284.62383	0.50178
3283.65947	0.50085
3282.6951	0.49962
3281.73074	0.49833
3280.76637	0.49727
3279.80201	0.49641
3278.83765	0.49552
3277.87328	0.49464
3276.90892	0.49371
3275.94455	0.49253
3274.98019	0.49148
3274.01583	0.49062
3273.05146	0.48973
3272.0871	0.48875
3271.12273	0.48783
3270.15837	0.48702
3269.19401	0.48643
3268.22964	0.48589
3267.26528	0.48533
3266.30091	0.48485
3265.33655	0.48443
3264.37219	0.48387
3263.40782	0.48317
3262.44346	0.48265
3261.47909	0.48236
3260.51473	0.482
3259.55037	0.48153
3258.586	0.48109
3257.62164	0.48078
3256.65727	0.4805
3255.69291	0.48035
3254.72855	0.48028
3253.76418	0.47997
3252.79982	0.47975
3251.83545	0.47978
3250.87109	0.47977
3249.90673	0.4796
3248.94236	0.47952
3247.978	0.47958
3247.01363	0.47971
3246.04927	0.47968
3245.08491	0.4791
3244.12054	0.47815
3243.15618	0.47736
3242.19181	0.47671
3241.22745	0.47576
3240.26309	0.47439
3239.29872	0.47269
3238.33436	0.47086
3237.36999	0.46882
3236.40563	0.46645
3235.44127	0.46373
3234.4769	0.46097
3233.51254	0.4583
3232.54817	0.4557
3231.58381	0.45306
3230.61945	0.45033
3229.65508	0.44755
3228.69072	0.44487
3227.72635	0.44212
3226.76199	0.43899
3225.79763	0.43588
3224.83326	0.43313
3223.8689	0.43058
3222.90453	0.42802
3221.94017	0.42538
3220.97581	0.42271
3220.01144	0.42001
3219.04708	0.41739
3218.08271	0.41508
3217.11835	0.41288
3216.15399	0.41062
3215.18962	0.40839
3214.22526	0.40625
3213.26089	0.40425
3212.29653	0.40242
3211.33217	0.40068
3210.3678	0.39902
3209.40344	0.39723
3208.43907	0.39534
3207.47471	0.39347
3206.51035	0.39166
3205.54598	0.38991
3204.58162	0.38813
3203.61725	0.38609
3202.65289	0.38381
3201.68853	0.38145
3200.72416	0.37921
3199.7598	0.3771
3198.79543	0.37497
3197.83107	0.37247
3196.86671	0.36953
3195.90234	0.36644
3194.93798	0.36353
3193.97361	0.3608
3193.00925	0.35808
3192.04489	0.35523
3191.08052	0.35234
3190.11616	0.34947
3189.15179	0.34658
3188.18743	0.34369
3187.22307	0.34084
3186.2587	0.33808
3185.29434	0.33525
3184.32997	0.33243
3183.36561	0.32967
3182.40125	0.32686
3181.43688	0.32405
3180.47252	0.3215
3179.50815	0.31918
3178.54379	0.31665
3177.57943	0.31358
3176.61506	0.31057
3175.6507	0.30799
3174.68633	0.30567
3173.72197	0.30333
3172.7576	0.30085
3171.79324	0.29836
3170.82888	0.29604
3169.86451	0.29385
3168.90015	0.29145
3167.93578	0.28885
3166.97142	0.28645
3166.00706	0.28431
3165.04269	0.28231
3164.07833	0.28017
3163.11396	0.27777
3162.1496	0.27534
3161.18524	0.27314
3160.22087	0.27111
3159.25651	0.26915
3158.29214	0.26704
3157.32778	0.26496
3156.36342	0.26304
3155.39905	0.26128
3154.43469	0.25959
3153.47032	0.25788
3152.50596	0.25624
3151.5416	0.25476
3150.57723	0.25352
3149.61287	0.25234
3148.6485	0.2512
3147.68414	0.25019
3146.71978	0.24956
3145.75541	0.24923
3144.79105	0.24908
3143.82668	0.24906
3142.86232	0.24894
3141.89796	0.24845
3140.93359	0.24738
3139.96923	0.24571
3139.00486	0.24345
3138.0405	0.24079
3137.07614	0.23806
3136.11177	0.23539
3135.14741	0.23291
3134.18304	0.23066
3133.21868	0.22845
3132.25432	0.22625
3131.28995	0.22439
3130.32559	0.22277
3129.36122	0.22112
3128.39686	0.21939
3127.4325	0.21772
3126.46813	0.21608
3125.50377	0.21444
3124.5394	0.21291
3123.57504	0.21146
3122.61068	0.20976
3121.64631	0.20793
3120.68195	0.20632
3119.71758	0.2047
3118.75322	0.20283
3117.78886	0.20115
3116.82449	0.1999
3115.86013	0.19848
3114.89576	0.19681
3113.9314	0.19514
3112.96704	0.19364
3112.00267	0.19221
3111.03831	0.19077
3110.07394	0.1892
3109.10958	0.18768
3108.14522	0.18636
3107.18085	0.18531
3106.21649	0.18419
3105.25212	0.18296
3104.28776	0.18163
3103.3234	0.18035
3102.35903	0.17924
3101.39467	0.17812
3100.4303	0.17689
3099.46594	0.17567
3098.50158	0.17471
3097.53721	0.17392
3096.57285	0.173
3095.60848	0.17191
3094.64412	0.17105
3093.67976	0.17046
3092.71539	0.16988
3091.75103	0.16907
3090.78666	0.1682
3089.8223	0.16742
3088.85794	0.16681
3087.89357	0.16615
3086.92921	0.16528
3085.96484	0.16436
3085.00048	0.16355
3084.03612	0.16302
3083.07175	0.16258
3082.10739	0.16199
3081.14302	0.16138
3080.17866	0.16088
3079.2143	0.16057
3078.24993	0.16038
3077.28557	0.16012
3076.3212	0.15996
3075.35684	0.16004
3074.39248	0.16042
3073.42811	0.16096
3072.46375	0.16153
3071.49938	0.162
3070.53502	0.16248
3069.57066	0.16304
3068.60629	0.16373
3067.64193	0.16437
3066.67756	0.16485
3065.7132	0.16532
3064.74884	0.16573
3063.78447	0.16589
3062.82011	0.16592
3061.85574	0.16579
3060.89138	0.16532
3059.92702	0.16462
3058.96265	0.16376
3057.99829	0.16266
3057.03392	0.16128
3056.06956	0.15951
3055.1052	0.15769
3054.14083	0.15592
3053.17647	0.15401
3052.2121	0.15172
3051.24774	0.1495
3050.28338	0.14741
3049.31901	0.14524
3048.35465	0.14301
3047.39028	0.14089
3046.42592	0.13883
3045.46156	0.1368
3044.49719	0.13484
3043.53283	0.13289
3042.56846	0.13095
3041.6041	0.12917
3040.63974	0.12769
3039.67537	0.12635
3038.71101	0.12498
3037.74664	0.12357
3036.78228	0.12224
3035.81792	0.12104
3034.85355	0.11984
3033.88919	0.11861
3032.92482	0.11764
3031.96046	0.11686
3030.99609	0.11588
3030.03173	0.1148
3029.06737	0.11376
3028.103	0.11295
3027.13864	0.11236
3026.17427	0.11178
3025.20991	0.11097
3024.24555	0.11019
3023.28118	0.10963
3022.31682	0.10922
3021.35245	0.10888
3020.38809	0.10852
3019.42373	0.10815
3018.45936	0.10788
3017.495	0.10762
3016.53063	0.10745
3015.56627	0.10741
3014.60191	0.10752
3013.63754	0.10779
3012.67318	0.1081
3011.70881	0.10841
3010.74445	0.10891
3009.78009	0.10957
3008.81572	0.11044
3007.85136	0.11154
3006.88699	0.11285
3005.92263	0.11428
3004.95827	0.11569
3003.9939	0.11714
3003.02954	0.1187
3002.06517	0.12037
3001.10081	0.12207
3000.13645	0.12393
2999.17208	0.12607
2998.20772	0.12864
2997.24335	0.13158
2996.27899	0.13487
2995.31463	0.13849
2994.35026	0.14231
2993.3859	0.14628
2992.42153	0.15051
2991.45717	0.15485
2990.49281	0.1592
2989.52844	0.16356
2988.56408	0.1678
2987.59971	0.17172
2986.63535	0.17523
2985.67099	0.17842
2984.70662	0.18157
2983.74226	0.18489
2982.77789	0.18831
2981.81353	0.19181
2980.84917	0.19543
2979.8848	0.19925
2978.92044	0.20333
2977.95607	0.20742
2976.99171	0.21115
2976.02735	0.21444
2975.06298	0.21742
2974.09862	0.22014
2973.13425	0.22242
2972.16989	0.22405
2971.20553	0.22508
2970.24116	0.22579
2969.2768	0.22618
2968.31243	0.22598
2967.34807	0.2252
2966.38371	0.224
2965.41934	0.22245
2964.45498	0.22064
2963.49061	0.21877
2962.52625	0.21685
2961.56189	0.2151
2960.59752	0.21381
2959.63316	0.213
2958.66879	0.21257
2957.70443	0.21245
2956.74007	0.21284
2955.7757	0.21398
2954.81134	0.21606
2953.84697	0.21893
2952.88261	0.22246
2951.91825	0.22669
2950.95388	0.23173
2949.98952	0.23763
2949.02515	0.24415
2948.06079	0.25097
2947.09643	0.25804
2946.13206	0.26522
2945.1677	0.27221
2944.20333	0.27841
2943.23897	0.28344
2942.27461	0.2874
2941.31024	0.29047
2940.34588	0.29278
2939.38151	0.29451
2938.41715	0.29572
2937.45279	0.29661
2936.48842	0.29735
2935.52406	0.29787
2934.55969	0.29811
2933.59533	0.29797
2932.63097	0.29747
2931.6666	0.29678
2930.70224	0.29597
2929.73787	0.29483
2928.77351	0.29323
2927.80915	0.2913
2926.84478	0.28914
2925.88042	0.28681
2924.91605	0.28413
2923.95169	0.2811
2922.98733	0.27789
2922.02296	0.27461
2921.0586	0.27129
2920.09423	0.26796
2919.12987	0.26467
2918.16551	0.26141
2917.20114	0.25835
2916.23678	0.25548
2915.27241	0.25272
2914.30805	0.25006
2913.34369	0.24738
2912.37932	0.24488
2911.41496	0.24265
2910.45059	0.24047
2909.48623	0.23819
2908.52187	0.23599
2907.5575	0.23401
2906.59314	0.23215
2905.62877	0.23023
2904.66441	0.22817
2903.70005	0.22599
2902.73568	0.22388
2901.77132	0.22178
2900.80695	0.21956
2899.84259	0.21702
2898.87823	0.21444
2897.91386	0.21207
2896.9495	0.20996
2895.98513	0.2078
2895.02077	0.20555
2894.05641	0.20324
2893.09204	0.20116
2892.12768	0.19943
2891.16331	0.19793
2890.19895	0.19631
2889.23458	0.1946
2888.27022	0.1931
2887.30586	0.19196
2886.34149	0.19096
2885.37713	0.18987
2884.41276	0.1887
2883.4484	0.1877
2882.48404	0.1869
2881.51967	0.18599
2880.55531	0.18477
2879.59094	0.18342
2878.62658	0.18212
2877.66222	0.18093
2876.69785	0.17951
2875.73349	0.1776
2874.76912	0.17531
2873.80476	0.17289
2872.8404	0.17037
2871.87603	0.16757
2870.91167	0.16436
2869.9473	0.16097
2868.98294	0.15762
2868.01858	0.1544
2867.05421	0.15109
2866.08985	0.14763
2865.12548	0.1442
2864.16112	0.14106
2863.19676	0.13816
2862.23239	0.13538
2861.26803	0.1326
2860.30366	0.12984
2859.3393	0.12721
2858.37494	0.12477
2857.41057	0.12226
2856.44621	0.11954
2855.48184	0.11664
2854.51748	0.11385
2853.55312	0.11134
2852.58875	0.10884
2851.62439	0.10622
2850.66002	0.10357
2849.69566	0.10107
2848.7313	0.09882
2847.76693	0.09657
2846.80257	0.09419
2845.8382	0.09191
2844.87384	0.0899
2843.90948	0.08823
2842.94511	0.08665
2841.98075	0.08503
2841.01638	0.08344
2840.05202	0.08213
2839.08766	0.08102
2838.12329	0.07993
2837.15893	0.07876
2836.19456	0.07756
2835.2302	0.07658
2834.26584	0.07589
2833.30147	0.07525
2832.33711	0.07447
2831.37274	0.07366
2830.40838	0.073
2829.44402	0.07247
2828.47965	0.07185
2827.51529	0.0711
2826.55092	0.07039
2825.58656	0.0699
2824.6222	0.06957
2823.65783	0.06912
2822.69347	0.06845
2821.7291	0.06776
2820.76474	0.06723
2819.80038	0.06684
2818.83601	0.06644
2817.87165	0.06597
2816.90728	0.0655
2815.94292	0.06519
2814.97856	0.06508
2814.01419	0.06497
2813.04983	0.06461
2812.08546	0.06402
2811.1211	0.06338
2810.15674	0.06271
2809.19237	0.06182
2808.22801	0.06065
2807.26364	0.05945
2806.29928	0.05847
2805.33492	0.05767
2804.37055	0.05687
2803.40619	0.05596
2802.44182	0.05513
2801.47746	0.05446
2800.5131	0.05393
2799.54873	0.05343
2798.58437	0.05282
2797.62	0.05209
2796.65564	0.05142
2795.69128	0.05087
2794.72691	0.05033
2793.76255	0.04972
2792.79818	0.04909
2791.83382	0.04858
2790.86946	0.04821
2789.90509	0.04785
2788.94073	0.04729
2787.97636	0.0466
2787.012	0.04607
2786.04764	0.04574
2785.08327	0.04541
2784.11891	0.04505
2783.15454	0.04459
2782.19018	0.04423
2781.22582	0.04395
2780.26145	0.04368
2779.29709	0.04314
2778.33272	0.04259
2777.36836	0.04225
2776.404	0.04211
2775.43963	0.042
2774.47527	0.04169
2773.5109	0.04127
2772.54654	0.04088
2771.58218	0.04055
2770.61781	0.0403
2769.65345	0.04004
2768.68908	0.03974
2767.72472	0.03951
2766.76036	0.03938
2765.79599	0.03918
2764.83163	0.0389
2763.86726	0.0386
2762.9029	0.03835
2761.93854	0.03815
2760.97417	0.03801
2760.00981	0.03787
2759.04544	0.0377
2758.08108	0.03762
2757.11672	0.03762
2756.15235	0.0375
2755.18799	0.0372
2754.22362	0.03689
2753.25926	0.0367
2752.2949	0.03655
2751.33053	0.03649
2750.36617	0.03639
2749.4018	0.03616
2748.43744	0.03599
2747.47307	0.03588
2746.50871	0.03566
2745.54435	0.03532
2744.57998	0.0351
2743.61562	0.03496
2742.65125	0.03484
2741.68689	0.03462
2740.72253	0.03435
2739.75816	0.03414
2738.7938	0.03412
2737.82943	0.03412
2736.86507	0.03406
2735.90071	0.0339
2734.93634	0.03373
2733.97198	0.03354
2733.00761	0.03337
2732.04325	0.03325
2731.07889	0.03312
2730.11452	0.03295
2729.15016	0.03281
2728.18579	0.03275
2727.22143	0.03273
2726.25707	0.0327
2725.2927	0.03258
2724.32834	0.03242
2723.36397	0.03219
2722.39961	0.03202
2721.43525	0.03189
2720.47088	0.03175
2719.50652	0.0316
2718.54215	0.03146
2717.57779	0.03124
2716.61343	0.03098
2715.64906	0.03074
2714.6847	0.03049
2713.72033	0.03023
2712.75597	0.02992
2711.79161	0.02962
2710.82724	0.02937
2709.86288	0.02909
2708.89851	0.02865
2707.93415	0.02815
2706.96979	0.02775
2706.00542	0.02759
2705.04106	0.02745
2704.07669	0.02706
2703.11233	0.02658
2702.14797	0.02624
2701.1836	0.02607
2700.21924	0.02588
2699.25487	0.02557
2698.29051	0.02527
2697.32615	0.02499
2696.36178	0.02484
2695.39742	0.0247
2694.43305	0.02444
2693.46869	0.02412
2692.50433	0.02396
2691.53996	0.02381
2690.5756	0.02362
2689.61123	0.02334
2688.64687	0.02307
2687.68251	0.02284
2686.71814	0.02267
2685.75378	0.02253
2684.78941	0.02236
2683.82505	0.02217
2682.86069	0.02203
2681.89632	0.02199
2680.93196	0.02192
2679.96759	0.02168
2679.00323	0.02141
2678.03887	0.02125
2677.0745	0.02115
2676.11014	0.02106
2675.14577	0.02079
2674.18141	0.02048
2673.21705	0.02029
2672.25268	0.02024
2671.28832	0.02021
2670.32395	0.02004
2669.35959	0.01971
2668.39523	0.01943
2667.43086	0.01926
2666.4665	0.01914
2665.50213	0.0189
2664.53777	0.01856
2663.57341	0.01834
2662.60904	0.01825
2661.64468	0.01811
2660.68031	0.01784
2659.71595	0.01753
2658.75159	0.01734
2657.78722	0.01727
2656.82286	0.01717
2655.85849	0.01686
2654.89413	0.01646
2653.92977	0.01619
2652.9654	0.01608
2652.00104	0.01593
2651.03667	0.0156
2650.07231	0.01526
2649.10795	0.01509
2648.14358	0.01501
2647.17922	0.01479
2646.21485	0.01442
2645.25049	0.01406
2644.28613	0.01389
2643.32176	0.01382
2642.3574	0.01365
2641.39303	0.01339
2640.42867	0.01305
2639.46431	0.01286
2638.49994	0.01279
2637.53558	0.01257
2636.57121	0.01219
2635.60685	0.01183
2634.64249	0.01166
2633.67812	0.01161
2632.71376	0.01154
2631.74939	0.0113
2630.78503	0.01094
2629.82067	0.01069
2628.8563	0.01058
2627.89194	0.0104
2626.92757	0.01012
2625.96321	0.00985
2624.99885	0.00973
2624.03448	0.00969
2623.07012	0.00968
2622.10575	0.00951
2621.14139	0.00919
2620.17703	0.009
2619.21266	0.00895
2618.2483	0.00888
2617.28393	0.00872
2616.31957	0.00861
2615.35521	0.00856
2614.39084	0.00852
2613.42648	0.00851
2612.46211	0.00838
2611.49775	0.00824
2610.53339	0.00822
2609.56902	0.00831
2608.60466	0.00831
2607.64029	0.00826
2606.67593	0.00815
2605.71156	0.00811
2604.7472	0.00813
2603.78284	0.00814
2602.81847	0.00804
2601.85411	0.00793
2600.88974	0.00803
2599.92538	0.00816
2598.96102	0.00816
2597.99665	0.00806
2597.03229	0.00807
2596.06792	0.00826
2595.10356	0.00849
2594.1392	0.00846
2593.17483	0.00828
2592.21047	0.00814
2591.2461	0.00815
2590.28174	0.00818
2589.31738	0.00815
2588.35301	0.0081
2587.38865	0.00805
2586.42428	0.00806
2585.45992	0.00806
2584.49556	0.00798
2583.53119	0.00782
2582.56683	0.00769
2581.60246	0.00769
2580.6381	0.00775
2579.67374	0.00767
2578.70937	0.00748
2577.74501	0.00738
2576.78064	0.00742
2575.81628	0.00744
2574.85192	0.00733
2573.88755	0.00711
2572.92319	0.00695
2571.95882	0.00699
2570.99446	0.00702
2570.0301	0.00697
2569.06573	0.00685
2568.10137	0.00674
2567.137	0.00674
2566.17264	0.00682
2565.20828	0.0068
2564.24391	0.00661
2563.27955	0.00648
2562.31518	0.00648
2561.35082	0.00655
2560.38646	0.00649
2559.42209	0.00636
2558.45773	0.00636
2557.49336	0.00647
2556.529	0.00656
2555.56464	0.00648
2554.60027	0.00638
2553.63591	0.00636
2552.67154	0.00642
2551.70718	0.00651
2550.74282	0.00652
2549.77845	0.00641
2548.81409	0.00632
2547.84972	0.00642
2546.88536	0.00645
2545.921	0.00635
2544.95663	0.00623
2543.99227	0.00627
2543.0279	0.00636
2542.06354	0.00637
2541.09918	0.00628
2540.13481	0.00618
2539.17045	0.00618
2538.20608	0.00629
2537.24172	0.00636
2536.27736	0.0063
2535.31299	0.00625
2534.34863	0.00631
2533.38426	0.0064
2532.4199	0.00644
2531.45554	0.00636
2530.49117	0.00628
2529.52681	0.00625
2528.56244	0.00635
2527.59808	0.00641
2526.63372	0.00636
2525.66935	0.00625
2524.70499	0.00626
2523.74062	0.00634
2522.77626	0.00635
2521.8119	0.00627
2520.84753	0.00619
2519.88317	0.00623
2518.9188	0.00627
2517.95444	0.00631
2516.99008	0.00623
2516.02571	0.00622
2515.06135	0.00629
2514.09698	0.00639
2513.13262	0.00635
2512.16826	0.00626
2511.20389	0.00629
2510.23953	0.00641
2509.27516	0.00652
2508.3108	0.00653
2507.34644	0.00642
2506.38207	0.00635
2505.41771	0.00635
2504.45334	0.00641
2503.48898	0.00642
2502.52462	0.00637
2501.56025	0.00634
2500.59589	0.0064
2499.63152	0.00652
2498.66716	0.0066
2497.7028	0.0066
2496.73843	0.00654
2495.77407	0.00654
2494.8097	0.00657
2493.84534	0.00652
2492.88098	0.00639
2491.91661	0.0063
2490.95225	0.0064
2489.98788	0.00657
2489.02352	0.00658
2488.05916	0.00647
2487.09479	0.00632
2486.13043	0.00634
2485.16606	0.00636
2484.2017	0.00629
2483.23734	0.00614
2482.27297	0.00615
2481.30861	0.0063
2480.34424	0.00642
2479.37988	0.00637
2478.41552	0.00621
2477.45115	0.00612
2476.48679	0.00622
2475.52242	0.00634
2474.55806	0.0063
2473.5937	0.00612
2472.62933	0.00598
2471.66497	0.00605
2470.7006	0.00624
2469.73624	0.0063
2468.77187	0.00618
2467.80751	0.00597
2466.84315	0.00602
2465.87878	0.00615
2464.91442	0.0062
2463.95005	0.00605
2462.98569	0.00594
2462.02133	0.00606
2461.05696	0.00618
2460.0926	0.00613
2459.12823	0.00589
2458.16387	0.00573
2457.19951	0.00585
2456.23514	0.00604
2455.27078	0.00605
2454.30641	0.00579
2453.34205	0.00569
2452.37769	0.00586
2451.41332	0.00614
2450.44896	0.00615
2449.48459	0.00593
2448.52023	0.00586
2447.55587	0.00599
2446.5915	0.0062
2445.62714	0.0062
2444.66277	0.00598
2443.69841	0.00588
2442.73405	0.00599
2441.76968	0.00611
2440.80532	0.00604
2439.84095	0.00581
2438.87659	0.00573
2437.91223	0.00585
2436.94786	0.00603
2435.9835	0.00597
2435.01913	0.0057
2434.05477	0.00554
2433.09041	0.00565
2432.12604	0.00585
2431.16168	0.00586
2430.19731	0.00564
2429.23295	0.00556
2428.26859	0.00579
2427.30422	0.00604
2426.33986	0.00599
2425.37549	0.00572
2424.41113	0.0055
2423.44677	0.00556
2422.4824	0.00579
2421.51804	0.00585
2420.55367	0.00563
2419.58931	0.00551
2418.62495	0.00564
2417.66058	0.00584
2416.69622	0.00576
2415.73185	0.00552
2414.76749	0.0054
2413.80313	0.00556
2412.83876	0.00578
2411.8744	0.00581
2410.91003	0.00565
2409.94567	0.0056
2408.98131	0.0058
2408.01694	0.00603
2407.05258	0.00603
2406.08821	0.0059
2405.12385	0.00579
2404.15949	0.00591
2403.19512	0.00614
2402.23076	0.00617
2401.26639	0.00604
2400.30203	0.00601
2399.33767	0.00624
2398.3733	0.00647
2397.40894	0.00647
2396.44457	0.00626
2395.48021	0.00615
2394.51585	0.00638
2393.55148	0.00671
2392.58712	0.00677
2391.62275	0.00653
2390.65839	0.00629
2389.69403	0.00628
2388.72966	0.00626
2387.7653	0.00588
2386.80093	0.00497
2385.83657	0.00366
2384.87221	0.00205
2383.90784	0
2382.94348	5.31468E-5
2381.97911	1.16923E-4
2381.01475	1.80699E-4
2380.05039	2.44475E-4
2379.08602	3.08252E-4
2378.12166	3.61398E-4
2377.15729	4.25175E-4
2376.19293	4.88951E-4
2375.22857	5.52727E-4
2374.2642	6.05874E-4
2373.29984	6.6965E-4
2372.33547	7.33426E-4
2371.37111	7.97202E-4
2370.40675	8.50349E-4
2369.44238	9.14125E-4
2368.47802	9.77902E-4
2367.51365	0.00104
2366.54929	0.00111
2365.58493	0.00116
2364.62056	0.00122
2363.6562	0.00129
2362.69183	0.00135
2361.72747	0.0014
2360.76311	0.00147
2359.79874	0.00153
2358.83438	0.00159
2357.87001	0.00165
2356.90565	0.00171
2355.94129	0.00178
2354.97692	0.00184
2354.01256	0.0019
2353.04819	0.00196
2352.08383	0.00202
2351.11947	0.00208
2350.1551	0.00215
2349.19074	0.0022
2348.22637	0.00226
2347.26201	0.00233
2346.29765	0.00239
2345.33328	0.00244
2344.36892	0.00251
2343.40455	0.00257
2342.44019	0.00264
2341.47583	0.00269
2340.51146	0.00275
2339.5471	0.00282
2338.58273	0.00288
2337.61837	0.00294
2336.65401	0.003
2335.68964	0.00306
2334.72528	0.00313
2333.76091	0.00319
2332.79655	0.00325
2331.83219	0.00331
2330.86782	0.00337
2329.90346	0.00343
2328.93909	0.00349
2327.97473	0.00355
2327.01036	0.00361
2326.046	0.00368
2325.08164	0.00374
2324.11727	0.0038
2323.15291	0.0038
2322.18854	0.00376
2321.22418	0.00373
2320.25982	0.00369
2319.29545	0.00366
2318.33109	0.00362
2317.36672	0.00358
2316.40236	0.00355
2315.438	0.00351
2314.47363	0.00348
2313.50927	0.00344
2312.5449	0.00341
2311.58054	0.00337
2310.61618	0.00334
2309.65181	0.0033
2308.68745	0.00326
2307.72308	0.00323
2306.75872	0.00319
2305.79436	0.00316
2304.82999	0.00313
2303.86563	0.00308
2302.90126	0.00305
2301.9369	0.00302
2300.97254	0.00298
2300.00817	0.00294
2299.04381	0.00291
2298.07944	0.00287
2297.11508	0.00284
2296.15072	0.00281
2295.18635	0.00276
2294.22199	0.00273
2293.25762	0.0027
2292.29326	0.00266
2291.3289	0.00324
2290.36453	0.00404
2289.40017	0.00461
2288.4358	0.00522
2287.47144	0.00598
2286.50708	0.00679
2285.54271	0.00745
2284.57835	0.00794
2283.61398	0.0083
2282.64962	0.00848
2281.68526	0.00842
2280.72089	0.00816
2279.75653	0.00782
2278.79216	0.00753
2277.8278	0.00732
2276.86344	0.00723
2275.89907	0.00717
2274.93471	0.00705
2273.97034	0.00696
2273.00598	0.00697
2272.04162	0.00713
2271.07725	0.00726
2270.11289	0.00723
2269.14852	0.00711
2268.18416	0.00715
2267.2198	0.0074
2266.25543	0.00763
2265.29107	0.00775
2264.3267	0.00779
2263.36234	0.00787
2262.39798	0.00813
2261.43361	0.00843
2260.46925	0.00864
2259.50488	0.00878
2258.54052	0.009
2257.57616	0.00927
2256.61179	0.00951
2255.64743	0.00966
2254.68306	0.0097
2253.7187	0.00982
2252.75434	0.01002
2251.78997	0.01027
2250.82561	0.01041
2249.86124	0.01042
2248.89688	0.01052
2247.93252	0.01074
2246.96815	0.01095
2246.00379	0.01111
2245.03942	0.01119
2244.07506	0.01126
2243.1107	0.01148
2242.14633	0.01175
2241.18197	0.01189
2240.2176	0.01197
2239.25324	0.01203
2238.28888	0.01215
2237.32451	0.01234
2236.36015	0.0125
2235.39578	0.01251
2234.43142	0.01251
2233.46706	0.01264
2232.50269	0.01285
2231.53833	0.01296
2230.57396	0.01289
2229.6096	0.01288
2228.64524	0.01301
2227.68087	0.01322
2226.71651	0.01336
2225.75214	0.01335
2224.78778	0.01337
2223.82342	0.01355
2222.85905	0.0138
2221.89469	0.01389
2220.93032	0.01384
2219.96596	0.01377
2219.0016	0.01382
2218.03723	0.01401
2217.07287	0.01412
2216.1085	0.01402
2215.14414	0.01387
2214.17978	0.01389
2213.21541	0.01414
2212.25105	0.01425
2211.28668	0.01417
2210.32232	0.01402
2209.35796	0.01407
2208.39359	0.01431
2207.42923	0.01455
2206.46486	0.01446
2205.5005	0.01429
2204.53614	0.01439
2203.57177	0.01474
2202.60741	0.01499
2201.64304	0.01498
2200.67868	0.01488
2199.71432	0.01496
2198.74995	0.0152
2197.78559	0.01538
2196.82122	0.01538
2195.85686	0.01529
2194.8925	0.01542
2193.92813	0.01571
2192.96377	0.01595
2191.9994	0.01592
2191.03504	0.01581
2190.07068	0.01585
2189.10631	0.01615
2188.14195	0.01641
2187.17758	0.0164
2186.21322	0.01628
2185.24885	0.01637
2184.28449	0.01669
2183.32013	0.01693
2182.35576	0.0169
2181.3914	0.01672
2180.42703	0.01677
2179.46267	0.01706
2178.49831	0.01734
2177.53394	0.01724
2176.56958	0.01706
2175.60521	0.01717
2174.64085	0.01752
2173.67649	0.01776
2172.71212	0.01768
2171.74776	0.01743
2170.78339	0.01745
2169.81903	0.01781
2168.85467	0.01813
2167.8903	0.01813
2166.92594	0.01795
2165.96157	0.01801
2164.99721	0.01829
2164.03285	0.01854
2163.06848	0.01851
2162.10412	0.01833
2161.13975	0.01835
2160.17539	0.01859
2159.21103	0.01884
2158.24666	0.01876
2157.2823	0.01854
2156.31793	0.01856
2155.35357	0.01886
2154.38921	0.01909
2153.42484	0.01899
2152.46048	0.01877
2151.49611	0.01874
2150.53175	0.01903
2149.56739	0.01932
2148.60302	0.01932
2147.63866	0.01912
2146.67429	0.01911
2145.70993	0.01938
2144.74557	0.01962
2143.7812	0.01953
2142.81684	0.0193
2141.85247	0.01929
2140.88811	0.01956
2139.92375	0.01986
2138.95938	0.01979
2137.99502	0.01956
2137.03065	0.01955
2136.06629	0.01989
2135.10193	0.02011
2134.13756	0.02
2133.1732	0.01969
2132.20883	0.01956
2131.24447	0.01973
2130.28011	0.01986
2129.31574	0.01971
2128.35138	0.01942
2127.38701	0.0193
2126.42265	0.01948
2125.45829	0.01964
2124.49392	0.01956
2123.52956	0.01926
2122.56519	0.01911
2121.60083	0.0193
2120.63647	0.01949
2119.6721	0.01937
2118.70774	0.01916
2117.74337	0.01913
2116.77901	0.01943
2115.81465	0.01967
2114.85028	0.01958
2113.88592	0.01923
2112.92155	0.01912
2111.95719	0.01939
2110.99283	0.01969
2110.02846	0.01965
2109.0641	0.01939
2108.09973	0.01926
2107.13537	0.01945
2106.17101	0.0197
2105.20664	0.01966
2104.24228	0.01946
2103.27791	0.01939
2102.31355	0.01956
2101.34919	0.01979
2100.38482	0.01981
2099.42046	0.01961
2098.45609	0.01952
2097.49173	0.01969
2096.52737	0.01991
2095.563	0.01997
2094.59864	0.01979
2093.63427	0.0197
2092.66991	0.01989
2091.70555	0.02019
2090.74118	0.02031
2089.77682	0.02011
2088.81245	0.01996
2087.84809	0.02017
2086.88373	0.02042
2085.91936	0.02044
2084.955	0.02026
2083.99063	0.02016
2083.02627	0.02027
2082.06191	0.02043
2081.09754	0.02045
2080.13318	0.02033
2079.16881	0.02024
2078.20445	0.02031
2077.24009	0.02047
2076.27572	0.02058
2075.31136	0.02055
2074.34699	0.02045
2073.38263	0.02051
2072.41827	0.02065
2071.4539	0.02071
2070.48954	0.02061
2069.52517	0.02055
2068.56081	0.02064
2067.59645	0.02087
2066.63208	0.02108
2065.66772	0.02112
2064.70335	0.0208
2063.73899	0.02048
2062.77463	0.02054
2061.81026	0.02064
2060.8459	0.02053
2059.88153	0.0204
2058.91717	0.0204
2057.95281	0.02044
2056.98844	0.02043
2056.02408	0.02031
2055.05971	0.02025
2054.09535	0.0203
2053.13099	0.02038
2052.16662	0.02027
2051.20226	0.02012
2050.23789	0.02004
2049.27353	0.02003
2048.30917	0.02008
2047.3448	0.02004
2046.38044	0.01992
2045.41607	0.01983
2044.45171	0.01979
2043.48734	0.01985
2042.52298	0.01997
2041.55862	0.01994
2040.59425	0.01957
2039.62989	0.0193
2038.66552	0.01927
2037.70116	0.01912
2036.7368	0.01889
2035.77243	0.01874
2034.80807	0.01864
2033.8437	0.01859
2032.87934	0.0185
2031.91498	0.01837
2030.95061	0.01826
2029.98625	0.01813
2029.02188	0.01798
2028.05752	0.01784
2027.09316	0.01763
2026.12879	0.01745
2025.16443	0.01734
2024.20006	0.0173
2023.2357	0.01723
2022.27134	0.01712
2021.30697	0.01703
2020.34261	0.01707
2019.37824	0.01723
2018.41388	0.01756
2017.44952	0.01772
2016.48515	0.01726
2015.52079	0.01661
2014.55642	0.01636
2013.59206	0.01637
2012.6277	0.01645
2011.66333	0.01648
2010.69897	0.01645
2009.7346	0.01639
2008.77024	0.01639
2007.80588	0.01635
2006.84151	0.01628
2005.87715	0.01617
2004.91278	0.01607
2003.94842	0.01606
2002.98406	0.01606
2002.01969	0.01603
2001.05533	0.01586
2000.09096	0.0157
1999.1266	0.0156
1998.16224	0.01558
1997.19787	0.01552
1996.23351	0.01539
1995.26914	0.01519
1994.30478	0.0155
1993.34042	0.01639
1992.37605	0.01663
1991.41169	0.01552
1990.44732	0.01473
1989.48296	0.01502
1988.5186	0.01518
1987.55423	0.01482
1986.58987	0.01442
1985.6255	0.01421
1984.66114	0.01406
1983.69678	0.01404
1982.73241	0.01398
1981.76805	0.01373
1980.80368	0.01337
1979.83932	0.01317
1978.87496	0.01325
1977.91059	0.01337
1976.94623	0.0132
1975.98186	0.01289
1975.0175	0.01278
1974.05314	0.01289
1973.08877	0.01288
1972.12441	0.01272
1971.16004	0.01255
1970.19568	0.01257
1969.23132	0.01312
1968.26695	0.01386
1967.30259	0.01372
1966.33822	0.01264
1965.37386	0.01194
1964.4095	0.0119
1963.44513	0.01196
1962.48077	0.01182
1961.5164	0.01149
1960.55204	0.01118
1959.58768	0.01112
1958.62331	0.01112
1957.65895	0.01096
1956.69458	0.01076
1955.73022	0.01076
1954.76586	0.01077
1953.80149	0.01057
1952.83713	0.01026
1951.87276	0.00992
1950.9084	0.00982
1949.94404	0.00995
1948.97967	0.01
1948.01531	0.01
1947.05094	0.01003
1946.08658	0.01003
1945.12222	0.01012
1944.15785	0.01098
1943.19349	0.01172
1942.22912	0.01042
1941.26476	0.00889
1940.3004	0.00883
1939.33603	0.00913
1938.37167	0.00891
1937.4073	0.00858
1936.44294	0.00847
1935.47858	0.0086
1934.51421	0.00877
1933.54985	0.00868
1932.58548	0.00838
1931.62112	0.00827
1930.65676	0.00849
1929.69239	0.00868
1928.72803	0.00848
1927.76366	0.00818
1926.7993	0.00812
1925.83494	0.00849
1924.87057	0.00935
1923.90621	0.01041
1922.94184	0.0101
1921.97748	0.0086
1921.01312	0.00807
1920.04875	0.00893
1919.08439	0.01007
1918.12002	0.0095
1917.15566	0.00774
1916.1913	0.00742
1915.22693	0.00787
1914.26257	0.00775
1913.2982	0.00737
1912.33384	0.00744
1911.36948	0.00828
1910.40511	0.0089
1909.44075	0.0085
1908.47638	0.00782
1907.51202	0.00739
1906.54766	0.00725
1905.58329	0.00739
1904.61893	0.00727
1903.65456	0.00691
1902.6902	0.00679
1901.72583	0.00696
1900.76147	0.00702
1899.79711	0.00688
1898.83274	0.00671
1897.86838	0.00686
1896.90401	0.00757
1895.93965	0.00827
1894.97529	0.00782
1894.01092	0.00682
1893.04656	0.00668
1892.08219	0.00732
1891.11783	0.0086
1890.15347	0.00932
1889.1891	0.0079
1888.22474	0.00651
1887.26037	0.00668
1886.29601	0.00724
1885.33165	0.00725
1884.36728	0.00676
1883.40292	0.00635
1882.43855	0.0064
1881.47419	0.00651
1880.50983	0.00634
1879.54546	0.00604
1878.5811	0.00587
1877.61673	0.00601
1876.65237	0.00614
1875.68801	0.00591
1874.72364	0.00559
1873.75928	0.0055
1872.79491	0.00592
1871.83055	0.00695
1870.86619	0.00861
1869.90182	0.01006
1868.93746	0.00979
1867.97309	0.00832
1867.00873	0.00727
1866.04437	0.00639
1865.08	0.00575
1864.11564	0.00569
1863.15127	0.00605
1862.18691	0.00636
1861.22255	0.00621
1860.25818	0.0059
1859.29382	0.00588
1858.32945	0.00598
1857.36509	0.00593
1856.40073	0.00576
1855.43636	0.00557
1854.472	0.00557
1853.50763	0.00579
1852.54327	0.00604
1851.57891	0.0061
1850.61454	0.00612
1849.65018	0.00679
1848.68581	0.0079
1847.72145	0.00832
1846.75709	0.00857
1845.79272	0.01025
1844.82836	0.01163
1843.86399	0.00957
1842.89963	0.00778
1841.93527	0.00773
1840.9709	0.00766
1840.00654	0.00778
1839.04217	0.00854
1838.07781	0.00947
1837.11345	0.00961
1836.14908	0.00908
1835.18472	0.00918
1834.22035	0.00991
1833.25599	0.01059
1832.29163	0.0116
1831.32726	0.01372
1830.3629	0.01575
1829.39853	0.01452
1828.43417	0.01274
1827.46981	0.01337
1826.50544	0.01549
1825.54108	0.01659
1824.57671	0.01556
1823.61235	0.0153
1822.64799	0.01594
1821.68362	0.01635
1820.71926	0.01677
1819.75489	0.01759
1818.79053	0.01868
1817.82617	0.01954
1816.8618	0.01992
1815.89744	0.02053
1814.93307	0.02175
1813.96871	0.02336
1813.00435	0.02533
1812.03998	0.02758
1811.07562	0.02941
1810.11125	0.0303
1809.14689	0.03172
1808.18253	0.03396
1807.21816	0.03611
1806.2538	0.03847
1805.28943	0.04158
1804.32507	0.04532
1803.36071	0.0497
1802.39634	0.0544
1801.43198	0.05888
1800.46761	0.06351
1799.50325	0.06825
1798.53889	0.07264
1797.57452	0.07818
1796.61016	0.08499
1795.64579	0.09167
1794.68143	0.0979
1793.71707	0.10527
1792.7527	0.11443
1791.78834	0.12278
1790.82397	0.12998
1789.85961	0.13761
1788.89525	0.1465
1787.93088	0.15727
1786.96652	0.16954
1786.00215	0.18379
1785.03779	0.20124
1784.07343	0.22034
1783.10906	0.23954
1782.1447	0.26128
1781.18033	0.28953
1780.21597	0.3244
1779.25161	0.3602
1778.28724	0.39705
1777.32288	0.43579
1776.35851	0.47634
1775.39415	0.51515
1774.42979	0.54071
1773.46542	0.55005
1772.50106	0.53437
1771.53669	0.48847
1770.57233	0.44673
1769.60797	0.41529
1768.6436	0.37824
1767.67924	0.33325
1766.71487	0.30159
1765.75051	0.28102
1764.78615	0.26376
1763.82178	0.25108
1762.85742	0.24206
1761.89305	0.23022
1760.92869	0.21794
1759.96432	0.21182
1758.99996	0.20878
1758.0356	0.20676
1757.07123	0.20401
1756.10687	0.20094
1755.1425	0.20111
1754.17814	0.20524
1753.21378	0.21301
1752.24941	0.22569
1751.28505	0.24598
1750.32068	0.26366
1749.35632	0.26947
1748.39196	0.26376
1747.42759	0.2521
1746.46323	0.24437
1745.49886	0.2429
1744.5345	0.24365
1743.57014	0.23908
1742.60577	0.22943
1741.64141	0.22459
1740.67704	0.2265
1739.71268	0.23379
1738.74832	0.24277
1737.78395	0.25116
1736.81959	0.25834
1735.85522	0.26345
1734.89086	0.26266
1733.9265	0.23858
1732.96213	0.21113
1731.99777	0.19827
1731.0334	0.18727
1730.06904	0.17095
1729.10468	0.15419
1728.14031	0.14335
1727.17595	0.13494
1726.21158	0.12736
1725.24722	0.12171
1724.28286	0.11731
1723.31849	0.1122
1722.35413	0.10713
1721.38976	0.10357
1720.4254	0.10219
1719.46104	0.10314
1718.49667	0.10319
1717.53231	0.09578
1716.56794	0.09056
1715.60358	0.08937
1714.63922	0.08577
1713.67485	0.0807
1712.71049	0.07781
1711.74612	0.07671
1710.78176	0.0761
1709.8174	0.07474
1708.85303	0.07392
1707.88867	0.07497
1706.9243	0.07647
1705.95994	0.07666
1704.99558	0.07604
1704.03121	0.07534
1703.06685	0.07596
1702.10248	0.07889
1701.13812	0.08307
1700.17376	0.08178
1699.20939	0.07936
1698.24503	0.08197
1697.28066	0.08603
1696.3163	0.08831
1695.35194	0.08574
1694.38757	0.0852
1693.42321	0.08698
1692.45884	0.08954
1691.49448	0.09292
1690.53012	0.09693
1689.56575	0.10066
1688.60139	0.10372
1687.63702	0.1068
1686.67266	0.11103
1685.7083	0.11745
1684.74393	0.12659
1683.77957	0.1313
1682.8152	0.1333
1681.85084	0.13901
1680.88648	0.14727
1679.92211	0.15408
1678.95775	0.15537
1677.99338	0.15381
1677.02902	0.15269
1676.06466	0.15171
1675.10029	0.14735
1674.13593	0.14435
1673.17156	0.14593
1672.2072	0.14957
1671.24284	0.1536
1670.27847	0.1578
1669.31411	0.16247
1668.34974	0.16648
1667.38538	0.17123
1666.42102	0.17863
1665.45665	0.18896
1664.49229	0.20181
1663.52792	0.22105
1662.56356	0.25313
1661.5992	0.28813
1660.63483	0.3223
1659.67047	0.36222
1658.7061	0.40492
1657.74174	0.44194
1656.77738	0.46445
1655.81301	0.47119
1654.84865	0.46688
1653.88428	0.44155
1652.91992	0.33863
1651.95556	0.28685
1650.99119	0.27154
1650.02683	0.25918
1649.06246	0.24804
1648.0981	0.23737
1647.13374	0.22509
1646.16937	0.21189
1645.20501	0.20375
1644.24064	0.20171
1643.27628	0.20204
1642.31192	0.20288
1641.34755	0.20382
1640.38319	0.20516
1639.41882	0.2076
1638.45446	0.21166
1637.4901	0.2171
1636.52573	0.22281
1635.56137	0.22804
1634.597	0.23223
1633.63264	0.23799
1632.66828	0.24712
1631.70391	0.26004
1630.73955	0.27709
1629.77518	0.29763
1628.81082	0.32243
1627.84646	0.35261
1626.88209	0.37624
1625.91773	0.38697
1624.95336	0.38881
1623.989	0.37492
1623.02464	0.33605
1622.06027	0.29908
1621.09591	0.27059
1620.13154	0.24394
1619.16718	0.22254
1618.20281	0.2083
1617.23845	0.19213
1616.27409	0.16549
1615.30972	0.15017
1614.34536	0.14242
1613.38099	0.13479
1612.41663	0.12687
1611.45227	0.11997
1610.4879	0.11443
1609.52354	0.1091
1608.55917	0.10417
1607.59481	0.09985
1606.63045	0.09537
1605.66608	0.09143
1604.70172	0.08886
1603.73735	0.08666
1602.77299	0.08379
1601.80863	0.0809
1600.84426	0.0785
1599.8799	0.07683
1598.91553	0.07576
1597.95117	0.0751
1596.98681	0.07477
1596.02244	0.07519
1595.05808	0.07646
1594.09371	0.07824
1593.12935	0.08062
1592.16499	0.08399
1591.20062	0.08792
1590.23626	0.091
1589.27189	0.09152
1588.30753	0.08882
1587.34317	0.08387
1586.3788	0.07849
1585.41444	0.074
1584.45007	0.07086
1583.48571	0.06887
1582.52135	0.06803
1581.55698	0.06851
1580.59262	0.07022
1579.62825	0.07304
1578.66389	0.07714
1577.69953	0.08274
1576.73516	0.08991
1575.7708	0.09642
1574.80643	0.10123
1573.84207	0.10752
1572.87771	0.11589
1571.91334	0.12563
1570.94898	0.13646
1569.98461	0.14984
1569.02025	0.16183
1568.05589	0.16726
1567.09152	0.17138
1566.12716	0.17512
1565.16279	0.17606
1564.19843	0.1733
1563.23407	0.17075
1562.2697	0.17035
1561.30534	0.17188
1560.34097	0.17465
1559.37661	0.17292
1558.41225	0.15254
1557.44788	0.14106
1556.48352	0.13945
1555.51915	0.13964
1554.55479	0.13615
1553.59043	0.12971
1552.62606	0.12804
1551.6617	0.13041
1550.69733	0.13482
1549.73297	0.13828
1548.76861	0.1388
1547.80424	0.13893
1546.83988	0.13951
1545.87551	0.13929
1544.91115	0.13575
1543.94679	0.13179
1542.98242	0.13042
1542.01806	0.12902
1541.05369	0.1283
1540.08933	0.12763
1539.12497	0.11809
1538.1606	0.11211
1537.19624	0.11146
1536.23187	0.11215
1535.26751	0.11361
1534.30315	0.11499
1533.33878	0.11289
1532.37442	0.10935
1531.41005	0.10737
1530.44569	0.10644
1529.48133	0.10696
1528.51696	0.10783
1527.5526	0.10746
1526.58823	0.10676
1525.62387	0.1052
1524.65951	0.10286
1523.69514	0.10299
1522.73078	0.10546
1521.76641	0.10601
1520.80205	0.09866
1519.83769	0.0932
1518.87332	0.09356
1517.90896	0.09592
1516.94459	0.09453
1515.98023	0.08944
1515.01587	0.08647
1514.0515	0.08565
1513.08714	0.08585
1512.12277	0.08517
1511.15841	0.08467
1510.19405	0.0863
1509.22968	0.08942
1508.26532	0.09332
1507.30095	0.09588
1506.33659	0.08727
1505.37223	0.07967
1504.40786	0.0788
1503.4435	0.07976
1502.47913	0.08076
1501.51477	0.08128
1500.55041	0.08244
1499.58604	0.08459
1498.62168	0.08623
1497.65731	0.08755
1496.69295	0.08895
1495.72859	0.0884
1494.76422	0.08844
1493.79986	0.09019
1492.83549	0.09276
1491.87113	0.09666
1490.90677	0.10233
1489.9424	0.10754
1488.97804	0.10993
1488.01367	0.11282
1487.04931	0.1174
1486.08495	0.12283
1485.12058	0.12925
1484.15622	0.13674
1483.19185	0.1443
1482.22749	0.15104
1481.26312	0.15559
1480.29876	0.15716
1479.3344	0.15699
1478.37003	0.15678
1477.40567	0.1575
1476.4413	0.1588
1475.47694	0.16039
1474.51258	0.16372
1473.54821	0.16915
1472.58385	0.17412
1471.61948	0.17673
1470.65512	0.17982
1469.69076	0.18436
1468.72639	0.1897
1467.76203	0.19507
1466.79766	0.2006
1465.8333	0.2066
1464.86894	0.21226
1463.90457	0.2152
1462.94021	0.21768
1461.97584	0.22098
1461.01148	0.22463
1460.04712	0.22847
1459.08275	0.23179
1458.11839	0.23296
1457.15402	0.22808
1456.18966	0.22001
1455.2253	0.21471
1454.26093	0.21104
1453.29657	0.20858
1452.3322	0.20674
1451.36784	0.2049
1450.40348	0.20358
1449.43911	0.2033
1448.47475	0.20287
1447.51038	0.20101
1446.54602	0.19942
1445.58166	0.19882
1444.61729	0.19834
1443.65293	0.19817
1442.68856	0.19882
1441.7242	0.19984
1440.75984	0.20051
1439.79547	0.20064
1438.83111	0.2013
1437.86674	0.20305
1436.90238	0.20369
1435.93802	0.20076
1434.97365	0.19866
1434.00929	0.19797
1433.04492	0.19749
1432.08056	0.19734
1431.1162	0.19781
1430.15183	0.19767
1429.18747	0.19653
1428.2231	0.1961
1427.25874	0.19665
1426.29438	0.19765
1425.33001	0.19934
1424.36565	0.20129
1423.40128	0.20206
1422.43692	0.20268
1421.47256	0.2047
1420.50819	0.20801
1419.54383	0.21176
1418.57946	0.21421
1417.6151	0.21592
1416.65074	0.21701
1415.68637	0.21722
1414.72201	0.21786
1413.75764	0.21972
1412.79328	0.22225
1411.82892	0.22406
1410.86455	0.22433
1409.90019	0.22363
1408.93582	0.22288
1407.97146	0.22254
1407.0071	0.22295
1406.04273	0.22433
1405.07837	0.22619
1404.114	0.228
1403.14964	0.23077
1402.18528	0.23509
1401.22091	0.24056
1400.25655	0.24708
1399.29218	0.25404
1398.32782	0.25847
1397.36346	0.26026
1396.39909	0.26193
1395.43473	0.26415
1394.47036	0.26589
1393.506	0.26699
1392.54164	0.26812
1391.57727	0.269
1390.61291	0.26919
1389.64854	0.26936
1388.68418	0.27035
1387.71982	0.27174
1386.75545	0.27246
1385.79109	0.2734
1384.82672	0.27493
1383.86236	0.27581
1382.898	0.27545
1381.93363	0.27466
1380.96927	0.27482
1380.0049	0.27635
1379.04054	0.27806
1378.07618	0.27839
1377.11181	0.27732
1376.14745	0.276
1375.18308	0.27472
1374.21872	0.27241
1373.25436	0.26982
1372.28999	0.26883
1371.32563	0.2689
1370.36126	0.2683
1369.3969	0.26555
1368.43254	0.26041
1367.46817	0.25495
1366.50381	0.25084
1365.53944	0.2477
1364.57508	0.24529
1363.61072	0.2422
1362.64635	0.23668
1361.68199	0.23064
1360.71762	0.2252
1359.75326	0.22033
1358.7889	0.2162
1357.82453	0.21235
1356.86017	0.20929
1355.8958	0.20717
1354.93144	0.20511
1353.96708	0.20277
1353.00271	0.20081
1352.03835	0.19955
1351.07398	0.19884
1350.10962	0.19824
1349.14526	0.19745
1348.18089	0.19686
1347.21653	0.19683
1346.25216	0.1972
1345.2878	0.19762
1344.32344	0.19834
1343.35907	0.19958
1342.39471	0.20163
1341.43034	0.20466
1340.46598	0.20802
1339.50161	0.2101
1338.53725	0.21088
1337.57289	0.2119
1336.60852	0.2131
1335.64416	0.21384
1334.67979	0.21445
1333.71543	0.21547
1332.75107	0.21664
1331.7867	0.21755
1330.82234	0.21822
1329.85797	0.21893
1328.89361	0.22008
1327.92925	0.22171
1326.96488	0.22359
1326.00052	0.22574
1325.03615	0.22864
1324.07179	0.23277
1323.10743	0.23792
1322.14306	0.24325
1321.1787	0.2481
1320.21433	0.2517
1319.24997	0.25284
1318.28561	0.25045
1317.32124	0.24434
1316.35688	0.23532
1315.39251	0.22532
1314.42815	0.21585
1313.46379	0.20711
1312.49942	0.19876
1311.53506	0.19113
1310.57069	0.18503
1309.60633	0.18073
1308.64197	0.1778
1307.6776	0.17541
1306.71324	0.17329
1305.74887	0.172
1304.78451	0.17189
1303.82015	0.17263
1302.85578	0.17335
1301.89142	0.17376
1300.92705	0.17429
1299.96269	0.17543
1298.99833	0.17686
1298.03396	0.17783
1297.0696	0.178
1296.10523	0.17782
1295.14087	0.17802
1294.17651	0.17842
1293.21214	0.17806
1292.24778	0.17676
1291.28341	0.17527
1290.31905	0.17424
1289.35469	0.17351
1288.39032	0.17237
1287.42596	0.17058
1286.46159	0.16909
1285.49723	0.16893
1284.53287	0.1699
1283.5685	0.17099
1282.60414	0.17203
1281.63977	0.17361
1280.67541	0.17617
1279.71105	0.17884
1278.74668	0.18015
1277.78232	0.17947
1276.81795	0.17756
1275.85359	0.17564
1274.88923	0.17395
1273.92486	0.17182
1272.9605	0.1692
1271.99613	0.16693
1271.03177	0.16601
1270.06741	0.16638
1269.10304	0.16708
1268.13868	0.1679
1267.17431	0.16975
1266.20995	0.17332
1265.24559	0.17761
1264.28122	0.18085
1263.31686	0.18229
1262.35249	0.1827
1261.38813	0.1829
1260.42377	0.18222
1259.4594	0.17968
1258.49504	0.17583
1257.53067	0.17225
1256.56631	0.16998
1255.60195	0.16876
1254.63758	0.16744
1253.67322	0.16573
1252.70885	0.16454
1251.74449	0.16465
1250.78013	0.16531
1249.81576	0.16505
1248.8514	0.16377
1247.88703	0.16262
1246.92267	0.16251
1245.95831	0.16295
1244.99394	0.16275
1244.02958	0.16151
1243.06521	0.16037
1242.10085	0.16054
1241.13649	0.16131
1240.17212	0.16116
1239.20776	0.15996
1238.24339	0.15913
1237.27903	0.15988
1236.31467	0.16153
1235.3503	0.16255
1234.38594	0.16281
1233.42157	0.16372
1232.45721	0.16641
1231.49285	0.17037
1230.52848	0.17426
1229.56412	0.17823
1228.59975	0.18374
1227.63539	0.19165
1226.67103	0.20061
1225.70666	0.20814
1224.7423	0.21263
1223.77793	0.21403
1222.81357	0.21295
1221.84921	0.20907
1220.88484	0.20216
1219.92048	0.1935
1218.95611	0.1856
1217.99175	0.1801
1217.02739	0.17646
1216.06302	0.17289
1215.09866	0.16911
1214.13429	0.16652
1213.16993	0.16608
1212.20557	0.1668
1211.2412	0.16696
1210.27684	0.16629
1209.31247	0.16617
1208.34811	0.16758
1207.38375	0.16947
1206.41938	0.16994
1205.45502	0.16893
1204.49065	0.16821
1203.52629	0.16909
1202.56193	0.17073
1201.59756	0.17142
1200.6332	0.17114
1199.66883	0.1716
1198.70447	0.17406
1197.7401	0.17764
1196.77574	0.18081
1195.81138	0.18353
1194.84701	0.18734
1193.88265	0.19312
1192.91828	0.19975
1191.95392	0.20539
1190.98956	0.21004
1190.02519	0.21563
1189.06083	0.22372
1188.09646	0.2335
1187.1321	0.24287
1186.16774	0.25142
1185.20337	0.2609
1184.23901	0.27286
1183.27464	0.28608
1182.31028	0.2979
1181.34592	0.30743
1180.38155	0.31609
1179.41719	0.32531
1178.45282	0.33463
1177.48846	0.34267
1176.5241	0.34949
1175.55973	0.35698
1174.59537	0.36651
1173.631	0.37743
1172.66664	0.38839
1171.70228	0.39994
1170.73791	0.41397
1169.77355	0.43135
1168.80918	0.45088
1167.84482	0.47032
1166.88046	0.4886
1165.91609	0.50597
1164.95173	0.52217
1163.98736	0.53575
1163.023	0.54602
1162.05864	0.55439
1161.09427	0.56358
1160.12991	0.5749
1159.16554	0.58708
1158.20118	0.59805
1157.23682	0.60713
1156.27245	0.6146
1155.30809	0.62017
1154.34372	0.62247
1153.37936	0.62124
1152.415	0.61831
1151.45063	0.61623
1150.48627	0.61449
1149.5219	0.60831
1148.55754	0.59313
1147.59318	0.56997
1146.62881	0.54494
1145.66445	0.52302
1144.70008	0.50504
1143.73572	0.48961
1142.77136	0.47643
1141.80699	0.46692
1140.84263	0.46189
1139.87826	0.46033
1138.9139	0.46109
1137.94954	0.46461
1136.98517	0.47232
1136.02081	0.48509
1135.05644	0.50226
1134.09208	0.5221
1133.12772	0.54354
1132.16335	0.56511
1131.19899	0.58356
1130.23462	0.5944
1129.27026	0.59485
1128.3059	0.586
1127.34153	0.57187
1126.37717	0.55606
1125.4128	0.54011
1124.44844	0.52437
1123.48408	0.50975
1122.51971	0.49789
1121.55535	0.48956
1120.59098	0.48374
1119.62662	0.47938
1118.66226	0.47699
1117.69789	0.47782
1116.73353	0.48243
1115.76916	0.48956
1114.8048	0.4971
1113.84044	0.50395
1112.87607	0.50975
1111.91171	0.51387
1110.94734	0.51526
1109.98298	0.51344
1109.01862	0.50969
1108.05425	0.50612
1107.08989	0.50397
1106.12552	0.50274
1105.16116	0.50156
1104.1968	0.50047
1103.23243	0.50005
1102.26807	0.50053
1101.3037	0.50127
1100.33934	0.5015
1099.37498	0.5014
1098.41061	0.50176
1097.44625	0.50306
1096.48188	0.50476
1095.51752	0.50624
1094.55316	0.50795
1093.58879	0.51061
1092.62443	0.51442
1091.66006	0.51893
1090.6957	0.52366
1089.73134	0.52866
1088.76697	0.53455
1087.80261	0.54148
1086.83824	0.54884
1085.87388	0.55601
1084.90952	0.56307
1083.94515	0.56994
1082.98079	0.57626
1082.01642	0.58118
1081.05206	0.58413
1080.0877	0.5852
1079.12333	0.58432
1078.15897	0.58104
1077.1946	0.57559
1076.23024	0.56866
1075.26588	0.56105
1074.30151	0.5538
1073.33715	0.54806
1072.37278	0.54458
1071.40842	0.54394
1070.44406	0.54647
1069.47969	0.55195
1068.51533	0.5598
1067.55096	0.56919
1066.5866	0.57966
1065.62224	0.59072
1064.65787	0.60206
1063.69351	0.61355
1062.72914	0.62507
1061.76478	0.63651
1060.80042	0.64808
1059.83605	0.65969
1058.87169	0.67074
1057.90732	0.68114
1056.94296	0.69163
1055.97859	0.70282
1055.01423	0.71476
1054.04987	0.7272
1053.0855	0.74049
1052.12114	0.7553
1051.15677	0.77193
1050.19241	0.79004
1049.22805	0.8093
1048.26368	0.82953
1047.29932	0.84942
1046.33495	0.86633
1045.37059	0.8777
1044.40623	0.88474
1043.44186	0.89177
1042.4775	0.90318
1041.51313	0.92075
1040.54877	0.94265
1039.58441	0.96475
1038.62004	0.98315
1037.65568	0.99542
1036.69131	1
1035.72695	0.99718
1034.76259	0.98925
1033.79822	0.97861
1032.83386	0.96651
1031.86949	0.95224
1030.90513	0.93431
1029.94077	0.91281
1028.9764	0.89015
1028.01204	0.86894
1027.04767	0.84962
1026.08331	0.83053
1025.11895	0.81063
1024.15458	0.79115
1023.19022	0.77348
1022.22585	0.75714
1021.26149	0.74057
1020.29713	0.72336
1019.33276	0.70684
1018.3684	0.69256
1017.40403	0.68034
1016.43967	0.66876
1015.47531	0.65745
1014.51094	0.64768
1013.54658	0.64029
1012.58221	0.63436
1011.61785	0.6277
1010.65349	0.61948
1009.68912	0.61093
1008.72476	0.60346
1007.76039	0.59641
1006.79603	0.58808
1005.83167	0.57809
1004.8673	0.56829
1003.90294	0.56049
1002.93857	0.55413
1001.97421	0.54698
1001.00985	0.53831
1000.04548	0.52991
999.08112	0.52352
998.11675	0.51845
997.15239	0.51249
996.18803	0.50569
995.22366	0.50072
994.2593	0.49976
993.29493	0.50218
992.33057	0.50534
991.36621	0.50792
990.40184	0.51004
989.43748	0.51068
988.47311	0.50661
987.50875	0.49444
986.54439	0.4742
985.58002	0.45006
984.61566	0.42614
983.65129	0.40326
982.68693	0.37984
981.72257	0.35584
980.7582	0.3337
979.79384	0.31538
978.82947	0.29969
977.86511	0.28385
976.90075	0.26715
975.93638	0.25186
974.97202	0.23992
974.00765	0.23
973.04329	0.2192
972.07893	0.20701
971.11456	0.19594
970.1502	0.18809
969.18583	0.18223
968.22147	0.1758
967.25711	0.1687
966.29274	0.16382
965.32838	0.16287
964.36401	0.16272
963.39965	0.15889
962.43529	0.15116
961.47092	0.14401
960.50656	0.14121
959.54219	0.1423
958.57783	0.14441
957.61347	0.14679
956.6491	0.15181
955.68474	0.16065
954.72037	0.17022
953.75601	0.176
952.79165	0.17729
951.82728	0.17734
950.86292	0.17856
949.89855	0.17936
948.93419	0.17683
947.96983	0.17139
947.00546	0.16716
946.0411	0.16676
945.07673	0.16803
944.11237	0.16691
943.14801	0.1622
942.18364	0.1568
941.21928	0.15338
940.25491	0.15069
939.29055	0.14562
938.32619	0.13794
937.36182	0.13111
936.39746	0.12774
935.43309	0.12613
934.46873	0.12261
933.50437	0.11699
932.54	0.11275
931.57564	0.11227
930.61127	0.11323
929.64691	0.11207
928.68255	0.10858
927.71818	0.10604
926.75382	0.1062
925.78945	0.10634
924.82509	0.10264
923.86073	0.09553
922.89636	0.08912
921.932	0.08572
920.96763	0.08317
920.00327	0.07822
919.03891	0.07093
918.07454	0.06493
917.11018	0.06236
916.14581	0.06086
915.18145	0.0568
914.21708	0.05042
913.25272	0.0455
912.28836	0.04404
911.32399	0.04361
910.35963	0.04065
909.39526	0.0355
908.4309	0.03188
907.46654	0.03178
906.50217	0.03267
905.53781	0.03092
904.57344	0.02685
903.60908	0.02428
902.64472	0.02492
901.68035	0.02583
900.71599	0.02361
899.75162	0.01901
898.78726	0.01587
897.8229	0.01604
896.85853	0.01694
895.89417	0.01514
894.9298	0.0112
893.96544	0.00901
893.00108	0.01018
892.03671	0.01197
891.07235	0.01095
890.10798	0.00767
889.14362	0.00592
888.17926	0.00737
887.21489	0.00924
886.25053	0.00842
885.28616	0.00595
884.3218	0.0057
883.35744	0.00921
882.39307	0.0135
881.42871	0.01519
880.46434	0.01464
879.49998	0.01477
878.53562	0.01675
877.57125	0.01848
876.60689	0.01792
875.64252	0.01637
874.67816	0.01703
873.7138	0.02088
872.74943	0.02519
871.78507	0.02731
870.8207	0.02818
869.85634	0.0312
868.89198	0.03716
867.92761	0.04307
866.96325	0.04655
865.99888	0.04905
865.03452	0.05393
864.07016	0.062
863.10579	0.07072
862.14143	0.07796
861.17706	0.08496
860.2127	0.09398
859.24834	0.1037
858.28397	0.10938
857.31961	0.10771
856.35524	0.10092
855.39088	0.09421
854.42652	0.09001
853.46215	0.08664
852.49779	0.08196
851.53342	0.077
850.56906	0.07425
849.6047	0.07395
848.64033	0.07381
847.67597	0.07199
846.7116	0.06963
845.74724	0.06921
844.78288	0.07067
843.81851	0.0712
842.85415	0.06883
841.88978	0.06485
840.92542	0.06196
839.96106	0.06061
838.99669	0.05854
838.03233	0.05405
837.06796	0.04859
836.1036	0.04451
835.13924	0.04189
834.17487	0.03854
833.21051	0.03329
832.24614	0.02781
831.28178	0.02435
830.31742	0.02285
829.35305	0.02131
828.38869	0.01859
827.42432	0.01592
826.45996	0.01531
825.4956	0.01639
824.53123	0.01692
823.56687	0.01598
822.6025	0.01486
821.63814	0.01517
820.67378	0.01661
819.70941	0.01751
818.74505	0.01723
817.78068	0.01707
816.81632	0.01831
815.85196	0.02032
814.88759	0.02155
813.92323	0.02177
812.95886	0.02223
811.9945	0.02389
811.03014	0.02622
810.06577	0.02828
809.10141	0.02979
808.13704	0.03174
807.17268	0.03514
806.20832	0.03923
805.24395	0.04223
804.27959	0.0435
803.31522	0.04335
802.35086	0.04232
801.3865	0.04076
800.42213	0.03884
799.45777	0.03692
798.4934	0.03553
797.52904	0.03469
796.56468	0.03402
795.60031	0.03331
794.63595	0.03266
793.67158	0.03233
792.70722	0.03216
791.74286	0.03164
790.77849	0.03078
789.81413	0.03028
788.84976	0.03047
787.8854	0.03084
786.92104	0.0312
785.95667	0.03166
784.99231	0.03237
784.02794	0.03328
783.06358	0.03417
782.09922	0.03481
781.13485	0.03571
780.17049	0.03768
779.20612	0.0405
778.24176	0.04339
777.2774	0.04671
776.31303	0.05155
775.34867	0.05823
774.3843	0.06524
773.41994	0.07015
772.45557	0.07128
771.49121	0.06954
770.52685	0.067
769.56248	0.06495
768.59812	0.06311
767.63375	0.06187
766.66939	0.06268
765.70503	0.06577
764.74066	0.06957
763.7763	0.07266
762.81193	0.0755
761.84757	0.0794
760.88321	0.08475
759.91884	0.09039
758.95448	0.09512
757.99011	0.09933
757.02575	0.10434
756.06139	0.11002
755.09702	0.11391
754.13266	0.11362
753.16829	0.10966
752.20393	0.10528
751.23957	0.10239
750.2752	0.09975
749.31084	0.09599
748.34647	0.09199
747.38211	0.08937
746.41775	0.08755
745.45338	0.08428
744.48902	0.07849
743.52465	0.07219
742.56029	0.06793
741.59593	0.06569
740.63156	0.06309
739.6672	0.05878
738.70283	0.05477
737.73847	0.05397
736.77411	0.05613
735.80974	0.05859
734.84538	0.06023
733.88101	0.06246
732.91665	0.06641
731.95229	0.07016
730.98792	0.07047
730.02356	0.06696
729.05919	0.06321
728.09483	0.06251
727.13047	0.06397
726.1661	0.06433
725.20174	0.06256
724.23737	0.06154
723.27301	0.06378
722.30865	0.06708
721.34428	0.06714
720.37992	0.065
719.41555	0.06634
718.45119	0.07243
717.48683	0.07944
716.52246	0.08362
715.5581	0.08481
714.59373	0.08652
713.62937	0.09117
712.66501	0.09676
711.70064	0.09958
710.73628	0.09915
709.77191	0.0993
708.80755	0.10278
707.84319	0.10695
706.87882	0.10748
705.91446	0.1047
704.95009	0.103
703.98573	0.1045
703.02137	0.10643
702.057	0.10468
701.09264	0.09952
700.12827	0.09529
699.16391	0.09432
698.19955	0.09354
697.23518	0.08903
696.27082	0.08196
695.30645	0.07732
694.34209	0.07712
693.37773	0.07812
692.41336	0.07598
691.449	0.07111
690.48463	0.06816
689.52027	0.06964
688.55591	0.07192
687.59154	0.07039
686.62718	0.06619
685.66281	0.06437
684.69845	0.06657
683.73409	0.0688
682.76972	0.06721
681.80536	0.06368
680.84099	0.06315
679.87663	0.06641
678.91227	0.06922
677.9479	0.06841
676.98354	0.06622
676.01917	0.06714
675.05481	0.07165
674.09045	0.07557
673.12608	0.07544
672.16172	0.07287
671.19735	0.07078
670.23299	0.06644
669.26863	0.05461
668.30426	0.04607
667.3399	0.06987
666.37553	0.08922
665.41117	0.09935
664.44681	0.10316
663.48244	0.09996
662.51808	0.09426
661.55371	0.09194
660.58935	0.0927
659.62499	0.09148
658.66062	0.08613
657.69626	0.08049
656.73189	0.0792
655.76753	0.08162
654.80317	0.08231
653.8388	0.07856
652.87444	0.07438
651.91007	0.0748
650.94571	0.07812
649.98135	0.07818
649.01698	0.07391
648.05262	0.07115
647.08825	0.0739
646.12389	0.07887
645.15953	0.08069
644.19516	0.07813
643.2308	0.07591
642.26643	0.07829
641.30207	0.08263
640.33771	0.08361
639.37334	0.08085
638.40898	0.07959
637.44461	0.08315
636.48025	0.08867
635.51589	0.0913
634.55152	0.09043
633.58716	0.09057
632.62279	0.09479
631.65843	0.10034
630.69406	0.10179
629.7297	0.09876
628.76534	0.09654
627.80097	0.09884
626.83661	0.10333
625.87224	0.10469
624.90788	0.10232
623.94352	0.10154
622.97915	0.10584
622.01479	0.11193
621.05042	0.11457
620.08606	0.11356
619.1217	0.11334
618.15733	0.11719
617.19297	0.12396
616.2286	0.12891
615.26424	0.13063
614.29988	0.13362
613.33551	0.14033
612.37115	0.14684
611.40678	0.1487
610.44242	0.14721
609.47806	0.1474
608.51369	0.15102
607.54933	0.15385
606.58496	0.15228
605.6206	0.14848
604.65624	0.14743
603.69187	0.15055
602.72751	0.1537
601.76314	0.15264
600.79878	0.14877
599.83442	0.14676
598.87005	0.14801
597.90569	0.14913
596.94132	0.14707
595.97696	0.14368
595.0126	0.14303
594.04823	0.14585
593.08387	0.14863
592.1195	0.14851
591.15514	0.14735
590.19078	0.14919
589.22641	0.15412
588.26205	0.15836
587.29768	0.15875
586.33332	0.15793
585.36896	0.16089
584.40459	0.16723
583.44023	0.17258
582.47586	0.17503
581.5115	0.17667
580.54714	0.1801
579.58277	0.18483
578.61841	0.18744
577.65404	0.1865
576.68968	0.18472
575.72532	0.18528
574.76095	0.18719
573.79659	0.18719
572.83222	0.18389
571.86786	0.17965
570.9035	0.17774
569.93913	0.17681
568.97477	0.17283
568.0104	0.16513
567.04604	0.15761
566.08168	0.15336
565.11731	0.15093
564.15295	0.14684
563.18858	0.14044
562.22422	0.13492
561.25986	0.13325
560.29549	0.13371
559.33113	0.13211
558.36676	0.12819
557.4024	0.12515
556.43804	0.12487
555.47367	0.12597
554.50931	0.12585
553.54494	0.12449
552.58058	0.12418
551.61622	0.12597
550.65185	0.12858
549.68749	0.12975
548.72312	0.12906
547.75876	0.12884
546.7944	0.13054
545.83003	0.13251
544.86567	0.13235
543.9013	0.13026
542.93694	0.12846
541.97258	0.12873
541.00821	0.1302
540.04385	0.13004
539.07948	0.12751
538.11512	0.1245
537.15076	0.12241
536.18639	0.12077
535.22203	0.11845
534.25766	0.11525
533.2933	0.11217
532.32894	0.11084
531.36457	0.11119
530.40021	0.11106
529.43584	0.10973
528.47148	0.1088
527.50712	0.10928
526.54275	0.11079
525.57839	0.11181
524.61402	0.1114
523.64966	0.11056
522.6853	0.11023
521.72093	0.11015
520.75657	0.10914
519.7922	0.10634
518.82784	0.10274
517.86348	0.10027
516.89911	0.09807
515.93475	0.09458
514.97038	0.09028
514.00602	0.08646
513.04166	0.08445
512.07729	0.08446
511.11293	0.0839
510.14856	0.08094
509.1842	0.07821
508.21984	0.07891
507.25547	0.08181
506.29111	0.08242
505.32674	0.07925
504.36238	0.07583
503.39802	0.07569
502.43365	0.07786
501.46929	0.07691
500.50492	0.07246
499.54056	0.06914
498.5762	0.06937
497.61183	0.07082
496.64747	0.06982
495.6831	0.0662
494.71874	0.06331
493.75437	0.06372
492.79001	0.06551
491.82565	0.06473
490.86128	0.06169
489.89692	0.06016
488.93255	0.06145
487.96819	0.06312
487.00383	0.06228
486.03946	0.05918
485.0751	0.05694
484.11073	0.05797
483.14637	0.06034
482.18201	0.05983
481.21764	0.05677
480.25328	0.05505
479.28891	0.05655
478.32455	0.05813
477.36019	0.05658
476.39582	0.05299
475.43146	0.05099
474.46709	0.05232
473.50273	0.05383
472.53837	0.04998
471.574	0.04489
470.60964	0.04643
469.64527	0.05068
468.68091	0.05054
467.71655	0.04397
466.75218	0.03777
465.78782	0.03754
464.82345	0.04075
463.85909	0.04175
462.89473	0.03835
461.93036	0.03455
460.966	0.03687
460.00163	0.04368
459.03727	0.04765
458.07291	0.04412
457.10854	0.03694
456.14418	0.03716
455.17981	0.04139
454.21545	0.04271
453.25109	0.03981
452.28672	0.03769
451.32236	0.03889
450.35799	0.04042
449.39363	0.03881
448.42927	0.03441
447.4649	0.0328
446.50054	0.03675
445.53617	0.03998
444.57181	0.03786
443.60745	0.03291
442.64308	0.03062
441.67872	0.03322
440.71435	0.03519
439.74999	0.03239
438.78563	0.02823
437.82126	0.02833
436.8569	0.03243
435.89253	0.03306
434.92817	0.02623
433.96381	0.02111
432.99944	0.02503
432.03508	0.03024
431.07071	0.02606
430.10635	0.01591
429.14199	0.01181
428.17762	0.01657
427.21326	0.02123
426.24889	0.01861
425.28453	0.01215
424.32017	0.00998
423.3558	0.01514
422.39144	0.02243
421.42707	0.02429
420.46271	0.0235
419.49835	0.02767
418.53398	0.03118
417.56962	0.02257
416.60525	0.01373
415.64089	0.01373
414.67653	0.01373
413.71216	0.01373
412.7478	0.01373
411.78343	0.01373
410.81907	0.01373
409.85471	0.01373
408.89034	0.01373
407.92598	0.01373
406.96161	0.01373
405.99725	0.01373
405.03289	0.01373
404.06852	0.01373
403.10416	0.01373
402.13979	0.01373
401.17543	0.01373
400.21107	0.01373