3996.41167	0.01538
3994.4829	0.01509
3992.55413	0.01428
3990.62536	0.01348
3988.69659	0.01335
3986.76782	0.01373
3984.83905	0.01403
3982.91028	0.0141
3980.98151	0.01416
3979.05274	0.01407
3977.12397	0.01374
3975.1952	0.0138
3973.26643	0.01422
3971.33766	0.01405
3969.40889	0.01305
3967.48012	0.01189
3965.55135	0.01191
3963.62258	0.01344
3961.69381	0.01477
3959.76504	0.0144
3957.83627	0.01336
3955.9075	0.01287
3953.97873	0.0129
3952.04996	0.0134
3950.12119	0.01457
3948.19242	0.01535
3946.26365	0.01474
3944.33488	0.01425
3942.40611	0.01499
3940.47734	0.01545
3938.54857	0.01453
3936.6198	0.01293
3934.69103	0.01212
3932.76226	0.0131
3930.83349	0.01443
3928.90472	0.01426
3926.97595	0.01365
3925.04718	0.01411
3923.11841	0.01457
3921.18964	0.01416
3919.26087	0.01478
3917.3321	0.01663
3915.40333	0.01689
3913.47456	0.01502
3911.54579	0.01275
3909.61702	0.01067
3907.68825	0.00912
3905.75948	0.01061
3903.83071	0.01594
3901.90194	0.02076
3899.97317	0.02173
3898.0444	0.01903
3896.11563	0.01378
3894.18686	0.00957
3892.25809	0.00972
3890.32932	0.0116
3888.40055	0.01139
3886.47178	0.01162
3884.54301	0.01374
3882.61424	0.01515
3880.68547	0.01597
3878.7567	0.01532
3876.82792	0.01222
3874.89915	0.01011
3872.97038	0.0114
3871.04161	0.01459
3869.11284	0.0166
3867.18407	0.01516
3865.2553	0.0138
3863.32653	0.01561
3861.39776	0.01682
3859.46899	0.01368
3857.54022	0.00741
3855.61145	0.00399
3853.68268	0.00999
3851.75391	0.01917
3849.82514	0.01998
3847.89637	0.01494
3845.9676	0.0101
3844.03883	0.00786
3842.11006	0.00765
3840.18129	0.00871
3838.25252	0.01123
3836.32375	0.01327
3834.39498	0.01302
3832.46621	0.01166
3830.53744	0.00986
3828.60867	0.00795
3826.6799	0.00639
3824.75113	0.0046
3822.82236	0.00399
3820.89359	0.00734
3818.96482	0.01077
3817.03605	0.01143
3815.10728	0.01181
3813.17851	0.01073
3811.24974	0.00727
3809.32097	0.00413
3807.3922	0.00364
3805.46343	0.00374
3803.53466	0.00274
3801.60589	0.00431
3799.67712	0.00782
3797.74835	0.00907
3795.81958	0.00882
3793.89081	0.00809
3791.96204	0.00673
3790.03327	0.00541
3788.1045	0.00449
3786.17573	0.0042
3784.24696	0.00462
3782.31819	0.0048
3780.38942	0.00519
3778.46065	0.00656
3776.53188	0.00694
3774.60311	0.0051
3772.67434	0.00323
3770.74557	0.00393
3768.8168	0.00617
3766.88803	0.00719
3764.95926	0.00646
3763.03049	0.00451
3761.10172	0.00338
3759.17295	0.00527
3757.24418	0.0068
3755.31541	0.00401
3753.38664	0
3751.45787	0.00141
3749.5291	0.0073
3747.60033	0.01025
3745.67156	0.01305
3743.74279	0.01747
3741.81402	0.01694
3739.88525	0.01162
3737.95648	0.00832
3736.02771	0.01076
3734.09894	0.0153
3732.17017	0.0168
3730.2414	0.01575
3728.31263	0.01498
3726.38386	0.01572
3724.45509	0.01642
3722.52632	0.0166
3720.59755	0.01627
3718.66878	0.01459
3716.74001	0.01049
3714.81124	0.00489
3712.88247	0.00294
3710.9537	0.00855
3709.02493	0.01542
3707.09616	0.01588
3705.16739	0.01198
3703.23861	0.00923
3701.30984	0.01068
3699.38107	0.0136
3697.4523	0.01422
3695.52353	0.01254
3693.59476	0.01062
3691.66599	0.01076
3689.73722	0.01546
3687.80845	0.02122
3685.87968	0.02248
3683.95091	0.02016
3682.02214	0.01769
3680.09337	0.01593
3678.1646	0.01627
3676.23583	0.02192
3674.30706	0.02971
3672.37829	0.03242
3670.44952	0.0332
3668.52075	0.03477
3666.59198	0.03432
3664.66321	0.03311
3662.73444	0.03333
3660.80567	0.03423
3658.8769	0.0352
3656.94813	0.03693
3655.01936	0.03703
3653.09059	0.03381
3651.16182	0.03407
3649.23305	0.04423
3647.30428	0.05459
3645.37551	0.05596
3643.44674	0.05337
3641.51797	0.05233
3639.5892	0.05334
3637.66043	0.05495
3635.73166	0.05656
3633.80289	0.05765
3631.87412	0.05926
3629.94535	0.06554
3628.01658	0.07514
3626.08781	0.07873
3624.15904	0.07626
3622.23027	0.07415
3620.3015	0.07635
3618.37273	0.0818
3616.44396	0.08602
3614.51519	0.08778
3612.58642	0.08915
3610.65765	0.09163
3608.72888	0.09562
3606.80011	0.09905
3604.87134	0.09947
3602.94257	0.0985
3601.0138	0.0992
3599.08503	0.10164
3597.15626	0.10483
3595.22749	0.10826
3593.29872	0.11074
3591.36995	0.11123
3589.44118	0.11316
3587.51241	0.11877
3585.58364	0.12418
3583.65487	0.12598
3581.7261	0.12664
3579.79733	0.12848
3577.86856	0.13168
3575.93979	0.13574
3574.01102	0.14016
3572.08225	0.1441
3570.15348	0.14809
3568.22471	0.15472
3566.29594	0.16401
3564.36717	0.17152
3562.4384	0.17645
3560.50963	0.18072
3558.58086	0.18474
3556.65209	0.189
3554.72332	0.19544
3552.79455	0.20449
3550.86578	0.21414
3548.93701	0.22371
3547.00824	0.23482
3545.07947	0.24617
3543.1507	0.25435
3541.22193	0.25944
3539.29316	0.2635
3537.36439	0.26717
3535.43562	0.26941
3533.50685	0.27011
3531.57807	0.27053
3529.6493	0.27154
3527.72053	0.27323
3525.79176	0.27547
3523.86299	0.27779
3521.93422	0.27968
3520.00545	0.28132
3518.07668	0.28372
3516.14791	0.28703
3514.21914	0.2909
3512.29037	0.29544
3510.3616	0.30108
3508.43283	0.30748
3506.50406	0.31432
3504.57529	0.32266
3502.64652	0.3323
3500.71775	0.3412
3498.78898	0.3489
3496.86021	0.35657
3494.93144	0.36443
3493.00267	0.37167
3491.0739	0.37771
3489.14513	0.38296
3487.21636	0.38746
3485.28759	0.39065
3483.35882	0.39341
3481.43005	0.39691
3479.50128	0.4003
3477.57251	0.40294
3475.64374	0.40617
3473.71497	0.41067
3471.7862	0.41557
3469.85743	0.42058
3467.92866	0.42646
3465.99989	0.43326
3464.07112	0.44057
3462.14235	0.44792
3460.21358	0.45483
3458.28481	0.46107
3456.35604	0.46743
3454.42727	0.47458
3452.4985	0.48213
3450.56973	0.48964
3448.64096	0.49778
3446.71219	0.50644
3444.78342	0.51422
3442.85465	0.52074
3440.92588	0.52734
3438.99711	0.53433
3437.06834	0.54097
3435.13957	0.54689
3433.2108	0.55262
3431.28203	0.5589
3429.35326	0.56609
3427.42449	0.5738
3425.49572	0.58178
3423.56695	0.5904
3421.63818	0.59925
3419.70941	0.60728
3417.78064	0.61482
3415.85187	0.62332
3413.9231	0.63269
3411.99433	0.64135
3410.06556	0.64905
3408.13679	0.65672
3406.20802	0.66435
3404.27925	0.6709
3402.35048	0.67619
3400.42171	0.68073
3398.49294	0.68503
3396.56417	0.68854
3394.6354	0.69161
3392.70663	0.69461
3390.77786	0.69717
3388.84909	0.69913
3386.92032	0.70121
3384.99155	0.70385
3383.06278	0.70669
3381.13401	0.70936
3379.20524	0.71204
3377.27647	0.71495
3375.3477	0.71807
3373.41893	0.72118
3371.49016	0.72429
3369.56139	0.72752
3367.63262	0.73068
3365.70385	0.73383
3363.77508	0.73718
3361.84631	0.74057
3359.91753	0.7438
3357.98876	0.74699
3356.05999	0.74991
3354.13122	0.75234
3352.20245	0.75463
3350.27368	0.75691
3348.34491	0.75887
3346.41614	0.7606
3344.48737	0.76268
3342.5586	0.7652
3340.62983	0.7676
3338.70106	0.76948
3336.77229	0.77073
3334.84352	0.77171
3332.91475	0.77304
3330.98598	0.77453
3329.05721	0.77546
3327.12844	0.77624
3325.19967	0.77733
3323.2709	0.77846
3321.34213	0.77928
3319.41336	0.7797
3317.48459	0.7798
3315.55582	0.77979
3313.62705	0.77973
3311.69828	0.7798
3309.76951	0.77958
3307.84074	0.77842
3305.91197	0.77658
3303.9832	0.77502
3302.05443	0.77397
3300.12566	0.77293
3298.19689	0.77149
3296.26812	0.77028
3294.33935	0.76991
3292.41058	0.76926
3290.48181	0.76758
3288.55304	0.76563
3286.62427	0.76446
3284.6955	0.76421
3282.76673	0.76435
3280.83796	0.76445
3278.90919	0.76444
3276.98042	0.7643
3275.05165	0.76381
3273.12288	0.76304
3271.19411	0.76275
3269.26534	0.76313
3267.33657	0.76327
3265.4078	0.76282
3263.47903	0.76225
3261.55026	0.76192
3259.62149	0.76159
3257.69272	0.76086
3255.76395	0.75942
3253.83518	0.75722
3251.90641	0.7544
3249.97764	0.75161
3248.04887	0.7491
3246.1201	0.74631
3244.19133	0.74316
3242.26256	0.73998
3240.33379	0.73644
3238.40502	0.73223
3236.47625	0.72793
3234.54748	0.72392
3232.61871	0.72022
3230.68994	0.71672
3228.76117	0.71298
3226.8324	0.70916
3224.90363	0.7059
3222.97486	0.70296
3221.04609	0.69993
3219.11732	0.69671
3217.18855	0.69277
3215.25978	0.68812
3213.33101	0.68355
3211.40224	0.68001
3209.47347	0.67695
3207.5447	0.67325
3205.61593	0.66884
3203.68716	0.66462
3201.75839	0.66073
3199.82962	0.65691
3197.90085	0.65297
3195.97208	0.64884
3194.04331	0.64427
3192.11454	0.63966
3190.18577	0.63517
3188.257	0.6308
3186.32822	0.62623
3184.39945	0.62142
3182.47068	0.61645
3180.54191	0.61172
3178.61314	0.607
3176.68437	0.60199
3174.7556	0.5971
3172.82683	0.5923
3170.89806	0.58682
3168.96929	0.58082
3167.04052	0.57494
3165.11175	0.56935
3163.18298	0.56371
3161.25421	0.55799
3159.32544	0.55263
3157.39667	0.54758
3155.4679	0.54222
3153.53913	0.53634
3151.61036	0.53011
3149.68159	0.52388
3147.75282	0.51836
3145.82405	0.51339
3143.89528	0.50815
3141.96651	0.50231
3140.03774	0.49643
3138.10897	0.49083
3136.1802	0.48535
3134.25143	0.47995
3132.32266	0.47475
3130.39389	0.46974
3128.46512	0.46474
3126.53635	0.45997
3124.60758	0.4556
3122.67881	0.45119
3120.75004	0.44638
3118.82127	0.44145
3116.8925	0.43661
3114.96373	0.43168
3113.03496	0.42667
3111.10619	0.42199
3109.17742	0.41773
3107.24865	0.41348
3105.31988	0.40883
3103.39111	0.40418
3101.46234	0.40021
3099.53357	0.39675
3097.6048	0.39324
3095.67603	0.38959
3093.74726	0.38601
3091.81849	0.38247
3089.88972	0.37853
3087.96095	0.37416
3086.03218	0.3703
3084.10341	0.36735
3082.17464	0.36469
3080.24587	0.36186
3078.3171	0.35911
3076.38833	0.35636
3074.45956	0.35341
3072.53079	0.35086
3070.60202	0.34903
3068.67325	0.34751
3066.74448	0.34567
3064.81571	0.34316
3062.88694	0.34045
3060.95817	0.33826
3059.0294	0.33674
3057.10063	0.33553
3055.17186	0.33413
3053.24309	0.33225
3051.31432	0.33014
3049.38555	0.32818
3047.45678	0.32666
3045.52801	0.32534
3043.59924	0.32413
3041.67047	0.32317
3039.7417	0.32216
3037.81293	0.32088
3035.88416	0.31975
3033.95539	0.31871
3032.02662	0.31739
3030.09785	0.31591
3028.16908	0.31466
3026.24031	0.31378
3024.31154	0.31293
3022.38277	0.312
3020.454	0.31088
3018.52523	0.30987
3016.59646	0.3095
3014.66768	0.30968
3012.73891	0.31002
3010.81014	0.31048
3008.88137	0.31138
3006.9526	0.31267
3005.02383	0.31423
3003.09506	0.31679
3001.16629	0.32082
2999.23752	0.32563
2997.30875	0.33013
2995.37998	0.3338
2993.45121	0.33715
2991.52244	0.34172
2989.59367	0.34646
2987.6649	0.34866
2985.73613	0.34877
2983.80736	0.34879
2981.87859	0.34917
2979.94982	0.34903
2978.02105	0.34763
2976.09228	0.34516
2974.16351	0.34218
2972.23474	0.3384
2970.30597	0.33363
2968.3772	0.32839
2966.44843	0.32425
2964.51966	0.32345
2962.59089	0.32711
2960.66212	0.33383
2958.73335	0.34015
2956.80458	0.34378
2954.87581	0.34534
2952.94704	0.34683
2951.01827	0.34927
2949.0895	0.35302
2947.16073	0.35914
2945.23196	0.36863
2943.30319	0.38077
2941.37442	0.39263
2939.44565	0.40153
2937.51688	0.40809
2935.58811	0.41635
2933.65934	0.43015
2931.73057	0.4495
2929.8018	0.46813
2927.87303	0.47762
2925.94426	0.4765
2924.01549	0.46999
2922.08672	0.46209
2920.15795	0.45372
2918.22918	0.44369
2916.30041	0.43044
2914.37164	0.41562
2912.44287	0.40182
2910.5141	0.39012
2908.58533	0.381
2906.65656	0.37477
2904.72779	0.37134
2902.79902	0.36959
2900.87025	0.36696
2898.94148	0.36346
2897.01271	0.36095
2895.08394	0.35847
2893.15517	0.35454
2891.2264	0.35001
2889.29763	0.34568
2887.36886	0.34122
2885.44009	0.33642
2883.51132	0.33121
2881.58255	0.32561
2879.65378	0.32013
2877.72501	0.31529
2875.79624	0.31088
2873.86747	0.30619
2871.9387	0.30075
2870.00993	0.29483
2868.08116	0.28939
2866.15239	0.28478
2864.22362	0.28108
2862.29485	0.27845
2860.36608	0.2763
2858.43731	0.27402
2856.50854	0.27175
2854.57977	0.26904
2852.651	0.26538
2850.72223	0.26097
2848.79346	0.25628
2846.86469	0.25124
2844.93592	0.246
2843.00714	0.24162
2841.07837	0.23848
2839.1496	0.23545
2837.22083	0.23219
2835.29206	0.22928
2833.36329	0.22705
2831.43452	0.22498
2829.50575	0.22302
2827.57698	0.22138
2825.64821	0.21998
2823.71944	0.21858
2821.79067	0.21678
2819.8619	0.21431
2817.93313	0.2114
2816.00436	0.20861
2814.07559	0.20634
2812.14682	0.20415
2810.21805	0.20164
2808.28928	0.19897
2806.36051	0.1965
2804.43174	0.19426
2802.50297	0.19246
2800.5742	0.19138
2798.64543	0.19041
2796.71666	0.18905
2794.78789	0.18761
2792.85912	0.18648
2790.93035	0.18552
2789.00158	0.18435
2787.07281	0.18291
2785.14404	0.18135
2783.21527	0.18003
2781.2865	0.17887
2779.35773	0.17802
2777.42896	0.17769
2775.50019	0.17727
2773.57142	0.17647
2771.64265	0.1755
2769.71388	0.17465
2767.78511	0.174
2765.85634	0.17363
2763.92757	0.17326
2761.9988	0.17289
2760.07003	0.17271
2758.14126	0.17258
2756.21249	0.17224
2754.28372	0.17171
2752.35495	0.17154
2750.42618	0.17176
2748.49741	0.17143
2746.56864	0.17015
2744.63987	0.16878
2742.7111	0.16797
2740.78233	0.16756
2738.85356	0.16715
2736.92479	0.16634
2734.99602	0.1651
2733.06725	0.16394
2731.13848	0.16321
2729.20971	0.16295
2727.28094	0.16282
2725.35217	0.16205
2723.4234	0.16085
2721.49463	0.15972
2719.56586	0.15848
2717.63709	0.15716
2715.70832	0.15583
2713.77955	0.15451
2711.85078	0.15327
2709.92201	0.1521
2707.99324	0.1511
2706.06447	0.15029
2704.1357	0.14936
2702.20693	0.14832
2700.27816	0.14747
2698.34939	0.14682
2696.42062	0.14617
2694.49185	0.14532
2692.56308	0.14416
2690.63431	0.14264
2688.70554	0.14092
2686.77677	0.13968
2684.848	0.13915
2682.91923	0.13889
2680.99046	0.13832
2679.06169	0.13751
2677.13292	0.13683
2675.20415	0.1361
2673.27538	0.13513
2671.34661	0.13389
2669.41783	0.13264
2667.48906	0.1318
2665.56029	0.13154
2663.63152	0.13137
2661.70275	0.13076
2659.77398	0.12987
2657.84521	0.12898
2655.91644	0.12798
2653.98767	0.12689
2652.0589	0.12597
2650.13013	0.12516
2648.20136	0.12419
2646.27259	0.12287
2644.34382	0.12151
2642.41505	0.12042
2640.48628	0.11973
2638.55751	0.11897
2636.62874	0.11788
2634.69997	0.1166
2632.7712	0.11524
2630.84243	0.11387
2628.91366	0.11255
2626.98489	0.11139
2625.05612	0.11046
2623.12735	0.10957
2621.19858	0.10829
2619.26981	0.10677
2617.34104	0.10564
2615.41227	0.10476
2613.4835	0.10367
2611.55473	0.10267
2609.62596	0.10194
2607.69719	0.10121
2605.76842	0.10024
2603.83965	0.09936
2601.91088	0.09886
2599.98211	0.09897
2598.05334	0.09907
2596.12457	0.09838
2594.1958	0.09718
2592.26703	0.09653
2590.33826	0.0962
2588.40949	0.09539
2586.48072	0.09438
2584.55195	0.09381
2582.62318	0.09336
2580.69441	0.09267
2578.76564	0.09182
2576.83687	0.09133
2574.9081	0.0912
2572.97933	0.09087
2571.05056	0.09037
2569.12179	0.09
2567.19302	0.08995
2565.26425	0.09025
2563.33548	0.09027
2561.40671	0.08942
2559.47794	0.08838
2557.54917	0.08801
2555.6204	0.08811
2553.69163	0.08774
2551.76286	0.08677
2549.83409	0.08632
2547.90532	0.0867
2545.97655	0.08708
2544.04778	0.08671
2542.11901	0.08574
2540.19024	0.08513
2538.26147	0.08519
2536.3327	0.08514
2534.40393	0.08485
2532.47516	0.08439
2530.54639	0.08347
2528.61762	0.0825
2526.68885	0.08197
2524.76008	0.0818
2522.83131	0.08174
2520.90254	0.08149
2518.97377	0.08115
2517.045	0.08074
2515.11623	0.08013
2513.18746	0.07913
2511.25869	0.07808
2509.32992	0.07735
2507.40115	0.07706
2505.47238	0.07685
2503.54361	0.07647
2501.61484	0.07614
2499.68607	0.07609
2497.75729	0.07595
2495.82852	0.07542
2493.89975	0.07505
2491.97098	0.07527
2490.04221	0.07553
2488.11344	0.07508
2486.18467	0.07431
2484.2559	0.07406
2482.32713	0.074
2480.39836	0.07359
2478.46959	0.07302
2476.54082	0.07285
2474.61205	0.07323
2472.68328	0.07377
2470.75451	0.07399
2468.82574	0.07377
2466.89697	0.0734
2464.9682	0.07311
2463.03943	0.07293
2461.11066	0.07268
2459.18189	0.07262
2457.25312	0.07277
2455.32435	0.07228
2453.39558	0.07139
2451.46681	0.07102
2449.53804	0.0708
2447.60927	0.07015
2445.6805	0.06935
2443.75173	0.06909
2441.82296	0.06912
2439.89419	0.06859
2437.96542	0.0675
2436.03665	0.06665
2434.10788	0.06644
2432.17911	0.0665
2430.25034	0.06625
2428.32157	0.06564
2426.3928	0.06503
2424.46403	0.06462
2422.53526	0.0646
2420.60649	0.06482
2418.67772	0.06485
2416.74895	0.06467
2414.82018	0.06434
2412.89141	0.06365
2410.96264	0.06296
2409.03387	0.06247
2407.1051	0.06202
2405.17633	0.06181
2403.24756	0.06191
2401.31879	0.06189
2399.39002	0.0572
2397.46125	0.05652
2395.53248	0.05844
2393.60371	0.06064
2391.67494	0.06296
2389.74617	0.06556
2387.8174	0.06816
2385.88863	0.07044
2383.95986	0.07236
2382.03109	0.07409
2380.10232	0.07554
2378.17355	0.0773
2376.24478	0.07899
2374.31601	0.08127
2372.38724	0.08256
2370.45847	0.08346
2368.5297	0.08669
2366.60093	0.08461
2364.67216	0.08107
2362.74339	0.08106
2360.81462	0.08116
2358.88585	0.08602
2356.95708	0.09206
2355.02831	0.09981
2353.09954	0.10553
2351.17077	0.10429
2349.242	0.09528
2347.31323	0.09891
2345.38446	0.09846
2343.45569	0.08866
2341.52692	0.08564
2339.59815	0.08408
2337.66938	0.08188
2335.74061	0.0827
2333.81184	0.08363
2331.88307	0.08611
2329.9543	0.08744
2328.02553	0.09063
2326.09675	0.0907
2324.16798	0.08866
2322.23921	0.08207
2320.31044	0.07746
2318.38167	0.07313
2316.4529	0.07042
2314.52413	0.06898
2312.59536	0.0673
2310.66659	0.06649
2308.73782	0.06636
2306.80905	0.06622
2304.88028	0.0653
2302.95151	0.06441
2301.02274	0.06428
2299.09397	0.06402
2297.1652	0.06341
2295.23643	0.06253
2293.30766	0.0614
2291.37889	0.06067
2289.45012	0.06022
2287.52135	0.05925
2285.59258	0.05738
2283.66381	0.05503
2281.73504	0.05323
2279.80627	0.05194
2277.8775	0.05058
2275.94873	0.0495
2274.01996	0.04916
2272.09119	0.04986
2270.16242	0.05064
2268.23365	0.05094
2266.30488	0.05092
2264.37611	0.05114
2262.44734	0.05168
2260.51857	0.0521
2258.5898	0.05161
2256.66103	0.05065
2254.73226	0.05051
2252.80349	0.05176
2250.87472	0.05301
2248.94595	0.05213
2247.01718	0.05203
2245.08841	0.05221
2243.15964	0.05228
2241.23087	0.05206
2239.3021	0.05189
2237.37333	0.05211
2235.44456	0.05209
2233.51579	0.05101
2231.58702	0.04973
2229.65825	0.04939
2227.72948	0.04942
2225.80071	0.0494
2223.87194	0.05014
2221.94317	0.05087
2220.0144	0.05019
2218.08563	0.04878
2216.15686	0.04849
2214.22809	0.04947
2212.29932	0.05024
2210.37055	0.0505
2208.44178	0.05112
2206.51301	0.05217
2204.58424	0.05244
2202.65547	0.05143
2200.7267	0.05019
2198.79793	0.04966
2196.86916	0.04936
2194.94039	0.04848
2193.01162	0.04715
2191.08285	0.04678
2189.15408	0.04843
2187.22531	0.05122
2185.29654	0.05283
2183.36777	0.05155
2181.439	0.04888
2179.51023	0.04831
2177.58146	0.0492
2175.65269	0.04875
2173.72392	0.04735
2171.79515	0.04753
2169.86638	0.04926
2167.93761	0.05067
2166.00884	0.05085
2164.08007	0.0502
2162.1513	0.04793
2160.22253	0.04086
2158.29376	0.03063
2156.36499	0.02563
2154.43622	0.02731
2152.50744	0.03082
2150.57867	0.03393
2148.6499	0.03677
2146.72113	0.03921
2144.79236	0.04046
2142.86359	0.04048
2140.93482	0.04051
2139.00605	0.04105
2137.07728	0.04103
2135.14851	0.04022
2133.21974	0.03977
2131.29097	0.03995
2129.3622	0.04073
2127.43343	0.04202
2125.50466	0.04327
2123.57589	0.04401
2121.64712	0.04502
2119.71835	0.04635
2117.78958	0.04717
2115.86081	0.04743
2113.93204	0.04741
2112.00327	0.04767
2110.0745	0.04841
2108.14573	0.04867
2106.21696	0.04822
2104.28819	0.04765
2102.35942	0.04688
2100.43065	0.04596
2098.50188	0.04507
2096.57311	0.0441
2094.64434	0.04306
2092.71557	0.04268
2090.7868	0.04362
2088.85803	0.04487
2086.92926	0.04493
2085.00049	0.04432
2083.07172	0.04407
2081.14295	0.04433
2079.21418	0.04483
2077.28541	0.04537
2075.35664	0.04571
2073.42787	0.04538
2071.4991	0.04417
2069.57033	0.04277
2067.64156	0.042
2065.71279	0.04219
2063.78402	0.04237
2061.85525	0.04168
2059.92648	0.04055
2057.99771	0.03975
2056.06894	0.03973
2054.14017	0.04098
2052.2114	0.04291
2050.28263	0.04289
2048.35386	0.04018
2046.42509	0.03704
2044.49632	0.0354
2042.56755	0.0353
2040.63878	0.03552
2038.71001	0.03452
2036.78124	0.03197
2034.85247	0.02859
2032.9237	0.02572
2030.99493	0.02491
2029.06616	0.02525
2027.13739	0.02452
2025.20862	0.0234
2023.27985	0.02323
2021.35108	0.02329
2019.42231	0.02268
2017.49354	0.02163
2015.56477	0.02083
2013.636	0.02069
2011.70723	0.02064
2009.77846	0.01975
2007.84969	0.01831
2005.92092	0.01754
2003.99215	0.0178
2002.06338	0.01846
2000.13461	0.01943
1998.20584	0.02068
1996.27707	0.02154
1994.3483	0.02172
1992.41953	0.02135
1990.49076	0.02105
1988.56199	0.02132
1986.63322	0.02213
1984.70445	0.0235
1982.77568	0.02495
1980.8469	0.02482
1978.91813	0.02112
1976.98936	0.01528
1975.06059	0.01099
1973.13182	0.00982
1971.20305	0.01096
1969.27428	0.01316
1967.34551	0.01595
1965.41674	0.01841
1963.48797	0.01953
1961.5592	0.01942
1959.63043	0.01946
1957.70166	0.02078
1955.77289	0.02332
1953.84412	0.02594
1951.91535	0.02734
1949.98658	0.02731
1948.05781	0.02672
1946.12904	0.02621
1944.20027	0.02602
1942.2715	0.02643
1940.34273	0.02715
1938.41396	0.02795
1936.48519	0.02851
1934.55642	0.02875
1932.62765	0.02904
1930.69888	0.02929
1928.77011	0.02941
1926.84134	0.02938
1924.91257	0.02939
1922.9838	0.02979
1921.05503	0.03024
1919.12626	0.0304
1917.19749	0.03049
1915.26872	0.03058
1913.33995	0.03043
1911.41118	0.02996
1909.48241	0.02945
1907.55364	0.02879
1905.62487	0.02804
1903.6961	0.02765
1901.76733	0.02782
1899.83856	0.02811
1897.90979	0.02839
1895.98102	0.02876
1894.05225	0.02872
1892.12348	0.02822
1890.19471	0.02799
1888.26594	0.02855
1886.33717	0.02931
1884.4084	0.02971
1882.47963	0.02956
1880.55086	0.02894
1878.62209	0.02839
1876.69332	0.02824
1874.76455	0.02845
1872.83578	0.02853
1870.90701	0.02842
1868.97824	0.02871
1867.04947	0.02935
1865.1207	0.0294
1863.19193	0.02865
1861.26316	0.02787
1859.33439	0.02756
1857.40562	0.02741
1855.47685	0.02718
1853.54808	0.02695
1851.61931	0.02696
1849.69054	0.02708
1847.76177	0.02717
1845.833	0.02742
1843.90423	0.0279
1841.97546	0.02795
1840.04669	0.0274
1838.11792	0.02717
1836.18915	0.02766
1834.26038	0.0281
1832.33161	0.02795
1830.40284	0.02807
1828.47407	0.02887
1826.5453	0.03007
1824.61653	0.0315
1822.68776	0.03278
1820.75899	0.03362
1818.83022	0.03454
1816.90145	0.03609
1814.97268	0.03832
1813.04391	0.04153
1811.11514	0.04625
1809.18636	0.05236
1807.25759	0.05926
1805.32882	0.06722
1803.40005	0.07753
1801.47128	0.09128
1799.54251	0.10728
1797.61374	0.12317
1795.68497	0.13854
1793.7562	0.15605
1791.82743	0.17602
1789.89866	0.19286
1787.96989	0.20387
1786.04112	0.21196
1784.11235	0.21842
1782.18358	0.22251
1780.25481	0.22422
1778.32604	0.22379
1776.39727	0.22111
1774.4685	0.21676
1772.53973	0.21174
1770.61096	0.20711
1768.68219	0.20304
1766.75342	0.19984
1764.82465	0.1987
1762.89588	0.20097
1760.96711	0.20644
1759.03834	0.21318
1757.10957	0.22
1755.1808	0.22563
1753.25203	0.22893
1751.32326	0.23
1749.39449	0.22843
1747.46572	0.2238
1745.53695	0.21708
1743.60818	0.20913
1741.67941	0.20022
1739.75064	0.19104
1737.82187	0.18242
1735.8931	0.17376
1733.96433	0.16382
1732.03556	0.15381
1730.10679	0.14487
1728.17802	0.1366
1726.24925	0.12885
1724.32048	0.12157
1722.39171	0.11469
1720.46294	0.10824
1718.53417	0.10199
1716.6054	0.09602
1714.67663	0.09092
1712.74786	0.08657
1710.81909	0.08282
1708.89032	0.07986
1706.96155	0.07832
1705.03278	0.07837
1703.10401	0.07929
1701.17524	0.08175
1699.24647	0.08699
1697.3177	0.09432
1695.38893	0.10241
1693.46016	0.10915
1691.53139	0.1149
1689.60262	0.121
1687.67385	0.12687
1685.74508	0.13381
1683.81631	0.14419
1681.88754	0.15315
1679.95877	0.15728
1678.03	0.15914
1676.10123	0.16121
1674.17246	0.16356
1672.24369	0.16523
1670.31492	0.16698
1668.38615	0.16893
1666.45738	0.16957
1664.52861	0.16938
1662.59984	0.17037
1660.67107	0.17252
1658.7423	0.17427
1656.81353	0.17547
1654.88476	0.17872
1652.95599	0.1857
1651.02722	0.19157
1649.09845	0.19506
1647.16968	0.20145
1645.24091	0.21044
1643.31214	0.21718
1641.38337	0.22075
1639.4546	0.22155
1637.52583	0.21923
1635.59705	0.2146
1633.66828	0.2099
1631.73951	0.20551
1629.81074	0.20033
1627.88197	0.19372
1625.9532	0.18573
1624.02443	0.17604
1622.09566	0.16543
1620.16689	0.15566
1618.23812	0.14581
1616.30935	0.13508
1614.38058	0.12594
1612.45181	0.11882
1610.52304	0.11202
1608.59427	0.1049
1606.6655	0.09798
1604.73673	0.09149
1602.80796	0.08548
1600.87919	0.0801
1598.95042	0.07544
1597.02165	0.07153
1595.09288	0.06833
1593.16411	0.066
1591.23534	0.06442
1589.30657	0.06328
1587.3778	0.06246
1585.44903	0.06175
1583.52026	0.06113
1581.59149	0.06034
1579.66272	0.0592
1577.73395	0.05862
1575.80518	0.05958
1573.87641	0.06097
1571.94764	0.06165
1570.01887	0.06281
1568.0901	0.06483
1566.16133	0.06651
1564.23256	0.06719
1562.30379	0.06708
1560.37502	0.06839
1558.44625	0.07394
1556.51748	0.08025
1554.58871	0.08429
1552.65994	0.08799
1550.73117	0.09259
1548.8024	0.09758
1546.87363	0.10187
1544.94486	0.10564
1543.01609	0.11
1541.08732	0.11639
1539.15855	0.12404
1537.22978	0.12793
1535.30101	0.12809
1533.37224	0.12691
1531.44347	0.12502
1529.5147	0.12178
1527.58593	0.11688
1525.65716	0.11039
1523.72839	0.10295
1521.79962	0.09504
1519.87085	0.08776
1517.94208	0.08148
1516.01331	0.07574
1514.08454	0.0708
1512.15577	0.06653
1510.227	0.06222
1508.29823	0.05716
1506.36946	0.05198
1504.44069	0.04858
1502.51192	0.04622
1500.58315	0.04389
1498.65438	0.04188
1496.72561	0.04074
1494.79684	0.04023
1492.86807	0.03992
1490.9393	0.04108
1489.01053	0.04504
1487.08176	0.05071
1485.15299	0.0565
1483.22422	0.06206
1481.29545	0.06662
1479.36668	0.06908
1477.43791	0.06952
1475.50914	0.06957
1473.58037	0.0712
1471.6516	0.07493
1469.72283	0.0791
1467.79406	0.08441
1465.86529	0.09397
1463.93651	0.10704
1462.00774	0.11762
1460.07897	0.1231
1458.1502	0.12516
1456.22143	0.1262
1454.29266	0.12847
1452.36389	0.13231
1450.43512	0.13513
1448.50635	0.13364
1446.57758	0.12858
1444.64881	0.12387
1442.72004	0.12146
1440.79127	0.12072
1438.8625	0.12077
1436.93373	0.12121
1435.00496	0.12146
1433.07619	0.12115
1431.14742	0.12112
1429.21865	0.12231
1427.28988	0.12462
1425.36111	0.12763
1423.43234	0.13129
1421.50357	0.13581
1419.5748	0.14263
1417.64603	0.15182
1415.71726	0.16086
1413.78849	0.16993
1411.85972	0.17972
1409.93095	0.18844
1408.00218	0.19435
1406.07341	0.19832
1404.14464	0.20055
1402.21587	0.19921
1400.2871	0.19363
1398.35833	0.18572
1396.42956	0.17816
1394.50079	0.17207
1392.57202	0.16848
1390.64325	0.16892
1388.71448	0.17372
1386.78571	0.17943
1384.85694	0.18126
1382.92817	0.17945
1380.9994	0.17755
1379.07063	0.1778
1377.14186	0.1809
1375.21309	0.187
1373.28432	0.19545
1371.35555	0.20512
1369.42678	0.21665
1367.49801	0.22945
1365.56924	0.23801
1363.64047	0.23509
1361.7117	0.21878
1359.78293	0.19669
1357.85416	0.17753
1355.92539	0.16427
1353.99662	0.15692
1352.06785	0.15471
1350.13908	0.15713
1348.21031	0.16363
1346.28154	0.17306
1344.35277	0.18297
1342.424	0.19058
1340.49523	0.19372
1338.56646	0.19286
1336.63769	0.1912
1334.70892	0.19113
1332.78015	0.19244
1330.85138	0.19408
1328.92261	0.19563
1326.99384	0.19603
1325.06507	0.1937
1323.1363	0.18761
1321.20753	0.17804
1319.27876	0.16648
1317.34999	0.15536
1315.42122	0.14642
1313.49245	0.14021
1311.56368	0.13693
1309.63491	0.1367
1307.70614	0.13909
1305.77737	0.14266
1303.8486	0.14429
1301.91983	0.14113
1299.99106	0.13389
1298.06229	0.12555
1296.13352	0.11763
1294.20475	0.11103
1292.27597	0.10787
1290.3472	0.1095
1288.41843	0.11398
1286.48966	0.1172
1284.56089	0.11701
1282.63212	0.1144
1280.70335	0.11037
1278.77458	0.10444
1276.84581	0.09633
1274.91704	0.08699
1272.98827	0.07757
1271.0595	0.06891
1269.13073	0.06183
1267.20196	0.05669
1265.27319	0.05349
1263.34442	0.05215
1261.41565	0.05275
1259.48688	0.05502
1257.55811	0.05859
1255.62934	0.06323
1253.70057	0.06894
1251.7718	0.07544
1249.84303	0.08191
1247.91426	0.0871
1245.98549	0.0906
1244.05672	0.0925
1242.12795	0.09231
1240.19918	0.08856
1238.27041	0.08136
1236.34164	0.07317
1234.41287	0.06629
1232.4841	0.06182
1230.55533	0.05981
1228.62656	0.0601
1226.69779	0.06224
1224.76902	0.06534
1222.84025	0.06788
1220.91148	0.06821
1218.98271	0.06564
1217.05394	0.06094
1215.12517	0.05548
1213.1964	0.04998
1211.26763	0.0446
1209.33886	0.04026
1207.41009	0.03836
1205.48132	0.0392
1203.55255	0.04127
1201.62378	0.04152
1199.69501	0.03776
1197.76624	0.03128
1195.83747	0.02503
1193.9087	0.02052
1191.97993	0.01744
1190.05116	0.01531
1188.12239	0.01425
1186.19362	0.01414
1184.26485	0.0145
1182.33608	0.0151
1180.40731	0.01601
1178.47854	0.01781
1176.54977	0.0214
1174.621	0.02828
1172.69223	0.04038
1170.76346	0.05961
1168.83469	0.08791
1166.90592	0.12761
1164.97715	0.18189
1163.04838	0.25399
1161.11961	0.34303
1159.19084	0.43711
1157.26207	0.51201
1155.3333	0.54799
1153.40453	0.5458
1151.47576	0.51878
1149.54699	0.47798
1147.61822	0.43084
1145.68945	0.38374
1143.76068	0.34115
1141.83191	0.30669
1139.90314	0.28236
1137.97437	0.26571
1136.0456	0.25251
1134.11683	0.24149
1132.18806	0.23434
1130.25929	0.23152
1128.33052	0.22917
1126.40175	0.22258
1124.47298	0.21112
1122.54421	0.1978
1120.61544	0.18582
1118.68666	0.17769
1116.75789	0.17443
1114.82912	0.17588
1112.90035	0.18208
1110.97158	0.19339
1109.04281	0.2068
1107.11404	0.21621
1105.18527	0.2213
1103.2565	0.22968
1101.32773	0.2465
1099.39896	0.26977
1097.47019	0.29439
1095.54142	0.31191
1093.61265	0.31372
1091.68388	0.3025
1089.75511	0.29397
1087.82634	0.30049
1085.89757	0.32079
1083.9688	0.34798
1082.04003	0.37941
1080.11126	0.41539
1078.18249	0.4503
1076.25372	0.46688
1074.32495	0.44833
1072.39618	0.39747
1070.46741	0.33619
1068.53864	0.28992
1066.60987	0.27747
1064.6811	0.30783
1062.75233	0.37854
1060.82356	0.46929
1058.89479	0.54384
1056.96602	0.57151
1055.03725	0.55118
1053.10848	0.51267
1051.17971	0.49131
1049.25094	0.50433
1047.32217	0.55199
1045.3934	0.62365
1043.46463	0.69515
1041.53586	0.74381
1039.60709	0.77286
1037.67832	0.79961
1035.74955	0.83013
1033.82078	0.86064
1031.89201	0.88914
1029.96324	0.91835
1028.03447	0.95247
1026.1057	0.9858
1024.17693	1
1022.24816	0.98486
1020.31939	0.94881
1018.39062	0.90278
1016.46185	0.85342
1014.53308	0.81064
1012.60431	0.78215
1010.67554	0.76337
1008.74677	0.74395
1006.818	0.72564
1004.88923	0.72376
1002.96046	0.74842
1001.03169	0.79077
999.10292	0.82501
997.17415	0.82646
995.24538	0.7918
993.31661	0.73674
991.38784	0.67669
989.45907	0.61878
987.5303	0.56483
985.60153	0.5148
983.67276	0.46798
981.74399	0.42369
979.81522	0.38202
977.88645	0.34395
975.95768	0.31019
974.02891	0.2808
972.10014	0.25552
970.17137	0.2336
968.2426	0.21438
966.31383	0.19746
964.38506	0.18283
962.45629	0.17129
960.52752	0.16474
958.59875	0.16718
956.66998	0.18293
954.74121	0.20885
952.81244	0.22844
950.88367	0.2253
948.9549	0.20291
947.02612	0.17929
945.09735	0.16771
943.16858	0.16932
941.23981	0.1764
939.31104	0.17812
937.38227	0.16856
935.4535	0.14994
933.52473	0.12878
931.59596	0.11114
929.66719	0.0998
927.73842	0.09353
925.80965	0.0888
923.88088	0.08372
921.95211	0.07859
920.02334	0.07276
918.09457	0.06553
916.1658	0.05847
914.23703	0.05311
912.30826	0.04862
910.37949	0.04421
908.45072	0.0413
906.52195	0.04121
904.59318	0.04219
902.66441	0.04063
900.73564	0.03503
898.80687	0.02717
896.8781	0.01999
894.94933	0.01514
893.02056	0.01251
891.09179	0.01099
889.16302	0.00963
887.23425	0.00807
885.30548	0.00636
883.37671	0.005
881.44794	0.00435
879.51917	0.00405
877.5904	0.00408
875.66163	0.00501
873.73286	0.00837
871.80409	0.01591
869.87532	0.02901
867.94655	0.04507
866.01778	0.0563
864.08901	0.05724
862.16024	0.05104
860.23147	0.04517
858.3027	0.04341
856.37393	0.04466
854.44516	0.04532
852.51639	0.0438
850.58762	0.04299
848.65885	0.04642
846.73008	0.05298
844.80131	0.05867
842.87254	0.06107
840.94377	0.06011
839.015	0.05661
837.08623	0.05144
835.15746	0.04533
833.22869	0.0393
831.29992	0.03417
829.37115	0.02996
827.44238	0.02646
825.51361	0.02395
823.58484	0.02267
821.65607	0.02269
819.7273	0.02359
817.79853	0.02484
815.86976	0.02621
813.94099	0.02754
812.01222	0.02864
810.08345	0.02926
808.15468	0.02892
806.22591	0.0276
804.29714	0.02565
802.36837	0.02345
800.4396	0.02142
798.51083	0.01931
796.58206	0.01711
794.65329	0.01544
792.72452	0.01495
790.79575	0.01588
788.86698	0.01792
786.93821	0.02048
785.00944	0.02261
783.08067	0.02386
781.1519	0.0248
779.22313	0.02644
777.29436	0.029
775.36558	0.03235
773.43681	0.03634
771.50804	0.04119
769.57927	0.04759
767.6505	0.05692
765.72173	0.07037
763.79296	0.08656
761.86419	0.09957
759.93542	0.10185
758.00665	0.09205
756.07788	0.07759
754.14911	0.06692
752.22034	0.06251
750.29157	0.06186
748.3628	0.06149
746.43403	0.05965
744.50526	0.05686
742.57649	0.05451
740.64772	0.05351
738.71895	0.05373
736.79018	0.05471
734.86141	0.05627
732.93264	0.0586
731.00387	0.06159
729.0751	0.06526
727.14633	0.06956
725.21756	0.07485
723.28879	0.08224
721.36002	0.09133
719.43125	0.10308
717.50248	0.11803
715.57371	0.13556
713.64494	0.15289
711.71617	0.16539
709.7874	0.1689
707.85863	0.16322
705.92986	0.15224
704.00109	0.14062
702.07232	0.13114
700.14355	0.12432
698.21478	0.11971
696.28601	0.11684
694.35724	0.11512
692.42847	0.11384
690.4997	0.1128
688.57093	0.11195
686.64216	0.11126
684.71339	0.11042
682.78462	0.10945
680.85585	0.10856
678.92708	0.10792
676.99831	0.1075
675.06954	0.10666
673.14077	0.103
671.212	0.09645
669.28323	0.09596
667.35446	0.09539
665.42569	0.08599
663.49692	0.08558
661.56815	0.0856
659.63938	0.08365
657.71061	0.08213
655.78184	0.08192
653.85307	0.08281
651.9243	0.08403
649.99553	0.08433
648.06676	0.08289
646.13799	0.0803
644.20922	0.07747
642.28045	0.07488
640.35168	0.07269
638.42291	0.07069
636.49414	0.06866
634.56537	0.06663
632.6366	0.06483
630.70783	0.06311
628.77906	0.06147
626.85029	0.05995
624.92152	0.05946
622.99275	0.06048
621.06398	0.06359
619.13521	0.06916
617.20644	0.07639
615.27767	0.0835
613.3489	0.09074
611.42013	0.09999
609.49136	0.11233
607.56259	0.12681
605.63382	0.13982
603.70505	0.14646
601.77627	0.14498
599.8475	0.13795
597.91873	0.12879
595.98996	0.11975
594.06119	0.11177
592.13242	0.10558
590.20365	0.10188
588.27488	0.10143
586.34611	0.10656
584.41734	0.12057
582.48857	0.14316
580.5598	0.16679
578.63103	0.18361
576.70226	0.19709
574.77349	0.2168
572.84472	0.24332
570.91595	0.26651
568.98718	0.27489
567.05841	0.26382
565.12964	0.23815
563.20087	0.20645
561.2721	0.17626
559.34333	0.15178
557.41456	0.13323
555.48579	0.11896
553.55702	0.1075
551.62825	0.09834
549.69948	0.09076
547.77071	0.08413
545.84194	0.07845
543.91317	0.07424
541.9844	0.07288
540.05563	0.07615
538.12686	0.08489
536.19809	0.09628
534.26932	0.10481
532.34055	0.10809
530.41178	0.10946
528.48301	0.11376
526.55424	0.1217
524.62547	0.12838
522.6967	0.12888
520.76793	0.12324
518.83916	0.11408
516.91039	0.10417
514.98162	0.09579
513.05285	0.08933
511.12408	0.084
509.19531	0.07959
507.26654	0.07629
505.33777	0.07418
503.409	0.07278
501.48023	0.07146
499.55146	0.0699
497.62269	0.06798
495.69392	0.06662
493.76515	0.06736
491.83638	0.07114
489.90761	0.07707
487.97884	0.08331
486.05007	0.08793
484.1213	0.08878
482.19253	0.08485
480.26376	0.07735
478.33499	0.06878
476.40622	0.06061
474.47745	0.05259
472.54868	0.04418
470.61991	0.03728
468.69114	0.03425
466.76237	0.03527
464.8336	0.03838
462.90483	0.0411
460.97606	0.04231
459.04729	0.0444
457.11852	0.05092
455.18975	0.06203
453.26098	0.07393
451.33221	0.08204
449.40344	0.08317
447.47467	0.07749
445.5459	0.06678
443.61713	0.05303
441.68836	0.03935
439.75959	0.02952
437.83082	0.0253
435.90205	0.02517
433.97328	0.02539
432.04451	0.023
430.11573	0.01823
428.18696	0.01307
426.25819	0.00926
424.32942	0.00841
422.40065	0.01267
420.47188	0.02545
418.54311	0.04638
416.61434	0.0622
414.68557	0.06362
412.7568	0.05382
410.82803	0.03951
408.89926	0.02746
406.97049	0.02182
405.04172	0.02164
403.11295	0.02226
401.18418	0.02011
399.25541	0.01538