3996.41167	0.01095
3994.4829	0.01105
3992.55413	0.01068
3990.62536	0.01
3988.69659	0.00948
3986.76782	0.00935
3984.83905	0.0098
3982.91028	0.01036
3980.98151	0.01038
3979.05274	0.01009
3977.12397	0.01027
3975.1952	0.01099
3973.26643	0.01151
3971.33766	0.01138
3969.40889	0.0107
3967.48012	0.00995
3965.55135	0.01024
3963.62258	0.01181
3961.69381	0.01296
3959.76504	0.01232
3957.83627	0.01095
3955.9075	0.01019
3953.97873	0.01052
3952.04996	0.01214
3950.12119	0.01452
3948.19242	0.01575
3946.26365	0.01511
3944.33488	0.01455
3942.40611	0.01449
3940.47734	0.0132
3938.54857	0.01108
3936.6198	0.01006
3934.69103	0.01097
3932.76226	0.01309
3930.83349	0.01365
3928.90472	0.012
3926.97595	0.01121
3925.04718	0.0129
3923.11841	0.0142
3921.18964	0.01333
3919.26087	0.0125
3917.3321	0.01268
3915.40333	0.01188
3913.47456	0.00996
3911.54579	0.00828
3909.61702	0.00702
3907.68825	0.00681
3905.75948	0.01009
3903.83071	0.01635
3901.90194	0.0201
3899.97317	0.01938
3898.0444	0.01646
3896.11563	0.01279
3894.18686	0.01014
3892.25809	0.01039
3890.32932	0.01123
3888.40055	0.01051
3886.47178	0.01096
3884.54301	0.01331
3882.61424	0.01461
3880.68547	0.01471
3878.7567	0.01306
3876.82792	0.00983
3874.89915	0.00865
3872.97038	0.01134
3871.04161	0.01524
3869.11284	0.01686
3867.18407	0.01505
3865.2553	0.01356
3863.32653	0.01471
3861.39776	0.01512
3859.46899	0.012
3857.54022	0.00636
3855.61145	0.00308
3853.68268	0.00814
3851.75391	0.01554
3849.82514	0.01594
3847.89637	0.01205
3845.9676	0.00901
3844.03883	0.00841
3842.11006	0.00882
3840.18129	0.00934
3838.25252	0.01037
3836.32375	0.01066
3834.39498	0.00964
3832.46621	0.00912
3830.53744	0.00949
3828.60867	0.00959
3826.6799	0.00856
3824.75113	0.00606
3822.82236	0.00457
3820.89359	0.00758
3818.96482	0.01086
3817.03605	0.01076
3815.10728	0.01016
3813.17851	0.00921
3811.24974	0.00636
3809.32097	0.00328
3807.3922	0.00272
3805.46343	0.00352
3803.53466	0.00327
3801.60589	0.00403
3799.67712	0.00611
3797.74835	0.00725
3795.81958	0.00758
3793.89081	0.00726
3791.96204	0.00627
3790.03327	0.00547
3788.1045	0.00538
3786.17573	0.00563
3784.24696	0.00589
3782.31819	0.00583
3780.38942	0.00636
3778.46065	0.00743
3776.53188	0.00721
3774.60311	0.00553
3772.67434	0.00435
3770.74557	0.00518
3768.8168	0.00691
3766.88803	0.00755
3764.95926	0.00676
3763.03049	0.005
3761.10172	0.00432
3759.17295	0.00659
3757.24418	0.00882
3755.31541	0.0076
3753.38664	0.00623
3751.45787	0.01094
3749.5291	0.01894
3747.60033	0.02143
3745.67156	0.02098
3743.74279	0.02134
3741.81402	0.01949
3739.88525	0.01655
3737.95648	0.0173
3736.02771	0.02243
3734.09894	0.02558
3732.17017	0.02388
3730.2414	0.02215
3728.31263	0.02293
3726.38386	0.02516
3724.45509	0.02664
3722.52632	0.02556
3720.59755	0.02398
3718.66878	0.0219
3716.74001	0.02036
3714.81124	0.01816
3712.88247	0.01608
3710.9537	0.02093
3709.02493	0.02525
3707.09616	0.02452
3705.16739	0.02116
3703.23861	0.01997
3701.30984	0.02308
3699.38107	0.0272
3697.4523	0.02973
3695.52353	0.0311
3693.59476	0.03107
3691.66599	0.03295
3689.73722	0.03765
3687.80845	0.04293
3685.87968	0.0445
3683.95091	0.04377
3682.02214	0.04258
3680.09337	0.04251
3678.1646	0.04446
3676.23583	0.05064
3674.30706	0.05798
3672.37829	0.06202
3670.44952	0.06556
3668.52075	0.06879
3666.59198	0.06904
3664.66321	0.06897
3662.73444	0.07069
3660.80567	0.07267
3658.8769	0.0742
3656.94813	0.07661
3655.01936	0.07806
3653.09059	0.0769
3651.16182	0.08075
3649.23305	0.09477
3647.30428	0.10502
3645.37551	0.10448
3643.44674	0.10143
3641.51797	0.10113
3639.5892	0.10242
3637.66043	0.10453
3635.73166	0.10764
3633.80289	0.11048
3631.87412	0.11328
3629.94535	0.12062
3628.01658	0.13149
3626.08781	0.13503
3624.15904	0.13268
3622.23027	0.13188
3620.3015	0.13732
3618.37273	0.14776
3616.44396	0.15607
3614.51519	0.16186
3612.58642	0.16575
3610.65765	0.1677
3608.72888	0.1724
3606.80011	0.17811
3604.87134	0.18057
3602.94257	0.18252
3601.0138	0.18672
3599.08503	0.19301
3597.15626	0.19977
3595.22749	0.20727
3593.29872	0.21224
3591.36995	0.21559
3589.44118	0.2211
3587.51241	0.23174
3585.58364	0.24009
3583.65487	0.24301
3581.7261	0.24519
3579.79733	0.24955
3577.86856	0.25542
3575.93979	0.26237
3574.01102	0.26967
3572.08225	0.2762
3570.15348	0.28323
3568.22471	0.29507
3566.29594	0.30927
3564.36717	0.31743
3562.4384	0.32023
3560.50963	0.32284
3558.58086	0.32634
3556.65209	0.3307
3554.72332	0.33684
3552.79455	0.3446
3550.86578	0.35225
3548.93701	0.35975
3547.00824	0.36903
3545.07947	0.3782
3543.1507	0.38329
3541.22193	0.3857
3539.29316	0.38947
3537.36439	0.39592
3535.43562	0.40288
3533.50685	0.40859
3531.57807	0.41434
3529.6493	0.42211
3527.72053	0.43154
3525.79176	0.44059
3523.86299	0.44809
3521.93422	0.45399
3520.00545	0.45866
3518.07668	0.46317
3516.14791	0.46822
3514.21914	0.4742
3512.29037	0.48154
3510.3616	0.48978
3508.43283	0.49704
3506.50406	0.50314
3504.57529	0.51052
3502.64652	0.51918
3500.71775	0.5259
3498.78898	0.53076
3496.86021	0.53678
3494.93144	0.54439
3493.00267	0.55142
3491.0739	0.55756
3489.14513	0.56467
3487.21636	0.57306
3485.28759	0.58117
3483.35882	0.58894
3481.43005	0.5971
3479.50128	0.60421
3477.57251	0.61031
3475.64374	0.61738
3473.71497	0.62507
3471.7862	0.63101
3469.85743	0.63606
3467.92866	0.64309
3465.99989	0.65257
3464.07112	0.66247
3462.14235	0.67093
3460.21358	0.67773
3458.28481	0.68372
3456.35604	0.68993
3454.42727	0.69665
3452.4985	0.70333
3450.56973	0.70986
3448.64096	0.71763
3446.71219	0.72675
3444.78342	0.73468
3442.85465	0.7407
3440.92588	0.74633
3438.99711	0.75162
3437.06834	0.75683
3435.13957	0.76254
3433.2108	0.76895
3431.28203	0.77609
3429.35326	0.78378
3427.42449	0.79144
3425.49572	0.79854
3423.56695	0.80534
3421.63818	0.81202
3419.70941	0.81855
3417.78064	0.82446
3415.85187	0.83009
3413.9231	0.83545
3411.99433	0.84016
3410.06556	0.84498
3408.13679	0.85119
3406.20802	0.8583
3404.27925	0.86467
3402.35048	0.87
3400.42171	0.87509
3398.49294	0.88061
3396.56417	0.88589
3394.6354	0.89079
3392.70663	0.89619
3390.77786	0.90175
3388.84909	0.90649
3386.92032	0.91127
3384.99155	0.91667
3383.06278	0.92192
3381.13401	0.92666
3379.20524	0.93129
3377.27647	0.93587
3375.3477	0.94023
3373.41893	0.94381
3371.49016	0.94642
3369.56139	0.94887
3367.63262	0.95195
3365.70385	0.95607
3363.77508	0.96058
3361.84631	0.96435
3359.91753	0.9675
3357.98876	0.97092
3356.05999	0.97446
3354.13122	0.97719
3352.20245	0.97898
3350.27368	0.98082
3348.34491	0.98323
3346.41614	0.98576
3344.48737	0.98764
3342.5586	0.989
3340.62983	0.99006
3338.70106	0.99128
3336.77229	0.99315
3334.84352	0.9949
3332.91475	0.99619
3330.98598	0.99725
3329.05721	0.99753
3327.12844	0.99727
3325.19967	0.99755
3323.2709	0.99834
3321.34213	0.99905
3319.41336	0.9996
3317.48459	1
3315.55582	0.9997
3313.62705	0.99878
3311.69828	0.99817
3309.76951	0.99791
3307.84074	0.99718
3305.91197	0.99576
3303.9832	0.9946
3302.05443	0.99411
3300.12566	0.99346
3298.19689	0.99196
3296.26812	0.99042
3294.33935	0.98977
3292.41058	0.98962
3290.48181	0.98894
3288.55304	0.98728
3286.62427	0.98523
3284.6955	0.98373
3282.76673	0.98269
3280.83796	0.98174
3278.90919	0.98035
3276.98042	0.97823
3275.05165	0.97568
3273.12288	0.97336
3271.19411	0.9712
3269.26534	0.96888
3267.33657	0.96653
3265.4078	0.96436
3263.47903	0.96209
3261.55026	0.95923
3259.62149	0.9559
3257.69272	0.95265
3255.76395	0.9496
3253.83518	0.94662
3251.90641	0.94361
3249.97764	0.94013
3248.04887	0.93618
3246.1201	0.93259
3244.19133	0.92973
3242.26256	0.92663
3240.33379	0.92265
3238.40502	0.91789
3236.47625	0.91262
3234.54748	0.90732
3232.61871	0.90279
3230.68994	0.89896
3228.76117	0.89463
3226.8324	0.88948
3224.90363	0.88399
3222.97486	0.87841
3221.04609	0.8728
3219.11732	0.86734
3217.18855	0.86161
3215.25978	0.85557
3213.33101	0.84984
3211.40224	0.84442
3209.47347	0.83857
3207.5447	0.83214
3205.61593	0.82525
3203.68716	0.81828
3201.75839	0.81174
3199.82962	0.80558
3197.90085	0.79962
3195.97208	0.79354
3194.04331	0.78688
3192.11454	0.77948
3190.18577	0.77162
3188.257	0.7643
3186.32822	0.75775
3184.39945	0.75121
3182.47068	0.74431
3180.54191	0.7375
3178.61314	0.73056
3176.68437	0.72297
3174.7556	0.71526
3172.82683	0.70787
3170.89806	0.70016
3168.96929	0.69206
3167.04052	0.68432
3165.11175	0.677
3163.18298	0.6696
3161.25421	0.66208
3159.32544	0.65488
3157.39667	0.64803
3155.4679	0.64094
3153.53913	0.63331
3151.61036	0.62521
3149.68159	0.61723
3147.75282	0.6098
3145.82405	0.60275
3143.89528	0.59539
3141.96651	0.58741
3140.03774	0.5797
3138.10897	0.57277
3136.1802	0.56599
3134.25143	0.55914
3132.32266	0.55217
3130.39389	0.54504
3128.46512	0.53772
3126.53635	0.53083
3124.60758	0.52444
3122.67881	0.51793
3120.75004	0.51092
3118.82127	0.50376
3116.8925	0.49682
3114.96373	0.48989
3113.03496	0.48276
3111.10619	0.47579
3109.17742	0.46929
3107.24865	0.4629
3105.31988	0.45635
3103.39111	0.44981
3101.46234	0.44369
3099.53357	0.43812
3097.6048	0.4325
3095.67603	0.42662
3093.74726	0.42038
3091.81849	0.41399
3089.88972	0.40784
3087.96095	0.40184
3086.03218	0.39595
3084.10341	0.39026
3082.17464	0.38476
3080.24587	0.37911
3078.3171	0.37334
3076.38833	0.36769
3074.45956	0.36208
3072.53079	0.3567
3070.60202	0.35186
3068.67325	0.34729
3066.74448	0.34257
3064.81571	0.33762
3062.88694	0.3327
3060.95817	0.32782
3059.0294	0.32306
3057.10063	0.31869
3055.17186	0.3144
3053.24309	0.30991
3051.31432	0.30546
3049.38555	0.30136
3047.45678	0.2976
3045.52801	0.29408
3043.59924	0.2908
3041.67047	0.28751
3039.7417	0.28407
3037.81293	0.2809
3035.88416	0.2782
3033.95539	0.27549
3032.02662	0.27283
3030.09785	0.27059
3028.16908	0.26893
3026.24031	0.2677
3024.31154	0.26662
3022.38277	0.26582
3020.454	0.26529
3018.52523	0.2651
3016.59646	0.26535
3014.66768	0.26594
3012.73891	0.26672
3010.81014	0.26778
3008.88137	0.26892
3006.9526	0.26997
3005.02383	0.27111
3003.09506	0.27255
3001.16629	0.27443
2999.23752	0.27642
2997.30875	0.27844
2995.37998	0.28016
2993.45121	0.28242
2991.52244	0.28736
2989.59367	0.29357
2987.6649	0.29676
2985.73613	0.29639
2983.80736	0.29546
2981.87859	0.29598
2979.94982	0.29758
2978.02105	0.29937
2976.09228	0.30125
2974.16351	0.30335
2972.23474	0.30487
2970.30597	0.30473
2968.3772	0.30334
2966.44843	0.30192
2964.51966	0.30154
2962.59089	0.30334
2960.66212	0.30765
2958.73335	0.31367
2956.80458	0.32043
2954.87581	0.3275
2952.94704	0.33461
2951.01827	0.34187
2949.0895	0.34987
2947.16073	0.359
2945.23196	0.3689
2943.30319	0.37818
2941.37442	0.38607
2939.44565	0.39329
2937.51688	0.4002
2935.58811	0.40658
2933.65934	0.4124
2931.73057	0.41777
2929.8018	0.42231
2927.87303	0.42554
2925.94426	0.42726
2924.01549	0.42723
2922.08672	0.42542
2920.15795	0.42206
2918.22918	0.4178
2916.30041	0.41385
2914.37164	0.41065
2912.44287	0.40709
2910.5141	0.40182
2908.58533	0.39551
2906.65656	0.38974
2904.72779	0.38525
2902.79902	0.38174
2900.87025	0.37709
2898.94148	0.36989
2897.01271	0.36226
2895.08394	0.35583
2893.15517	0.34983
2891.2264	0.34363
2889.29763	0.33775
2887.36886	0.33264
2885.44009	0.32784
2883.51132	0.32261
2881.58255	0.31665
2879.65378	0.31042
2877.72501	0.30461
2875.79624	0.2995
2873.86747	0.29478
2871.9387	0.28967
2870.00993	0.28405
2868.08116	0.27829
2866.15239	0.27232
2864.22362	0.26628
2862.29485	0.26067
2860.36608	0.2554
2858.43731	0.24983
2856.50854	0.24422
2854.57977	0.23911
2852.651	0.23462
2850.72223	0.23075
2848.79346	0.22704
2846.86469	0.22282
2844.93592	0.21833
2843.00714	0.21454
2841.07837	0.21176
2839.1496	0.20882
2837.22083	0.20507
2835.29206	0.20124
2833.36329	0.19772
2831.43452	0.19412
2829.50575	0.19057
2827.57698	0.18755
2825.64821	0.18527
2823.71944	0.18319
2821.79067	0.18087
2819.8619	0.17871
2817.93313	0.17666
2816.00436	0.17446
2814.07559	0.17242
2812.14682	0.17053
2810.21805	0.16829
2808.28928	0.16582
2806.36051	0.16385
2804.43174	0.16239
2802.50297	0.161
2800.5742	0.15981
2798.64543	0.15877
2796.71666	0.1575
2794.78789	0.15588
2792.85912	0.15446
2790.93035	0.15334
2789.00158	0.15211
2787.07281	0.15065
2785.14404	0.14919
2783.21527	0.148
2781.2865	0.14696
2779.35773	0.14608
2777.42896	0.14558
2775.50019	0.14524
2773.57142	0.14452
2771.64265	0.1434
2769.71388	0.14233
2767.78511	0.14164
2765.85634	0.14095
2763.92757	0.13988
2761.9988	0.13899
2760.07003	0.13862
2758.14126	0.13828
2756.21249	0.13759
2754.28372	0.13694
2752.35495	0.1366
2750.42618	0.13646
2748.49741	0.136
2746.56864	0.13504
2744.63987	0.13389
2742.7111	0.13293
2740.78233	0.13224
2738.85356	0.1316
2736.92479	0.13056
2734.99602	0.12921
2733.06725	0.12817
2731.13848	0.12753
2729.20971	0.12699
2727.28094	0.12642
2725.35217	0.12542
2723.4234	0.12419
2721.49463	0.12304
2719.56586	0.12185
2717.63709	0.12058
2715.70832	0.11946
2713.77955	0.11854
2711.85078	0.11789
2709.92201	0.11725
2707.99324	0.11644
2706.06447	0.11564
2704.1357	0.11495
2702.20693	0.11446
2700.27816	0.11404
2698.34939	0.11339
2696.42062	0.11259
2694.49185	0.11178
2692.56308	0.11125
2690.63431	0.11079
2688.70554	0.11007
2686.77677	0.10934
2684.848	0.10912
2682.91923	0.10936
2680.99046	0.10933
2679.06169	0.10868
2677.13292	0.10773
2675.20415	0.10673
2673.27538	0.10569
2671.34661	0.1045
2669.41783	0.10315
2667.48906	0.10208
2665.56029	0.10139
2663.63152	0.10066
2661.70275	0.09939
2659.77398	0.09781
2657.84521	0.09639
2655.91644	0.09523
2653.98767	0.09424
2652.0589	0.0932
2650.13013	0.09201
2648.20136	0.09089
2646.27259	0.08986
2644.34382	0.08866
2642.41505	0.08708
2640.48628	0.08562
2638.55751	0.08455
2636.62874	0.08347
2634.69997	0.08204
2632.7712	0.08058
2630.84243	0.07947
2628.91366	0.07866
2626.98489	0.07805
2625.05612	0.07744
2623.12735	0.07652
2621.19858	0.07525
2619.26981	0.07402
2617.34104	0.07314
2615.41227	0.07226
2613.4835	0.07118
2611.55473	0.07022
2609.62596	0.06961
2607.69719	0.069
2605.76842	0.06816
2603.83965	0.06708
2601.91088	0.06613
2599.98211	0.06602
2598.05334	0.0663
2596.12457	0.06604
2594.1958	0.06531
2592.26703	0.0647
2590.33826	0.06429
2588.40949	0.06379
2586.48072	0.06342
2584.55195	0.06327
2582.62318	0.06313
2580.69441	0.06263
2578.76564	0.06187
2576.83687	0.06126
2574.9081	0.06088
2572.97933	0.06058
2571.05056	0.06036
2569.12179	0.06021
2567.19302	0.06011
2565.26425	0.06
2563.33548	0.05966
2561.40671	0.05917
2559.47794	0.05887
2557.54917	0.05892
2555.6204	0.05916
2553.69163	0.05902
2551.76286	0.05802
2549.83409	0.05718
2547.90532	0.05719
2545.97655	0.05758
2544.04778	0.05759
2542.11901	0.05691
2540.19024	0.05618
2538.26147	0.05611
2536.3327	0.05643
2534.40393	0.05648
2532.47516	0.05626
2530.54639	0.05577
2528.61762	0.05508
2526.68885	0.05455
2524.76008	0.0546
2522.83131	0.05468
2520.90254	0.05438
2518.97377	0.05393
2517.045	0.0534
2515.11623	0.05286
2513.18746	0.05268
2511.25869	0.05246
2509.32992	0.0522
2507.40115	0.05221
2505.47238	0.0521
2503.54361	0.0513
2501.61484	0.05053
2499.68607	0.05035
2497.75729	0.05028
2495.82852	0.04998
2493.89975	0.04976
2491.97098	0.04969
2490.04221	0.04986
2488.11344	0.04975
2486.18467	0.0491
2484.2559	0.0483
2482.32713	0.0478
2480.39836	0.04739
2478.46959	0.04701
2476.54082	0.04706
2474.61205	0.04742
2472.68328	0.04751
2470.75451	0.04709
2468.82574	0.04675
2466.89697	0.04672
2464.9682	0.04662
2463.03943	0.04624
2461.11066	0.04586
2459.18189	0.04583
2457.25312	0.04608
2455.32435	0.04593
2453.39558	0.04532
2451.46681	0.04479
2449.53804	0.04453
2447.60927	0.04423
2445.6805	0.04373
2443.75173	0.04336
2441.82296	0.04321
2439.89419	0.04295
2437.96542	0.04242
2436.03665	0.04177
2434.10788	0.04124
2432.17911	0.04109
2430.25034	0.04095
2428.32157	0.04045
2426.3928	0.03988
2424.46403	0.03974
2422.53526	0.0399
2420.60649	0.03972
2418.67772	0.03915
2416.74895	0.03873
2414.82018	0.03835
2412.89141	0.03798
2410.96264	0.03791
2409.03387	0.03792
2407.1051	0.03778
2405.17633	0.03763
2403.24756	0.0378
2401.31879	0.03804
2399.39002	0.02882
2397.46125	0.02743
2395.53248	0.03128
2393.60371	0.03579
2391.67494	0.04073
2389.74617	0.0464
2387.8174	0.0527
2385.88863	0.05887
2383.95986	0.06234
2382.03109	0.06215
2380.10232	0.06077
2378.17355	0.05872
2376.24478	0.05675
2374.31601	0.05199
2372.38724	0.05041
2370.45847	0.05038
2368.5297	0.04163
2366.60093	0.04137
2364.67216	0.04215
2362.74339	0.03984
2360.81462	0.0492
2358.88585	0.04828
2356.95708	0.04801
2355.02831	0.05784
2353.09954	0.07328
2351.17077	0.10657
2349.242	0.13874
2347.31323	0.10233
2345.38446	0.05611
2343.45569	0.051
2341.52692	0.0498
2339.59815	0.0566
2337.66938	0.05979
2335.74061	0.05658
2333.81184	0.05853
2331.88307	0.05812
2329.9543	0.06398
2328.02553	0.06749
2326.09675	0.07289
2324.16798	0.06479
2322.23921	0.05324
2320.31044	0.04379
2318.38167	0.0497
2316.4529	0.05498
2314.52413	0.05216
2312.59536	0.04693
2310.66659	0.044
2308.73782	0.04556
2306.80905	0.04693
2304.88028	0.04783
2302.95151	0.0473
2301.02274	0.0456
2299.09397	0.04573
2297.1652	0.04551
2295.23643	0.04381
2293.30766	0.04266
2291.37889	0.04162
2289.45012	0.03961
2287.52135	0.03745
2285.59258	0.03521
2283.66381	0.03332
2281.73504	0.03104
2279.80627	0.02869
2277.8775	0.02695
2275.94873	0.02603
2274.01996	0.02593
2272.09119	0.02605
2270.16242	0.02688
2268.23365	0.0279
2266.30488	0.02864
2264.37611	0.02982
2262.44734	0.03169
2260.51857	0.03283
2258.5898	0.03299
2256.66103	0.03219
2254.73226	0.032
2252.80349	0.03391
2250.87472	0.03548
2248.94595	0.03347
2247.01718	0.03298
2245.08841	0.0324
2243.15964	0.03199
2241.23087	0.0318
2239.3021	0.03213
2237.37333	0.03291
2235.44456	0.03284
2233.51579	0.03123
2231.58702	0.02945
2229.65825	0.02869
2227.72948	0.0285
2225.80071	0.02871
2223.87194	0.02918
2221.94317	0.02943
2220.0144	0.02971
2218.08563	0.03057
2216.15686	0.03167
2214.22809	0.03245
2212.29932	0.0325
2210.37055	0.03224
2208.44178	0.03229
2206.51301	0.03242
2204.58424	0.03255
2202.65547	0.03337
2200.7267	0.03404
2198.79793	0.03351
2196.86916	0.03232
2194.94039	0.03116
2193.01162	0.03044
2191.08285	0.03083
2189.15408	0.03274
2187.22531	0.03481
2185.29654	0.03587
2183.36777	0.03549
2181.439	0.03391
2179.51023	0.03284
2177.58146	0.03304
2175.65269	0.03375
2173.72392	0.03388
2171.79515	0.03311
2169.86638	0.03231
2167.93761	0.03255
2166.00884	0.03268
2164.08007	0.03094
2162.1513	0.0287
2160.22253	0.02751
2158.29376	0.02663
2156.36499	0.02621
2154.43622	0.0263
2152.50744	0.02666
2150.57867	0.02791
2148.6499	0.02974
2146.72113	0.03061
2144.79236	0.03054
2142.86359	0.03102
2140.93482	0.03184
2139.00605	0.03239
2137.07728	0.03256
2135.14851	0.03257
2133.21974	0.03274
2131.29097	0.03302
2129.3622	0.03311
2127.43343	0.03339
2125.50466	0.03398
2123.57589	0.03477
2121.64712	0.03567
2119.71835	0.0363
2117.78958	0.03639
2115.86081	0.03589
2113.93204	0.03528
2112.00327	0.03491
2110.0745	0.03488
2108.14573	0.0345
2106.21696	0.03405
2104.28819	0.0339
2102.35942	0.03356
2100.43065	0.03291
2098.50188	0.03223
2096.57311	0.03169
2094.64434	0.03135
2092.71557	0.03175
2090.7868	0.03293
2088.85803	0.03375
2086.92926	0.03318
2085.00049	0.03195
2083.07172	0.03114
2081.14295	0.031
2079.21418	0.03132
2077.28541	0.03191
2075.35664	0.03231
2073.42787	0.03213
2071.4991	0.03117
2069.57033	0.02994
2067.64156	0.02917
2065.71279	0.02895
2063.78402	0.02838
2061.85525	0.0273
2059.92648	0.02603
2057.99771	0.02441
2056.06894	0.02326
2054.14017	0.02366
2052.2114	0.02464
2050.28263	0.02457
2048.35386	0.02369
2046.42509	0.02227
2044.49632	0.02014
2042.56755	0.01849
2040.63878	0.01811
2038.71001	0.01796
2036.78124	0.01681
2034.85247	0.01488
2032.9237	0.01334
2030.99493	0.013
2029.06616	0.01325
2027.13739	0.0126
2025.20862	0.01067
2023.27985	0.00917
2021.35108	0.0091
2019.42231	0.00926
2017.49354	0.00881
2015.56477	0.00816
2013.636	0.00786
2011.70723	0.00806
2009.77846	0.00827
2007.84969	0.00793
2005.92092	0.00825
2003.99215	0.00962
2002.06338	0.01048
2000.13461	0.01007
1998.20584	0.00903
1996.27707	0.00791
1994.3483	0.00696
1992.41953	0.00634
1990.49076	0.00566
1988.56199	0.00536
1986.63322	0.00638
1984.70445	0.00771
1982.77568	0.00795
1980.8469	0.00664
1978.91813	0.00382
1976.98936	9.98041E-4
1975.06059	0
1973.13182	3.59473E-4
1971.20305	0.00134
1969.27428	0.00337
1967.34551	0.00629
1965.41674	0.0087
1963.48797	0.00972
1961.5592	0.0098
1959.63043	0.01016
1957.70166	0.01164
1955.77289	0.01339
1953.84412	0.01457
1951.91535	0.0152
1949.98658	0.01571
1948.05781	0.01618
1946.12904	0.01658
1944.20027	0.01686
1942.2715	0.01675
1940.34273	0.01626
1938.41396	0.01603
1936.48519	0.01631
1934.55642	0.01667
1932.62765	0.0168
1930.69888	0.01692
1928.77011	0.01716
1926.84134	0.01764
1924.91257	0.0183
1922.9838	0.01897
1921.05503	0.01925
1919.12626	0.01938
1917.19749	0.01946
1915.26872	0.0192
1913.33995	0.01894
1911.41118	0.0191
1909.48241	0.01911
1907.55364	0.01827
1905.62487	0.01707
1903.6961	0.01623
1901.76733	0.01573
1899.83856	0.01551
1897.90979	0.01563
1895.98102	0.01587
1894.05225	0.01577
1892.12348	0.01531
1890.19471	0.0152
1888.26594	0.01544
1886.33717	0.01549
1884.4084	0.01503
1882.47963	0.01434
1880.55086	0.01385
1878.62209	0.01378
1876.69332	0.01394
1874.76455	0.01403
1872.83578	0.014
1870.90701	0.01416
1868.97824	0.01472
1867.04947	0.01484
1865.1207	0.01407
1863.19193	0.01292
1861.26316	0.01231
1859.33439	0.01228
1857.40562	0.01229
1855.47685	0.0121
1853.54808	0.01192
1851.61931	0.01192
1849.69054	0.01224
1847.76177	0.0126
1845.833	0.0128
1843.90423	0.01297
1841.97546	0.01294
1840.04669	0.01264
1838.11792	0.01257
1836.18915	0.01277
1834.26038	0.01266
1832.33161	0.01217
1830.40284	0.01198
1828.47407	0.01218
1826.5453	0.01235
1824.61653	0.01243
1822.68776	0.01217
1820.75899	0.0116
1818.83022	0.01126
1816.90145	0.01142
1814.97268	0.01182
1813.04391	0.01245
1811.11514	0.01311
1809.18636	0.01347
1807.25759	0.01325
1805.32882	0.0131
1803.40005	0.01354
1801.47128	0.01424
1799.54251	0.01452
1797.61374	0.01446
1795.68497	0.01439
1793.7562	0.01467
1791.82743	0.01564
1789.89866	0.01616
1787.96989	0.01586
1786.04112	0.01559
1784.11235	0.01552
1782.18358	0.01542
1780.25481	0.01535
1778.32604	0.01512
1776.39727	0.0144
1774.4685	0.01378
1772.53973	0.01418
1770.61096	0.0152
1768.68219	0.01559
1766.75342	0.01529
1764.82465	0.01487
1762.89588	0.01512
1760.96711	0.01606
1759.03834	0.01692
1757.10957	0.01731
1755.1808	0.0174
1753.25203	0.01768
1751.32326	0.01885
1749.39449	0.02045
1747.46572	0.02104
1745.53695	0.02055
1743.60818	0.01951
1741.67941	0.01862
1739.75064	0.01832
1737.82187	0.01806
1735.8931	0.01787
1733.96433	0.01947
1732.03556	0.02177
1730.10679	0.0224
1728.17802	0.02183
1726.24925	0.02145
1724.32048	0.02161
1722.39171	0.02166
1720.46294	0.02155
1718.53417	0.02334
1716.6054	0.02762
1714.67663	0.03054
1712.74786	0.03093
1710.81909	0.03075
1708.89032	0.03126
1706.96155	0.03309
1705.03278	0.03558
1703.10401	0.03699
1701.17524	0.03847
1699.24647	0.0422
1697.3177	0.04671
1695.38893	0.05037
1693.46016	0.05313
1691.53139	0.05577
1689.60262	0.05873
1687.67385	0.06107
1685.74508	0.06426
1683.81631	0.0716
1681.88754	0.07932
1679.95877	0.08329
1678.03	0.0852
1676.10123	0.08823
1674.17246	0.09297
1672.24369	0.09783
1670.31492	0.10342
1668.38615	0.10948
1666.45738	0.11325
1664.52861	0.11598
1662.59984	0.12021
1660.67107	0.12488
1658.7423	0.12733
1656.81353	0.12753
1654.88476	0.1289
1652.95599	0.13457
1651.02722	0.13962
1649.09845	0.1413
1647.16968	0.14278
1645.24091	0.14469
1643.31214	0.14493
1641.38337	0.14342
1639.4546	0.1408
1637.52583	0.13778
1635.59705	0.13527
1633.66828	0.13295
1631.73951	0.12985
1629.81074	0.12571
1627.88197	0.12107
1625.9532	0.11634
1624.02443	0.1115
1622.09566	0.10655
1620.16689	0.10132
1618.23812	0.09559
1616.30935	0.08993
1614.38058	0.08529
1612.45181	0.08123
1610.52304	0.07701
1608.59427	0.07263
1606.6655	0.06822
1604.73673	0.06396
1602.80796	0.05994
1600.87919	0.05626
1598.95042	0.05289
1597.02165	0.04984
1595.09288	0.04706
1593.16411	0.0445
1591.23534	0.04215
1589.30657	0.03991
1587.3778	0.0377
1585.44903	0.03573
1583.52026	0.03408
1581.59149	0.03245
1579.66272	0.0306
1577.73395	0.02898
1575.80518	0.02829
1573.87641	0.02787
1571.94764	0.02687
1570.01887	0.02603
1568.0901	0.02573
1566.16133	0.02527
1564.23256	0.02388
1562.30379	0.02125
1560.37502	0.01905
1558.44625	0.02023
1556.51748	0.02299
1554.58871	0.02412
1552.65994	0.02397
1550.73117	0.02352
1548.8024	0.02287
1546.87363	0.02229
1544.94486	0.02199
1543.01609	0.02146
1541.08732	0.02061
1539.15855	0.02062
1537.22978	0.02117
1535.30101	0.02114
1533.37224	0.02107
1531.44347	0.02108
1529.5147	0.02101
1527.58593	0.02126
1525.65716	0.02146
1523.72839	0.02108
1521.79962	0.02097
1519.87085	0.02156
1517.94208	0.02246
1516.01331	0.02329
1514.08454	0.02349
1512.15577	0.02334
1510.227	0.02331
1508.29823	0.0234
1506.36946	0.02348
1504.44069	0.02376
1502.51192	0.02412
1500.58315	0.02425
1498.65438	0.02495
1496.72561	0.02659
1494.79684	0.02807
1492.86807	0.02932
1490.9393	0.03197
1489.01053	0.03617
1487.08176	0.03936
1485.15299	0.04142
1483.22422	0.04411
1481.29545	0.04823
1479.36668	0.05316
1477.43791	0.05876
1475.50914	0.06648
1473.58037	0.07743
1471.6516	0.0888
1469.72283	0.09637
1467.79406	0.10146
1465.86529	0.10772
1463.93651	0.11494
1462.00774	0.11968
1460.07897	0.12252
1458.1502	0.128
1456.22143	0.13631
1454.29266	0.14167
1452.36389	0.14365
1450.43512	0.14428
1448.50635	0.14425
1446.57758	0.14345
1444.64881	0.14241
1442.72004	0.14199
1440.79127	0.14243
1438.8625	0.14434
1436.93373	0.14865
1435.00496	0.15389
1433.07619	0.15774
1431.14742	0.16148
1429.21865	0.16645
1427.28988	0.17185
1425.36111	0.17733
1423.43234	0.183
1421.50357	0.18855
1419.5748	0.19496
1417.64603	0.20125
1415.71726	0.20417
1413.78849	0.20433
1411.85972	0.20349
1409.93095	0.20179
1408.00218	0.19874
1406.07341	0.19417
1404.14464	0.18805
1402.21587	0.18084
1400.2871	0.17379
1398.35833	0.16849
1396.42956	0.16636
1394.50079	0.16626
1392.57202	0.16553
1390.64325	0.16395
1388.71448	0.16287
1386.78571	0.16202
1384.85694	0.16048
1382.92817	0.15905
1380.9994	0.15945
1379.07063	0.16221
1377.14186	0.16711
1375.21309	0.17383
1373.28432	0.18105
1371.35555	0.18688
1369.42678	0.19119
1367.49801	0.19399
1365.56924	0.19412
1363.64047	0.19102
1361.7117	0.18533
1359.78293	0.17937
1357.85416	0.17534
1355.92539	0.17384
1353.99662	0.17385
1352.06785	0.17401
1350.13908	0.17375
1348.21031	0.17325
1346.28154	0.17299
1344.35277	0.17366
1342.424	0.17646
1340.49523	0.18178
1338.56646	0.18761
1336.63769	0.19091
1334.70892	0.19115
1332.78015	0.18942
1330.85138	0.18621
1328.92261	0.1816
1326.99384	0.17556
1325.06507	0.16789
1323.1363	0.15882
1321.20753	0.14917
1319.27876	0.13987
1317.34999	0.13162
1315.42122	0.12503
1313.49245	0.12035
1311.56368	0.11776
1309.63491	0.11719
1307.70614	0.11813
1305.77737	0.12
1303.8486	0.12225
1301.91983	0.1244
1299.99106	0.12572
1298.06229	0.12593
1296.13352	0.12489
1294.20475	0.1223
1292.27597	0.11777
1290.3472	0.11157
1288.41843	0.10471
1286.48966	0.09821
1284.56089	0.09279
1282.63212	0.08857
1280.70335	0.08536
1278.77458	0.08284
1276.84581	0.08087
1274.91704	0.07941
1272.98827	0.07833
1271.0595	0.07694
1269.13073	0.07451
1267.20196	0.07076
1265.27319	0.06646
1263.34442	0.06294
1261.41565	0.06163
1259.48688	0.06323
1257.55811	0.06739
1255.62934	0.07294
1253.70057	0.07877
1251.7718	0.08343
1249.84303	0.08592
1247.91426	0.0862
1245.98549	0.08536
1244.05672	0.08444
1242.12795	0.08313
1240.19918	0.08054
1238.27041	0.07717
1236.34164	0.07396
1234.41287	0.07086
1232.4841	0.06723
1230.55533	0.0627
1228.62656	0.05766
1226.69779	0.05259
1224.76902	0.04775
1222.84025	0.04338
1220.91148	0.0397
1218.98271	0.03696
1217.05394	0.03526
1215.12517	0.0348
1213.1964	0.03559
1211.26763	0.03746
1209.33886	0.04014
1207.41009	0.04298
1205.48132	0.04466
1203.55255	0.04412
1201.62378	0.0413
1199.69501	0.0367
1197.76624	0.03123
1195.83747	0.02574
1193.9087	0.0207
1191.97993	0.01625
1190.05116	0.01269
1188.12239	0.01026
1186.19362	0.00899
1184.26485	0.00861
1182.33608	0.0092
1180.40731	0.01109
1178.47854	0.01489
1176.54977	0.02114
1174.621	0.0308
1172.69223	0.04526
1170.76346	0.06636
1168.83469	0.09588
1166.90592	0.13462
1164.97715	0.18179
1163.04838	0.23446
1161.11961	0.28887
1159.19084	0.34131
1157.26207	0.38751
1155.3333	0.42202
1153.40453	0.43998
1151.47576	0.43963
1149.54699	0.42295
1147.61822	0.39417
1145.68945	0.35814
1143.76068	0.31955
1141.83191	0.2832
1139.90314	0.25322
1137.97437	0.23166
1136.0456	0.21843
1134.11683	0.21187
1132.18806	0.21005
1130.25929	0.2111
1128.33052	0.21327
1126.40175	0.21462
1124.47298	0.21369
1122.54421	0.2102
1120.61544	0.20543
1118.68666	0.20128
1116.75789	0.19946
1114.82912	0.20101
1112.90035	0.20605
1110.97158	0.214
1109.04281	0.22354
1107.11404	0.23335
1105.18527	0.24246
1103.2565	0.25038
1101.32773	0.25581
1099.39896	0.25705
1097.47019	0.25387
1095.54142	0.24851
1093.61265	0.24583
1091.68388	0.25138
1089.75511	0.26926
1087.82634	0.30137
1085.89757	0.34656
1083.9688	0.39923
1082.04003	0.44988
1080.11126	0.48855
1078.18249	0.50868
1076.25372	0.50829
1074.32495	0.48774
1072.39618	0.45124
1070.46741	0.41102
1068.53864	0.38344
1066.60987	0.3763
1064.6811	0.38573
1062.75233	0.40706
1060.82356	0.43909
1058.89479	0.47819
1056.96602	0.51651
1055.03725	0.54723
1053.10848	0.56817
1051.17971	0.58116
1049.25094	0.58989
1047.32217	0.59811
1045.3934	0.60831
1043.46463	0.622
1041.53586	0.64
1039.60709	0.66304
1037.67832	0.69112
1035.74955	0.72335
1033.82078	0.75973
1031.89201	0.80065
1029.96324	0.84479
1028.03447	0.88687
1026.1057	0.91991
1024.17693	0.94055
1022.24816	0.94881
1020.31939	0.944
1018.39062	0.92538
1016.46185	0.89419
1014.53308	0.85378
1012.60431	0.81026
1010.67554	0.77225
1008.74677	0.74715
1006.818	0.7368
1004.88923	0.73726
1002.96046	0.74296
1001.03169	0.74963
999.10292	0.75363
997.17415	0.75033
995.24538	0.73427
993.31661	0.70134
991.38784	0.6515
989.45907	0.58975
987.5303	0.52366
985.60153	0.45986
983.67276	0.40234
981.74399	0.3523
979.81522	0.30956
977.88645	0.27349
975.95768	0.24312
974.02891	0.21728
972.10014	0.19517
970.17137	0.17613
968.2426	0.15945
966.31383	0.14471
964.38506	0.13172
962.45629	0.12051
960.52752	0.11135
958.59875	0.10526
956.66998	0.10441
954.74121	0.11189
952.81244	0.13082
950.88367	0.15987
948.9549	0.18927
947.02612	0.20583
945.09735	0.20614
943.16858	0.20021
941.23981	0.19838
939.31104	0.20036
937.38227	0.19881
935.4535	0.1888
933.52473	0.17185
931.59596	0.15277
929.66719	0.13523
927.73842	0.1203
925.80965	0.10746
923.88088	0.09606
921.95211	0.08559
920.02334	0.07597
918.09457	0.06747
916.1658	0.06053
914.23703	0.05537
912.30826	0.05184
910.37949	0.04893
908.45072	0.04559
906.52195	0.04125
904.59318	0.03597
902.66441	0.03046
900.73564	0.02577
898.80687	0.02267
896.8781	0.02139
894.94933	0.02177
893.02056	0.02313
891.09179	0.0241
889.16302	0.02375
887.23425	0.02204
885.30548	0.01956
883.37671	0.0168
881.44794	0.01463
879.51917	0.01378
877.5904	0.01498
875.66163	0.01924
873.73286	0.02723
871.80409	0.0384
869.87532	0.05143
867.94655	0.06431
866.01778	0.07455
864.08901	0.08044
862.16024	0.08269
860.23147	0.08327
858.3027	0.08339
856.37393	0.08316
854.44516	0.08234
852.51639	0.08098
850.58762	0.07912
848.65885	0.07656
846.73008	0.07322
844.80131	0.06903
842.87254	0.06384
840.94377	0.05775
839.015	0.05135
837.08623	0.04506
835.15746	0.03917
833.22869	0.03393
831.29992	0.02947
829.37115	0.02551
827.44238	0.02179
825.51361	0.01857
823.58484	0.01601
821.65607	0.01422
819.7273	0.01321
817.79853	0.01275
815.86976	0.01247
813.94099	0.01232
812.01222	0.01228
810.08345	0.01232
808.15468	0.01224
806.22591	0.01232
804.29714	0.01278
802.36837	0.01387
800.4396	0.0158
798.51083	0.0186
796.58206	0.02174
794.65329	0.02457
792.72452	0.02693
790.79575	0.0293
788.86698	0.03217
786.93821	0.03585
785.00944	0.04019
783.08067	0.0452
781.1519	0.05036
779.22313	0.05497
777.29436	0.05823
775.36558	0.06017
773.43681	0.06183
771.50804	0.06482
769.57927	0.07036
767.6505	0.07882
765.72173	0.08952
763.79296	0.10089
761.86419	0.11132
759.93542	0.1202
758.00665	0.12807
756.07788	0.13432
754.14911	0.13645
752.22034	0.13234
750.29157	0.12322
748.3628	0.11248
746.43403	0.10325
744.50526	0.09689
742.57649	0.09301
740.64772	0.09079
738.71895	0.08975
736.79018	0.08944
734.86141	0.08947
732.93264	0.08967
731.00387	0.09005
729.0751	0.09064
727.14633	0.09129
725.21756	0.09242
723.28879	0.09645
721.36002	0.09742
719.43125	0.10006
717.50248	0.10533
715.57371	0.11057
713.64494	0.1179
711.71617	0.12709
709.7874	0.13628
707.85863	0.14338
705.92986	0.14718
704.00109	0.14756
702.07232	0.14508
700.14355	0.14093
698.21478	0.13647
696.28601	0.13267
694.35724	0.12991
692.42847	0.12786
690.4997	0.12623
688.57093	0.12518
686.64216	0.12479
684.71339	0.12479
682.78462	0.12479
680.85585	0.12467
678.92708	0.1244
676.99831	0.12428
675.06954	0.12494
673.14077	0.12738
671.212	0.12537
669.28323	0.10717
667.35446	0.10663
665.42569	0.1301
663.49692	0.13006
661.56815	0.12567
659.63938	0.12532
657.71061	0.12707
655.78184	0.12889
653.85307	0.13048
651.9243	0.13114
649.99553	0.13083
648.06676	0.13056
646.13799	0.12997
644.20922	0.12827
642.28045	0.12613
640.35168	0.12415
638.42291	0.12229
636.49414	0.12023
634.56537	0.11822
632.6366	0.11639
630.70783	0.1148
628.77906	0.11337
626.85029	0.11212
624.92152	0.11166
622.99275	0.11267
621.06398	0.11619
619.13521	0.12325
617.20644	0.13283
615.27767	0.14284
613.3489	0.15226
611.42013	0.16056
609.49136	0.16642
607.56259	0.16902
605.63382	0.1684
603.70505	0.16552
601.77627	0.16172
599.8475	0.15769
597.91873	0.154
595.98996	0.15167
594.06119	0.15202
592.13242	0.15629
590.20365	0.16401
588.27488	0.17331
586.34611	0.1834
584.41734	0.19426
582.48857	0.2055
580.5598	0.21578
578.63103	0.22303
576.70226	0.22594
574.77349	0.2249
572.84472	0.22098
570.91595	0.21469
568.98718	0.2055
567.05841	0.1934
565.12964	0.17971
563.20087	0.16621
561.2721	0.15399
559.34333	0.14359
557.41456	0.13471
555.48579	0.12695
553.55702	0.12016
551.62825	0.11462
549.69948	0.11066
547.77071	0.10849
545.84194	0.10849
543.91317	0.11054
541.9844	0.11388
540.05563	0.11768
538.12686	0.12175
536.19809	0.12683
534.26932	0.13315
532.34055	0.13978
530.41178	0.14475
528.48301	0.14641
526.55424	0.14459
524.62547	0.14001
522.6967	0.13385
520.76793	0.12717
518.83916	0.12054
516.91039	0.11406
514.98162	0.10817
513.05285	0.10332
511.12408	0.0994
509.19531	0.09591
507.26654	0.09276
505.33777	0.09001
503.409	0.08741
501.48023	0.08439
499.55146	0.08093
497.62269	0.07732
495.69392	0.07407
493.76515	0.07162
491.83638	0.06991
489.90761	0.06856
487.97884	0.06728
486.05007	0.06615
484.1213	0.06545
482.19253	0.06506
480.26376	0.0646
478.33499	0.06382
476.40622	0.06235
474.47745	0.05967
472.54868	0.0556
470.61991	0.0511
468.69114	0.04679
466.76237	0.04241
464.8336	0.03814
462.90483	0.03441
460.97606	0.03119
459.04729	0.02894
457.11852	0.02809
455.18975	0.02832
453.26098	0.02914
451.33221	0.03007
449.40344	0.03072
447.47467	0.03131
445.5459	0.03216
443.61713	0.03313
441.68836	0.0339
439.75959	0.03425
437.83082	0.03444
435.90205	0.03452
433.97328	0.03405
432.04451	0.03258
430.11573	0.03025
428.18696	0.02769
426.25819	0.02505
424.32942	0.02226
422.40065	0.01931
420.47188	0.01663
418.54311	0.01473
416.61434	0.0133
414.68557	0.01225
412.7568	0.0119
410.82803	0.01248
408.89926	0.01349
406.97049	0.01419
405.04172	0.01407
403.11295	0.0131
401.18418	0.01155
399.25541	0.00976