3996.41167	0.01408
3994.4829	0.01356
3992.55413	0.01201
3990.62536	0.01046
3988.69659	0.01001
3986.76782	0.01087
3984.83905	0.01209
3982.91028	0.01244
3980.98151	0.01177
3979.05274	0.01139
3977.12397	0.01189
3975.1952	0.01267
3973.26643	0.01295
3971.33766	0.01206
3969.40889	0.00971
3967.48012	0.00787
3965.55135	0.00931
3963.62258	0.01389
3961.69381	0.01709
3959.76504	0.01569
3957.83627	0.01188
3955.9075	0.00909
3953.97873	0.00922
3952.04996	0.01249
3950.12119	0.01692
3948.19242	0.01924
3946.26365	0.01879
3944.33488	0.0179
3942.40611	0.01657
3940.47734	0.01327
3938.54857	0.01034
3936.6198	0.01047
3934.69103	0.01374
3932.76226	0.017
3930.83349	0.01611
3928.90472	0.01216
3926.97595	0.01054
3925.04718	0.01264
3923.11841	0.01488
3921.18964	0.01531
3919.26087	0.01617
3917.3321	0.01732
3915.40333	0.01562
3913.47456	0.01189
3911.54579	0.00896
3909.61702	0.00836
3907.68825	0.01104
3905.75948	0.0189
3903.83071	0.02975
3901.90194	0.03499
3899.97317	0.03125
3898.0444	0.02409
3896.11563	0.01773
3894.18686	0.01421
3892.25809	0.01391
3890.32932	0.01477
3888.40055	0.01519
3886.47178	0.01685
3884.54301	0.01932
3882.61424	0.02083
3880.68547	0.02176
3878.7567	0.02029
3876.82792	0.01641
3874.89915	0.01516
3872.97038	0.01857
3871.04161	0.02329
3869.11284	0.02495
3867.18407	0.02246
3865.2553	0.02047
3863.32653	0.02177
3861.39776	0.02271
3859.46899	0.02006
3857.54022	0.01596
3855.61145	0.01456
3853.68268	0.01827
3851.75391	0.02292
3849.82514	0.02218
3847.89637	0.01844
3845.9676	0.01543
3844.03883	0.01382
3842.11006	0.013
3840.18129	0.01284
3838.25252	0.01399
3836.32375	0.01434
3834.39498	0.01272
3832.46621	0.01139
3830.53744	0.01094
3828.60867	0.01056
3826.6799	0.01039
3824.75113	0.00892
3822.82236	0.00628
3820.89359	0.00678
3818.96482	0.00975
3817.03605	0.01119
3815.10728	0.01198
3813.17851	0.0116
3811.24974	0.0091
3809.32097	0.00552
3807.3922	0.0028
3805.46343	0.00126
3803.53466	0
3801.60589	0.00166
3799.67712	0.00551
3797.74835	0.00747
3795.81958	0.00781
3793.89081	0.00773
3791.96204	0.00742
3790.03327	0.0074
3788.1045	0.00695
3786.17573	0.00606
3784.24696	0.00575
3782.31819	0.00559
3780.38942	0.00485
3778.46065	0.00461
3776.53188	0.00555
3774.60311	0.00648
3772.67434	0.00734
3770.74557	0.00856
3768.8168	0.00979
3766.88803	0.00977
3764.95926	0.00881
3763.03049	0.00741
3761.10172	0.00703
3759.17295	0.00956
3757.24418	0.01284
3755.31541	0.01268
3753.38664	0.01114
3751.45787	0.01492
3749.5291	0.02344
3747.60033	0.02912
3745.67156	0.03546
3743.74279	0.04223
3741.81402	0.04033
3739.88525	0.0328
3737.95648	0.03199
3736.02771	0.03979
3734.09894	0.0451
3732.17017	0.04472
3730.2414	0.04668
3728.31263	0.05295
3726.38386	0.05935
3724.45509	0.06029
3722.52632	0.05642
3720.59755	0.04911
3718.66878	0.04152
3716.74001	0.03393
3714.81124	0.0264
3712.88247	0.02457
3710.9537	0.03207
3709.02493	0.04213
3707.09616	0.04423
3705.16739	0.04145
3703.23861	0.03998
3701.30984	0.04398
3699.38107	0.05185
3697.4523	0.05768
3695.52353	0.05934
3693.59476	0.05911
3691.66599	0.05772
3689.73722	0.06004
3687.80845	0.06623
3685.87968	0.06972
3683.95091	0.06811
3682.02214	0.0662
3680.09337	0.0667
3678.1646	0.07114
3676.23583	0.07923
3674.30706	0.08534
3672.37829	0.08512
3670.44952	0.08409
3668.52075	0.08546
3666.59198	0.08618
3664.66321	0.08668
3662.73444	0.08806
3660.80567	0.08914
3658.8769	0.08906
3656.94813	0.08825
3655.01936	0.08517
3653.09059	0.07969
3651.16182	0.07917
3649.23305	0.0893
3647.30428	0.09928
3645.37551	0.09942
3643.44674	0.0946
3641.51797	0.09072
3639.5892	0.08903
3637.66043	0.0899
3635.73166	0.09288
3633.80289	0.09601
3631.87412	0.09884
3629.94535	0.1062
3628.01658	0.11713
3626.08781	0.12142
3624.15904	0.11776
3622.23027	0.11396
3620.3015	0.11519
3618.37273	0.12094
3616.44396	0.12691
3614.51519	0.13084
3612.58642	0.13557
3610.65765	0.14388
3608.72888	0.15335
3606.80011	0.15844
3604.87134	0.15748
3602.94257	0.15638
3601.0138	0.15922
3599.08503	0.16468
3597.15626	0.1732
3595.22749	0.18282
3593.29872	0.189
3591.36995	0.18994
3589.44118	0.19431
3587.51241	0.20327
3585.58364	0.20931
3583.65487	0.20959
3581.7261	0.20922
3579.79733	0.21162
3577.86856	0.217
3575.93979	0.22473
3574.01102	0.23303
3572.08225	0.24009
3570.15348	0.2484
3568.22471	0.2621
3566.29594	0.27733
3564.36717	0.28542
3562.4384	0.28767
3560.50963	0.28948
3558.58086	0.29195
3556.65209	0.29581
3554.72332	0.30258
3552.79455	0.31154
3550.86578	0.32065
3548.93701	0.33063
3547.00824	0.34294
3545.07947	0.35329
3543.1507	0.35729
3541.22193	0.35889
3539.29316	0.36333
3537.36439	0.37097
3535.43562	0.3792
3533.50685	0.38656
3531.57807	0.3945
3529.6493	0.40485
3527.72053	0.41753
3525.79176	0.43035
3523.86299	0.44048
3521.93422	0.44733
3520.00545	0.45249
3518.07668	0.45752
3516.14791	0.46312
3514.21914	0.47011
3512.29037	0.47944
3510.3616	0.49008
3508.43283	0.49977
3506.50406	0.5088
3504.57529	0.52002
3502.64652	0.53241
3500.71775	0.54108
3498.78898	0.54581
3496.86021	0.55105
3494.93144	0.55885
3493.00267	0.5673
3491.0739	0.57545
3489.14513	0.58434
3487.21636	0.5941
3485.28759	0.60336
3483.35882	0.61327
3481.43005	0.62449
3479.50128	0.6344
3477.57251	0.6419
3475.64374	0.6502
3473.71497	0.65916
3471.7862	0.66579
3469.85743	0.67147
3467.92866	0.67963
3465.99989	0.69048
3464.07112	0.70156
3462.14235	0.71154
3460.21358	0.71999
3458.28481	0.72698
3456.35604	0.73368
3454.42727	0.74082
3452.4985	0.7481
3450.56973	0.75641
3448.64096	0.76683
3446.71219	0.77841
3444.78342	0.78752
3442.85465	0.79422
3440.92588	0.80121
3438.99711	0.80747
3437.06834	0.81286
3435.13957	0.81927
3433.2108	0.8267
3431.28203	0.83449
3429.35326	0.8425
3427.42449	0.85
3425.49572	0.85656
3423.56695	0.86362
3421.63818	0.87207
3419.70941	0.87965
3417.78064	0.88474
3415.85187	0.88889
3413.9231	0.89348
3411.99433	0.89784
3410.06556	0.90279
3408.13679	0.90891
3406.20802	0.91502
3404.27925	0.92026
3402.35048	0.92514
3400.42171	0.92987
3398.49294	0.93526
3396.56417	0.93904
3394.6354	0.9418
3392.70663	0.94544
3390.77786	0.94973
3388.84909	0.95308
3386.92032	0.95555
3384.99155	0.95889
3383.06278	0.96304
3381.13401	0.96609
3379.20524	0.96776
3377.27647	0.96928
3375.3477	0.97095
3373.41893	0.97203
3371.49016	0.97297
3369.56139	0.97471
3367.63262	0.97638
3365.70385	0.97776
3363.77508	0.97913
3361.84631	0.97978
3359.91753	0.97992
3357.98876	0.98056
3356.05999	0.9815
3354.13122	0.98142
3352.20245	0.98053
3350.27368	0.97943
3348.34491	0.97796
3346.41614	0.97642
3344.48737	0.97553
3342.5586	0.97538
3340.62983	0.975
3338.70106	0.97441
3336.77229	0.97353
3334.84352	0.97162
3332.91475	0.96935
3330.98598	0.96752
3329.05721	0.9651
3327.12844	0.96203
3325.19967	0.95939
3323.2709	0.95785
3321.34213	0.95689
3319.41336	0.95513
3317.48459	0.95191
3315.55582	0.94826
3313.62705	0.94475
3311.69828	0.94145
3309.76951	0.93824
3307.84074	0.93421
3305.91197	0.92954
3303.9832	0.92603
3302.05443	0.92376
3300.12566	0.92098
3298.19689	0.91725
3296.26812	0.91323
3294.33935	0.91023
3292.41058	0.9081
3290.48181	0.90481
3288.55304	0.89977
3286.62427	0.8948
3284.6955	0.89121
3282.76673	0.88865
3280.83796	0.88572
3278.90919	0.88127
3276.98042	0.87586
3275.05165	0.87038
3273.12288	0.86483
3271.19411	0.8592
3269.26534	0.85358
3267.33657	0.84883
3265.4078	0.84495
3263.47903	0.84108
3261.55026	0.83698
3259.62149	0.83289
3257.69272	0.82872
3255.76395	0.82361
3253.83518	0.81747
3251.90641	0.81097
3249.97764	0.80469
3248.04887	0.7987
3246.1201	0.79344
3244.19133	0.78876
3242.26256	0.78321
3240.33379	0.77598
3238.40502	0.76787
3236.47625	0.76028
3234.54748	0.75385
3232.61871	0.74895
3230.68994	0.74493
3228.76117	0.73982
3226.8324	0.73332
3224.90363	0.72631
3222.97486	0.71893
3221.04609	0.71163
3219.11732	0.70447
3217.18855	0.69629
3215.25978	0.68724
3213.33101	0.67935
3211.40224	0.67344
3209.47347	0.66774
3207.5447	0.66065
3205.61593	0.65262
3203.68716	0.6451
3201.75839	0.63809
3199.82962	0.63057
3197.90085	0.62334
3195.97208	0.61669
3194.04331	0.60975
3192.11454	0.60216
3190.18577	0.59405
3188.257	0.58588
3186.32822	0.57843
3184.39945	0.57156
3182.47068	0.56462
3180.54191	0.55732
3178.61314	0.5498
3176.68437	0.54213
3174.7556	0.53483
3172.82683	0.52774
3170.89806	0.52
3168.96929	0.51183
3167.04052	0.50365
3165.11175	0.49613
3163.18298	0.48933
3161.25421	0.48298
3159.32544	0.47699
3157.39667	0.471
3155.4679	0.46443
3153.53913	0.4572
3151.61036	0.4496
3149.68159	0.44164
3147.75282	0.43448
3145.82405	0.42879
3143.89528	0.42287
3141.96651	0.41608
3140.03774	0.40921
3138.10897	0.40278
3136.1802	0.39657
3134.25143	0.39073
3132.32266	0.38532
3130.39389	0.37992
3128.46512	0.37415
3126.53635	0.36852
3124.60758	0.36348
3122.67881	0.35887
3120.75004	0.35376
3118.82127	0.3477
3116.8925	0.3412
3114.96373	0.33521
3113.03496	0.3298
3111.10619	0.32476
3109.17742	0.31928
3107.24865	0.31358
3105.31988	0.3081
3103.39111	0.3032
3101.46234	0.29911
3099.53357	0.29553
3097.6048	0.29158
3095.67603	0.28727
3093.74726	0.2831
3091.81849	0.27871
3089.88972	0.27367
3087.96095	0.26863
3086.03218	0.26424
3084.10341	0.26037
3082.17464	0.25649
3080.24587	0.25262
3078.3171	0.24809
3076.38833	0.24297
3074.45956	0.238
3072.53079	0.23427
3070.60202	0.23186
3068.67325	0.2301
3066.74448	0.22797
3064.81571	0.22475
3062.88694	0.22073
3060.95817	0.21678
3059.0294	0.21378
3057.10063	0.21181
3055.17186	0.20975
3053.24309	0.20719
3051.31432	0.20463
3049.38555	0.20236
3047.45678	0.20038
3045.52801	0.19876
3043.59924	0.19737
3041.67047	0.19605
3039.7417	0.19502
3037.81293	0.19464
3035.88416	0.19529
3033.95539	0.19666
3032.02662	0.19848
3030.09785	0.2
3028.16908	0.20145
3026.24031	0.20392
3024.31154	0.20734
3022.38277	0.21112
3020.454	0.21541
3018.52523	0.22102
3016.59646	0.22743
3014.66768	0.23427
3012.73891	0.2417
3010.81014	0.24964
3008.88137	0.25831
3006.9526	0.26793
3005.02383	0.27813
3003.09506	0.28913
3001.16629	0.30152
2999.23752	0.31456
2997.30875	0.3279
2995.37998	0.34043
2993.45121	0.35472
2991.52244	0.37651
2989.59367	0.40159
2987.6649	0.41879
2985.73613	0.42724
2983.80736	0.43475
2981.87859	0.44575
2979.94982	0.45894
2978.02105	0.47147
2976.09228	0.48262
2974.16351	0.49224
2972.23474	0.49792
2970.30597	0.49711
2968.3772	0.48944
2966.44843	0.47674
2964.51966	0.46229
2962.59089	0.45024
2960.66212	0.4428
2958.73335	0.44023
2956.80458	0.44146
2954.87581	0.44539
2952.94704	0.45165
2951.01827	0.46047
2949.0895	0.47206
2947.16073	0.48619
2945.23196	0.50201
2943.30319	0.51768
2941.37442	0.53269
2939.44565	0.54771
2937.51688	0.56279
2935.58811	0.57642
2933.65934	0.58772
2931.73057	0.59631
2929.8018	0.60258
2927.87303	0.60636
2925.94426	0.60788
2924.01549	0.60743
2922.08672	0.60523
2920.15795	0.60151
2918.22918	0.59639
2916.30041	0.59062
2914.37164	0.58587
2912.44287	0.58236
2910.5141	0.57812
2908.58533	0.57264
2906.65656	0.56855
2904.72779	0.5681
2902.79902	0.57028
2900.87025	0.56903
2898.94148	0.56034
2897.01271	0.54997
2895.08394	0.54384
2893.15517	0.53981
2891.2264	0.53506
2889.29763	0.53024
2887.36886	0.52651
2885.44009	0.52322
2883.51132	0.51876
2881.58255	0.51168
2879.65378	0.50197
2877.72501	0.49116
2875.79624	0.48043
2873.86747	0.46948
2871.9387	0.45766
2870.00993	0.44511
2868.08116	0.43153
2866.15239	0.41621
2864.22362	0.39979
2862.29485	0.38337
2860.36608	0.36739
2858.43731	0.35162
2856.50854	0.33623
2854.57977	0.32141
2852.651	0.30762
2850.72223	0.29594
2848.79346	0.28608
2846.86469	0.27652
2844.93592	0.26681
2843.00714	0.25856
2841.07837	0.2525
2839.1496	0.2468
2837.22083	0.24015
2835.29206	0.23358
2833.36329	0.22788
2831.43452	0.22247
2829.50575	0.21729
2827.57698	0.21283
2825.64821	0.20946
2823.71944	0.20653
2821.79067	0.20339
2819.8619	0.19995
2817.93313	0.19651
2816.00436	0.19344
2814.07559	0.19073
2812.14682	0.1881
2810.21805	0.18554
2808.28928	0.18319
2806.36051	0.1807
2804.43174	0.1777
2802.50297	0.17492
2800.5742	0.17323
2798.64543	0.17213
2796.71666	0.17015
2794.78789	0.16766
2792.85912	0.16561
2790.93035	0.16407
2789.00158	0.16267
2787.07281	0.16084
2785.14404	0.15879
2783.21527	0.15732
2781.2865	0.15622
2779.35773	0.15548
2777.42896	0.15496
2775.50019	0.15422
2773.57142	0.15289
2771.64265	0.15106
2769.71388	0.1493
2767.78511	0.14769
2765.85634	0.14622
2763.92757	0.14475
2761.9988	0.14379
2760.07003	0.14335
2758.14126	0.14275
2756.21249	0.14179
2754.28372	0.14069
2752.35495	0.13988
2750.42618	0.1398
2748.49741	0.13949
2746.56864	0.13824
2744.63987	0.13656
2742.7111	0.13502
2740.78233	0.13369
2738.85356	0.13274
2736.92479	0.13185
2734.99602	0.13067
2733.06725	0.1295
2731.13848	0.12869
2729.20971	0.1286
2727.28094	0.12867
2725.35217	0.12807
2723.4234	0.12668
2721.49463	0.12535
2719.56586	0.12403
2717.63709	0.12293
2715.70832	0.12212
2713.77955	0.12152
2711.85078	0.12086
2709.92201	0.11968
2707.99324	0.11836
2706.06447	0.11703
2704.1357	0.11564
2702.20693	0.11497
2700.27816	0.11504
2698.34939	0.11473
2696.42062	0.11385
2694.49185	0.11318
2692.56308	0.11274
2690.63431	0.11185
2688.70554	0.11075
2686.77677	0.11037
2684.848	0.11102
2682.91923	0.11152
2680.99046	0.11144
2679.06169	0.11099
2677.13292	0.10996
2675.20415	0.10835
2673.27538	0.1068
2671.34661	0.1057
2669.41783	0.1046
2667.48906	0.10357
2665.56029	0.10305
2663.63152	0.1026
2661.70275	0.10164
2659.77398	0.10068
2657.84521	0.0998
2655.91644	0.0984
2653.98767	0.09686
2652.0589	0.09576
2650.13013	0.0948
2648.20136	0.09362
2646.27259	0.09259
2644.34382	0.09163
2642.41505	0.09089
2640.48628	0.09037
2638.55751	0.08978
2636.62874	0.08875
2634.69997	0.08757
2632.7712	0.08669
2630.84243	0.08617
2628.91366	0.08543
2626.98489	0.08425
2625.05612	0.08344
2623.12735	0.08292
2621.19858	0.08233
2619.26981	0.08181
2617.34104	0.08114
2615.41227	0.08011
2613.4835	0.07901
2611.55473	0.07812
2609.62596	0.07731
2607.69719	0.07642
2605.76842	0.07583
2603.83965	0.07538
2601.91088	0.07486
2599.98211	0.07485
2598.05334	0.07513
2596.12457	0.07454
2594.1958	0.07351
2592.26703	0.07299
2590.33826	0.07283
2588.40949	0.07224
2586.48072	0.07172
2584.55195	0.07157
2582.62318	0.07156
2580.69441	0.07118
2578.76564	0.07044
2576.83687	0.06992
2574.9081	0.0694
2572.97933	0.06859
2571.05056	0.06807
2569.12179	0.06806
2567.19302	0.06834
2565.26425	0.06884
2563.33548	0.06905
2561.40671	0.06824
2559.47794	0.06706
2557.54917	0.06669
2555.6204	0.0669
2553.69163	0.06616
2551.76286	0.06491
2549.83409	0.06461
2547.90532	0.06554
2545.97655	0.06692
2544.04778	0.06764
2542.11901	0.06712
2540.19024	0.06609
2538.26147	0.06571
2536.3327	0.06563
2534.40393	0.06555
2532.47516	0.06583
2530.54639	0.06589
2528.61762	0.06552
2526.68885	0.06551
2524.76008	0.06608
2522.83131	0.06658
2520.90254	0.06679
2518.97377	0.06686
2517.045	0.06626
2515.11623	0.06487
2513.18746	0.0634
2511.25869	0.062
2509.32992	0.06119
2507.40115	0.06162
2505.47238	0.06212
2503.54361	0.06167
2501.61484	0.06086
2499.68607	0.06019
2497.75729	0.0596
2495.82852	0.0593
2493.89975	0.05958
2491.97098	0.05986
2490.04221	0.06022
2488.11344	0.06021
2486.18467	0.05932
2484.2559	0.05793
2482.32713	0.05712
2480.39836	0.05732
2478.46959	0.05739
2476.54082	0.05701
2474.61205	0.05708
2472.68328	0.05787
2470.75451	0.0583
2468.82574	0.05821
2466.89697	0.05828
2464.9682	0.0579
2463.03943	0.05694
2461.11066	0.05635
2459.18189	0.05671
2457.25312	0.05721
2455.32435	0.05734
2453.39558	0.05697
2451.46681	0.05616
2449.53804	0.0552
2447.60927	0.05439
2445.6805	0.05387
2443.75173	0.05371
2441.82296	0.05399
2439.89419	0.05413
2437.96542	0.05354
2436.03665	0.05287
2434.10788	0.05315
2432.17911	0.05394
2430.25034	0.05423
2428.32157	0.05363
2426.3928	0.05267
2424.46403	0.05215
2422.53526	0.05258
2420.60649	0.05345
2418.67772	0.05402
2416.74895	0.05408
2414.82018	0.05342
2412.89141	0.05239
2410.96264	0.05216
2409.03387	0.05295
2407.1051	0.05396
2405.17633	0.05475
2403.24756	0.05533
2401.31879	0.05459
2399.39002	0.03204
2397.46125	0.02904
2395.53248	0.03888
2393.60371	0.04981
2391.67494	0.06067
2389.74617	0.07254
2387.8174	0.08544
2385.88863	0.09696
2383.95986	0.10679
2382.03109	0.11604
2380.10232	0.12449
2378.17355	0.13397
2376.24478	0.1438
2374.31601	0.15933
2372.38724	0.16996
2370.45847	0.1755
2368.5297	0.19365
2366.60093	0.19685
2364.67216	0.20449
2362.74339	0.21841
2360.81462	0.20703
2358.88585	0.21044
2356.95708	0.22597
2355.02831	0.2482
2353.09954	0.26045
2351.17077	0.2344
2349.242	0.18049
2347.31323	0.2133
2345.38446	0.23721
2343.45569	0.20176
2341.52692	0.18957
2339.59815	0.18205
2337.66938	0.17409
2335.74061	0.17882
2333.81184	0.17903
2331.88307	0.18639
2329.9543	0.1898
2328.02553	0.1976
2326.09675	0.18512
2324.16798	0.16935
2322.23921	0.14608
2320.31044	0.13739
2318.38167	0.12549
2316.4529	0.11848
2314.52413	0.11665
2312.59536	0.11066
2310.66659	0.10576
2308.73782	0.1024
2306.80905	0.09998
2304.88028	0.09574
2302.95151	0.09282
2301.02274	0.09178
2299.09397	0.08813
2297.1652	0.08345
2295.23643	0.07979
2293.30766	0.07512
2291.37889	0.07
2289.45012	0.0654
2287.52135	0.05955
2285.59258	0.05262
2283.66381	0.04575
2281.73504	0.04173
2279.80627	0.03939
2277.8775	0.03697
2275.94873	0.03579
2274.01996	0.03622
2272.09119	0.03774
2270.16242	0.03875
2268.23365	0.03969
2266.30488	0.04114
2264.37611	0.04332
2262.44734	0.04586
2260.51857	0.04826
2258.5898	0.0473
2256.66103	0.04466
2254.73226	0.04524
2252.80349	0.04953
2250.87472	0.0528
2248.94595	0.04791
2247.01718	0.04607
2245.08841	0.0441
2243.15964	0.04226
2241.23087	0.04006
2239.3021	0.03794
2237.37333	0.03771
2235.44456	0.03909
2233.51579	0.0393
2231.58702	0.03775
2229.65825	0.03592
2227.72948	0.03526
2225.80071	0.0359
2223.87194	0.03677
2221.94317	0.03654
2220.0144	0.0358
2218.08563	0.03659
2216.15686	0.03862
2214.22809	0.03985
2212.29932	0.03963
2210.37055	0.03867
2208.44178	0.03859
2206.51301	0.04011
2204.58424	0.04148
2202.65547	0.04184
2200.7267	0.04146
2198.79793	0.04087
2196.86916	0.04101
2194.94039	0.04049
2193.01162	0.03778
2191.08285	0.03565
2189.15408	0.03717
2187.22531	0.04096
2185.29654	0.04394
2183.36777	0.04458
2181.439	0.0429
2179.51023	0.04004
2177.58146	0.03741
2175.65269	0.0363
2173.72392	0.03666
2171.79515	0.0365
2169.86638	0.03584
2167.93761	0.03502
2166.00884	0.03261
2164.08007	0.02873
2162.1513	0.02654
2160.22253	0.02769
2158.29376	0.03067
2156.36499	0.03314
2154.43622	0.03335
2152.50744	0.03298
2150.57867	0.03523
2148.6499	0.03959
2146.72113	0.04177
2144.79236	0.04045
2142.86359	0.03876
2140.93482	0.03868
2139.00605	0.03955
2137.07728	0.0399
2135.14851	0.03953
2133.21974	0.03937
2131.29097	0.03972
2129.3622	0.04103
2127.43343	0.04306
2125.50466	0.04422
2123.57589	0.04421
2121.64712	0.04463
2119.71835	0.04594
2117.78958	0.04637
2115.86081	0.04577
2113.93204	0.0454
2112.00327	0.04532
2110.0745	0.04472
2108.14573	0.0434
2106.21696	0.042
2104.28819	0.04148
2102.35942	0.04169
2100.43065	0.04161
2098.50188	0.04065
2096.57311	0.03962
2094.64434	0.03932
2092.71557	0.03997
2090.7868	0.0412
2088.85803	0.04199
2086.92926	0.04147
2085.00049	0.04044
2083.07172	0.03999
2081.14295	0.04005
2079.21418	0.04012
2077.28541	0.04003
2075.35664	0.03988
2073.42787	0.03972
2071.4991	0.03891
2069.57033	0.03671
2067.64156	0.03415
2065.71279	0.03297
2063.78402	0.03318
2061.85525	0.03354
2059.92648	0.03389
2057.99771	0.03388
2056.06894	0.03358
2054.14017	0.03357
2052.2114	0.03269
2050.28263	0.03093
2048.35386	0.02946
2046.42509	0.02777
2044.49632	0.02565
2042.56755	0.02461
2040.63878	0.0249
2038.71001	0.02408
2036.78124	0.02028
2034.85247	0.01488
2032.9237	0.01115
2030.99493	0.01216
2029.06616	0.01572
2027.13739	0.01644
2025.20862	0.0133
2023.27985	0.01117
2021.35108	0.0116
2019.42231	0.01166
2017.49354	0.01121
2015.56477	0.01106
2013.636	0.01061
2011.70723	0.01031
2009.77846	0.01023
2007.84969	0.00941
2005.92092	0.00911
2003.99215	0.01056
2002.06338	0.01281
2000.13461	0.01492
1998.20584	0.01578
1996.27707	0.01555
1994.3483	0.01496
1992.41953	0.01357
1990.49076	0.01159
1988.56199	0.01172
1986.63322	0.01412
1984.70445	0.0152
1982.77568	0.01374
1980.8469	0.01125
1978.91813	0.00839
1976.98936	0.00554
1975.06059	0.00356
1973.13182	0.00326
1971.20305	0.00478
1969.27428	0.00769
1967.34551	0.01092
1965.41674	0.0133
1963.48797	0.01443
1961.5592	0.01513
1959.63043	0.01634
1957.70166	0.01762
1955.77289	0.01853
1953.84412	0.01974
1951.91535	0.02146
1949.98658	0.02274
1948.05781	0.02314
1946.12904	0.02304
1944.20027	0.02301
1942.2715	0.02312
1940.34273	0.02323
1938.41396	0.02364
1936.48519	0.02434
1934.55642	0.02547
1932.62765	0.0269
1930.69888	0.02789
1928.77011	0.02778
1926.84134	0.02746
1924.91257	0.02786
1922.9838	0.0287
1921.05503	0.02882
1919.12626	0.02849
1917.19749	0.02919
1915.26872	0.03033
1913.33995	0.03066
1911.41118	0.03026
1909.48241	0.0295
1907.55364	0.02801
1905.62487	0.02644
1903.6961	0.02539
1901.76733	0.02514
1899.83856	0.02518
1897.90979	0.02581
1895.98102	0.02687
1894.05225	0.02749
1892.12348	0.02724
1890.19471	0.02699
1888.26594	0.02725
1886.33717	0.02765
1884.4084	0.02791
1882.47963	0.02766
1880.55086	0.0269
1878.62209	0.02577
1876.69332	0.02487
1874.76455	0.02476
1872.83578	0.02509
1870.90701	0.02535
1868.97824	0.02576
1867.04947	0.02616
1865.1207	0.02569
1863.19193	0.02471
1861.26316	0.0241
1859.33439	0.0237
1857.40562	0.02316
1855.47685	0.02269
1853.54808	0.02244
1851.61931	0.02255
1849.69054	0.02303
1847.76177	0.02373
1845.833	0.02435
1843.90423	0.02483
1841.97546	0.02436
1840.04669	0.02301
1838.11792	0.02203
1836.18915	0.02229
1834.26038	0.0227
1832.33161	0.02201
1830.40284	0.02074
1828.47407	0.02049
1826.5453	0.02111
1824.61653	0.02166
1822.68776	0.02163
1820.75899	0.02123
1818.83022	0.02127
1816.90145	0.02153
1814.97268	0.02157
1813.04391	0.02183
1811.11514	0.0226
1809.18636	0.02301
1807.25759	0.02276
1805.32882	0.02287
1803.40005	0.02393
1801.47128	0.02463
1799.54251	0.02416
1797.61374	0.02354
1795.68497	0.02322
1793.7562	0.02355
1791.82743	0.02476
1789.89866	0.02575
1787.96989	0.02579
1786.04112	0.02583
1784.11235	0.0258
1782.18358	0.02547
1780.25481	0.02544
1778.32604	0.02563
1776.39727	0.02472
1774.4685	0.02301
1772.53973	0.02298
1770.61096	0.02542
1768.68219	0.02743
1766.75342	0.02689
1764.82465	0.02504
1762.89588	0.02398
1760.96711	0.02468
1759.03834	0.02589
1757.10957	0.02673
1755.1808	0.02714
1753.25203	0.02761
1751.32326	0.02846
1749.39449	0.02864
1747.46572	0.0281
1745.53695	0.02734
1743.60818	0.02607
1741.67941	0.02479
1739.75064	0.02462
1737.82187	0.02509
1735.8931	0.02572
1733.96433	0.02729
1732.03556	0.02872
1730.10679	0.02817
1728.17802	0.02661
1726.24925	0.02556
1724.32048	0.02531
1722.39171	0.02491
1720.46294	0.024
1718.53417	0.02455
1716.6054	0.0278
1714.67663	0.03076
1712.74786	0.03131
1710.81909	0.03055
1708.89032	0.02964
1706.96155	0.03005
1705.03278	0.03213
1703.10401	0.03407
1701.17524	0.03513
1699.24647	0.03648
1697.3177	0.03856
1695.38893	0.04138
1693.46016	0.04375
1691.53139	0.0454
1689.60262	0.04653
1687.67385	0.04657
1685.74508	0.04756
1683.81631	0.05373
1681.88754	0.06113
1679.95877	0.06416
1678.03	0.06472
1676.10123	0.06629
1674.17246	0.0691
1672.24369	0.07162
1670.31492	0.07516
1668.38615	0.08016
1666.45738	0.08334
1664.52861	0.08506
1662.59984	0.08845
1660.67107	0.09294
1658.7423	0.0951
1656.81353	0.09448
1654.88476	0.0943
1652.95599	0.09726
1651.02722	0.09971
1649.09845	0.09851
1647.16968	0.09804
1645.24091	0.10005
1643.31214	0.10089
1641.38337	0.09889
1639.4546	0.09506
1637.52583	0.09102
1635.59705	0.08938
1633.66828	0.08928
1631.73951	0.08742
1629.81074	0.08367
1627.88197	0.07963
1625.9532	0.07617
1624.02443	0.07315
1622.09566	0.06998
1620.16689	0.06564
1618.23812	0.05999
1616.30935	0.05537
1614.38058	0.05264
1612.45181	0.05005
1610.52304	0.04681
1608.59427	0.04335
1606.6655	0.03996
1604.73673	0.03665
1602.80796	0.03385
1600.87919	0.03155
1598.95042	0.02941
1597.02165	0.02726
1595.09288	0.02533
1593.16411	0.02384
1591.23534	0.02257
1589.30657	0.0213
1587.3778	0.01995
1585.44903	0.01875
1583.52026	0.0177
1581.59149	0.01643
1579.66272	0.0145
1577.73395	0.01271
1575.80518	0.01283
1573.87641	0.01367
1571.94764	0.01313
1570.01887	0.01222
1568.0901	0.01241
1566.16133	0.01267
1564.23256	0.01169
1562.30379	0.00925
1560.37502	0.00754
1558.44625	0.00962
1556.51748	0.01389
1554.58871	0.01568
1552.65994	0.01601
1550.73117	0.01591
1548.8024	0.01558
1546.87363	0.01482
1544.94486	0.01289
1543.01609	0.00878
1541.08732	0.00539
1539.15855	0.00791
1537.22978	0.01182
1535.30101	0.01295
1533.37224	0.01285
1531.44347	0.01303
1529.5147	0.01307
1527.58593	0.01326
1525.65716	0.01316
1523.72839	0.01217
1521.79962	0.01222
1519.87085	0.01408
1517.94208	0.01638
1516.01331	0.01846
1514.08454	0.01953
1512.15577	0.01964
1510.227	0.0191
1508.29823	0.01855
1506.36946	0.01889
1504.44069	0.02024
1502.51192	0.02079
1500.58315	0.02032
1498.65438	0.02058
1496.72561	0.02288
1494.79684	0.02569
1492.86807	0.02799
1490.9393	0.03197
1489.01053	0.03872
1487.08176	0.04526
1485.15299	0.05033
1483.22422	0.05591
1481.29545	0.06339
1479.36668	0.07189
1477.43791	0.08083
1475.50914	0.0921
1473.58037	0.1076
1471.6516	0.12435
1469.72283	0.13554
1467.79406	0.14251
1465.86529	0.15101
1463.93651	0.16119
1462.00774	0.16758
1460.07897	0.17054
1458.1502	0.17597
1456.22143	0.18389
1454.29266	0.18605
1452.36389	0.18178
1450.43512	0.17497
1448.50635	0.16757
1446.57758	0.16083
1444.64881	0.15584
1442.72004	0.15274
1440.79127	0.15147
1438.8625	0.15282
1436.93373	0.15768
1435.00496	0.16326
1433.07619	0.16644
1431.14742	0.16925
1429.21865	0.17359
1427.28988	0.17808
1425.36111	0.18213
1423.43234	0.18619
1421.50357	0.19082
1419.5748	0.19801
1417.64603	0.20614
1415.71726	0.21056
1413.78849	0.21242
1411.85972	0.21487
1409.93095	0.21746
1408.00218	0.21867
1406.07341	0.21849
1404.14464	0.21657
1402.21587	0.2126
1400.2871	0.20855
1398.35833	0.2075
1396.42956	0.21046
1394.50079	0.21371
1392.57202	0.2128
1390.64325	0.20985
1388.71448	0.21069
1386.78571	0.21664
1384.85694	0.22354
1382.92817	0.22956
1380.9994	0.23558
1379.07063	0.24109
1377.14186	0.24507
1375.21309	0.24803
1373.28432	0.25018
1371.35555	0.25044
1369.42678	0.24917
1367.49801	0.24753
1365.56924	0.24589
1363.64047	0.24404
1361.7117	0.24102
1359.78293	0.23581
1357.85416	0.22972
1355.92539	0.22422
1353.99662	0.21996
1352.06785	0.21686
1350.13908	0.21479
1348.21031	0.21381
1346.28154	0.21385
1344.35277	0.21505
1342.424	0.21838
1340.49523	0.2244
1338.56646	0.23049
1336.63769	0.23352
1334.70892	0.23378
1332.78015	0.23331
1330.85138	0.23248
1328.92261	0.23062
1326.99384	0.22738
1325.06507	0.22268
1323.1363	0.21667
1321.20753	0.20956
1319.27876	0.2018
1317.34999	0.19353
1315.42122	0.18503
1313.49245	0.17683
1311.56368	0.16965
1309.63491	0.1643
1307.70614	0.16106
1305.77737	0.15978
1303.8486	0.15997
1301.91983	0.16089
1299.99106	0.16173
1298.06229	0.1617
1296.13352	0.16013
1294.20475	0.15704
1292.27597	0.15292
1290.3472	0.14837
1288.41843	0.14359
1286.48966	0.13831
1284.56089	0.1331
1282.63212	0.12862
1280.70335	0.12501
1278.77458	0.12199
1276.84581	0.11919
1274.91704	0.11646
1272.98827	0.11322
1271.0595	0.10844
1269.13073	0.10119
1267.20196	0.09153
1265.27319	0.08107
1263.34442	0.07236
1261.41565	0.0681
1259.48688	0.06967
1257.55811	0.07627
1255.62934	0.08594
1253.70057	0.09648
1251.7718	0.10564
1249.84303	0.11144
1247.91426	0.11374
1245.98549	0.1143
1244.05672	0.11499
1242.12795	0.11489
1240.19918	0.11172
1238.27041	0.10644
1236.34164	0.10152
1234.41287	0.09696
1232.4841	0.09175
1230.55533	0.08559
1228.62656	0.07907
1226.69779	0.07262
1224.76902	0.06639
1222.84025	0.06038
1220.91148	0.05487
1218.98271	0.05061
1217.05394	0.04752
1215.12517	0.04559
1213.1964	0.04454
1211.26763	0.04377
1209.33886	0.04309
1207.41009	0.0421
1205.48132	0.0401
1203.55255	0.03708
1201.62378	0.03326
1199.69501	0.02856
1197.76624	0.02378
1195.83747	0.01938
1193.9087	0.01592
1191.97993	0.01377
1190.05116	0.01323
1188.12239	0.01494
1186.19362	0.01951
1184.26485	0.02684
1182.33608	0.03702
1180.40731	0.05055
1178.47854	0.06831
1176.54977	0.09009
1174.621	0.11543
1172.69223	0.14377
1170.76346	0.17503
1168.83469	0.20862
1166.90592	0.24344
1164.97715	0.279
1163.04838	0.31434
1161.11961	0.34778
1159.19084	0.37787
1157.26207	0.40322
1155.3333	0.42273
1153.40453	0.43568
1151.47576	0.4417
1149.54699	0.4416
1147.61822	0.43646
1145.68945	0.42782
1143.76068	0.41714
1141.83191	0.4061
1139.90314	0.39629
1137.97437	0.38911
1136.0456	0.38521
1134.11683	0.38474
1132.18806	0.38719
1130.25929	0.39139
1128.33052	0.39581
1126.40175	0.39935
1124.47298	0.40128
1122.54421	0.40125
1120.61544	0.40027
1118.68666	0.39973
1116.75789	0.40086
1114.82912	0.40375
1112.90035	0.40824
1110.97158	0.41433
1109.04281	0.42108
1107.11404	0.42732
1105.18527	0.43247
1103.2565	0.4363
1101.32773	0.4394
1099.39896	0.44338
1097.47019	0.45079
1095.54142	0.46316
1093.61265	0.48187
1091.68388	0.50802
1089.75511	0.54087
1087.82634	0.57723
1085.89757	0.6133
1083.9688	0.64478
1082.04003	0.66655
1080.11126	0.67388
1078.18249	0.66568
1076.25372	0.64618
1074.32495	0.62368
1072.39618	0.60637
1070.46741	0.60043
1068.53864	0.60813
1066.60987	0.62312
1064.6811	0.63607
1062.75233	0.64683
1060.82356	0.66167
1058.89479	0.68133
1056.96602	0.70092
1055.03725	0.71854
1053.10848	0.73644
1051.17971	0.75581
1049.25094	0.77642
1047.32217	0.79841
1045.3934	0.82099
1043.46463	0.84356
1041.53586	0.86636
1039.60709	0.88937
1037.67832	0.91144
1035.74955	0.93088
1033.82078	0.94806
1031.89201	0.96436
1029.96324	0.98088
1028.03447	0.99442
1026.1057	1
1024.17693	0.99873
1022.24816	0.99541
1020.31939	0.99152
1018.39062	0.98725
1016.46185	0.98343
1014.53308	0.98048
1012.60431	0.97811
1010.67554	0.97553
1008.74677	0.97149
1006.818	0.96467
1004.88923	0.95333
1002.96046	0.93587
1001.03169	0.91163
999.10292	0.88067
997.17415	0.84396
995.24538	0.80294
993.31661	0.75987
991.38784	0.71711
989.45907	0.67645
987.5303	0.63828
985.60153	0.60251
983.67276	0.56915
981.74399	0.53768
979.81522	0.50782
977.88645	0.4792
975.95768	0.45087
974.02891	0.42188
972.10014	0.3921
970.17137	0.3618
968.2426	0.33216
966.31383	0.30521
964.38506	0.28308
962.45629	0.26773
960.52752	0.26041
958.59875	0.26162
956.66998	0.2707
954.74121	0.28533
952.81244	0.30178
950.88367	0.31589
948.9549	0.32418
947.02612	0.32538
945.09735	0.32141
943.16858	0.31467
941.23981	0.30647
939.31104	0.29805
937.38227	0.29051
935.4535	0.28413
933.52473	0.27877
931.59596	0.27371
929.66719	0.26821
927.73842	0.26139
925.80965	0.25224
923.88088	0.2401
921.95211	0.22592
920.02334	0.21109
918.09457	0.19654
916.1658	0.18294
914.23703	0.17081
912.30826	0.16012
910.37949	0.15061
908.45072	0.1419
906.52195	0.13348
904.59318	0.12528
902.66441	0.11745
900.73564	0.11063
898.80687	0.1052
896.8781	0.10108
894.94933	0.09792
893.02056	0.09475
891.09179	0.09005
889.16302	0.08323
887.23425	0.07576
885.30548	0.06931
883.37671	0.06461
881.44794	0.06203
879.51917	0.06134
877.5904	0.0624
875.66163	0.06616
873.73286	0.07328
871.80409	0.08265
869.87532	0.09319
867.94655	0.10454
866.01778	0.11603
864.08901	0.12759
862.16024	0.1393
860.23147	0.1505
858.3027	0.15995
856.37393	0.16692
854.44516	0.17112
852.51639	0.17276
850.58762	0.17222
848.65885	0.17022
846.73008	0.16792
844.80131	0.16512
842.87254	0.16137
840.94377	0.15587
839.015	0.14818
837.08623	0.1375
835.15746	0.12375
833.22869	0.10833
831.29992	0.0932
829.37115	0.07968
827.44238	0.06783
825.51361	0.05796
823.58484	0.04997
821.65607	0.04323
819.7273	0.03729
817.79853	0.03179
815.86976	0.02702
813.94099	0.0229
812.01222	0.01944
810.08345	0.01664
808.15468	0.01405
806.22591	0.01183
804.29714	0.01041
802.36837	0.01002
800.4396	0.01056
798.51083	0.01196
796.58206	0.01408
794.65329	0.01686
792.72452	0.0203
790.79575	0.02461
788.86698	0.02965
786.93821	0.03505
785.00944	0.04068
783.08067	0.04666
781.1519	0.05258
779.22313	0.05755
777.29436	0.06135
775.36558	0.06435
773.43681	0.06742
771.50804	0.07188
769.57927	0.07845
767.6505	0.08713
765.72173	0.09728
763.79296	0.10765
761.86419	0.11721
759.93542	0.12495
758.00665	0.13035
756.07788	0.13277
754.14911	0.13153
752.22034	0.12673
750.29157	0.1193
748.3628	0.11056
746.43403	0.10196
744.50526	0.09497
742.57649	0.09016
740.64772	0.08725
738.71895	0.08595
736.79018	0.08574
734.86141	0.08611
732.93264	0.08692
731.00387	0.08831
729.0751	0.09015
727.14633	0.0922
725.21756	0.09505
723.28879	0.10191
721.36002	0.1079
719.43125	0.11236
717.50248	0.11703
715.57371	0.12383
713.64494	0.1312
711.71617	0.13835
709.7874	0.14442
707.85863	0.14844
705.92986	0.14998
704.00109	0.14925
702.07232	0.14664
700.14355	0.14227
698.21478	0.1371
696.28601	0.13266
694.35724	0.12931
692.42847	0.1264
690.4997	0.12357
688.57093	0.12175
686.64216	0.12147
684.71339	0.12184
682.78462	0.12207
680.85585	0.12252
678.92708	0.12384
676.99831	0.12662
675.06954	0.12808
673.14077	0.11686
671.212	0.09849
669.28323	0.123
667.35446	0.14416
665.42569	0.11347
663.49692	0.12449
661.56815	0.13689
659.63938	0.13727
657.71061	0.13582
655.78184	0.13626
653.85307	0.13685
651.9243	0.13723
649.99553	0.13753
648.06676	0.13739
646.13799	0.13711
644.20922	0.13712
642.28045	0.13661
640.35168	0.13553
638.42291	0.1343
636.49414	0.13328
634.56537	0.13293
632.6366	0.13337
630.70783	0.13433
628.77906	0.13623
626.85029	0.13814
624.92152	0.14099
622.99275	0.14516
621.06398	0.15144
619.13521	0.1602
617.20644	0.16815
615.27767	0.17283
613.3489	0.17634
611.42013	0.18036
609.49136	0.18365
607.56259	0.18555
605.63382	0.18644
603.70505	0.18659
601.77627	0.18667
599.8475	0.18726
597.91873	0.18815
595.98996	0.18947
594.06119	0.19152
592.13242	0.19423
590.20365	0.19708
588.27488	0.19979
586.34611	0.20235
584.41734	0.20483
582.48857	0.20718
580.5598	0.20886
578.63103	0.20923
576.70226	0.20786
574.77349	0.20473
572.84472	0.2
570.91595	0.19439
568.98718	0.18835
567.05841	0.18179
565.12964	0.17516
563.20087	0.16926
561.2721	0.16438
559.34333	0.16045
557.41456	0.15718
555.48579	0.15449
553.55702	0.15209
551.62825	0.15028
549.69948	0.14905
547.77071	0.14803
545.84194	0.14666
543.91317	0.14535
541.9844	0.14448
540.05563	0.14406
538.12686	0.14348
536.19809	0.14232
534.26932	0.14087
532.34055	0.13949
530.41178	0.13797
528.48301	0.13674
526.55424	0.13573
524.62547	0.1342
522.6967	0.13188
520.76793	0.12977
518.83916	0.12774
516.91039	0.12512
514.98162	0.12214
513.05285	0.11945
511.12408	0.11727
509.19531	0.11502
507.26654	0.11276
505.33777	0.11058
503.409	0.10862
501.48023	0.10674
499.55146	0.10448
497.62269	0.10194
495.69392	0.09991
493.76515	0.0986
491.83638	0.09759
489.90761	0.09614
487.97884	0.09389
486.05007	0.09134
484.1213	0.08916
482.19253	0.088
480.26376	0.08728
478.33499	0.08612
476.40622	0.08431
474.47745	0.08169
472.54868	0.07878
470.61991	0.07602
468.69114	0.07304
466.76237	0.06947
464.8336	0.06569
462.90483	0.06242
460.97606	0.05987
459.04729	0.05769
457.11852	0.05558
455.18975	0.05377
453.26098	0.05217
451.33221	0.05065
449.40344	0.04949
447.47467	0.04906
445.5459	0.04936
443.61713	0.04981
441.68836	0.04931
439.75959	0.04786
437.83082	0.04684
435.90205	0.04656
433.97328	0.04606
432.04451	0.04461
430.11573	0.04265
428.18696	0.04054
426.25819	0.03851
424.32942	0.03647
422.40065	0.03444
420.47188	0.0327
418.54311	0.03066
416.61434	0.02775
414.68557	0.02477
412.7568	0.02194
410.82803	0.01874
408.89926	0.01546
406.97049	0.01285
405.04172	0.0111
403.11295	0.00973
401.18418	0.0093
399.25541	0.01025