3996.41167	0.01471
3994.4829	0.01454
3992.55413	0.01415
3990.62536	0.01379
3988.69659	0.0137
3986.76782	0.01383
3984.83905	0.01411
3982.91028	0.01447
3980.98151	0.01486
3979.05274	0.01507
3977.12397	0.01509
3975.1952	0.01492
3973.26643	0.01464
3971.33766	0.01444
3969.40889	0.01408
3967.48012	0.01339
3965.55135	0.01307
3963.62258	0.01392
3961.69381	0.01491
3959.76504	0.01459
3957.83627	0.01345
3955.9075	0.0128
3953.97873	0.01323
3952.04996	0.01452
3950.12119	0.01618
3948.19242	0.01699
3946.26365	0.01656
3944.33488	0.01635
3942.40611	0.01693
3940.47734	0.01639
3938.54857	0.01428
3936.6198	0.01213
3934.69103	0.01155
3932.76226	0.01296
3930.83349	0.0141
3928.90472	0.01296
3926.97595	0.01156
3925.04718	0.01225
3923.11841	0.01324
3921.18964	0.01277
3919.26087	0.01302
3917.3321	0.01468
3915.40333	0.015
3913.47456	0.013
3911.54579	0.01037
3909.61702	0.00833
3907.68825	0.00757
3905.75948	0.00983
3903.83071	0.01519
3901.90194	0.01966
3899.97317	0.02054
3898.0444	0.01824
3896.11563	0.014
3894.18686	0.01058
3892.25809	0.01037
3890.32932	0.01103
3888.40055	0.01011
3886.47178	0.01032
3884.54301	0.01217
3882.61424	0.0132
3880.68547	0.01382
3878.7567	0.01294
3876.82792	0.0096
3874.89915	0.00797
3872.97038	0.01034
3871.04161	0.0144
3869.11284	0.01685
3867.18407	0.01575
3865.2553	0.01423
3863.32653	0.01534
3861.39776	0.01573
3859.46899	0.01205
3857.54022	0.0056
3855.61145	0.00203
3853.68268	0.0074
3851.75391	0.01568
3849.82514	0.01645
3847.89637	0.01247
3845.9676	0.00893
3844.03883	0.00709
3842.11006	0.00617
3840.18129	0.00656
3838.25252	0.00927
3836.32375	0.01172
3834.39498	0.01159
3832.46621	0.01072
3830.53744	0.00995
3828.60867	0.0087
3826.6799	0.00707
3824.75113	0.00459
3822.82236	0.00334
3820.89359	0.0065
3818.96482	0.0101
3817.03605	0.01106
3815.10728	0.01115
3813.17851	0.00934
3811.24974	0.00543
3809.32097	0.00261
3807.3922	0.00271
3805.46343	0.00299
3803.53466	0.00177
3801.60589	0.00292
3799.67712	0.00615
3797.74835	0.00751
3795.81958	0.00757
3793.89081	0.00707
3791.96204	0.00597
3790.03327	0.0049
3788.1045	0.00417
3786.17573	0.00393
3784.24696	0.00384
3782.31819	0.00322
3780.38942	0.00309
3778.46065	0.00405
3776.53188	0.00407
3774.60311	0.0024
3772.67434	0.00126
3770.74557	0.00229
3768.8168	0.00433
3766.88803	0.0051
3764.95926	0.00441
3763.03049	0.00263
3761.10172	0.00183
3759.17295	0.00402
3757.24418	0.00579
3755.31541	0.00334
3753.38664	0
3751.45787	0.0023
3749.5291	0.00845
3747.60033	0.01116
3745.67156	0.01391
3743.74279	0.01856
3741.81402	0.01806
3739.88525	0.01335
3737.95648	0.01279
3736.02771	0.01974
3734.09894	0.02677
3732.17017	0.02684
3730.2414	0.02318
3728.31263	0.0212
3726.38386	0.02236
3724.45509	0.02393
3722.52632	0.02322
3720.59755	0.02049
3718.66878	0.01657
3716.74001	0.01209
3714.81124	0.00764
3712.88247	0.00663
3710.9537	0.01265
3709.02493	0.01885
3707.09616	0.01942
3705.16739	0.01691
3703.23861	0.01613
3701.30984	0.01867
3699.38107	0.02148
3697.4523	0.02207
3695.52353	0.02107
3693.59476	0.01953
3691.66599	0.01965
3689.73722	0.02387
3687.80845	0.02948
3685.87968	0.03109
3683.95091	0.02956
3682.02214	0.0278
3680.09337	0.02675
3678.1646	0.02743
3676.23583	0.03266
3674.30706	0.03917
3672.37829	0.04096
3670.44952	0.04205
3668.52075	0.04463
3666.59198	0.04496
3664.66321	0.04373
3662.73444	0.0434
3660.80567	0.04396
3658.8769	0.04545
3656.94813	0.04841
3655.01936	0.04994
3653.09059	0.04796
3651.16182	0.04931
3649.23305	0.06022
3647.30428	0.07009
3645.37551	0.07002
3643.44674	0.06628
3641.51797	0.06497
3639.5892	0.06606
3637.66043	0.06796
3635.73166	0.07006
3633.80289	0.07163
3631.87412	0.0732
3629.94535	0.07937
3628.01658	0.08998
3626.08781	0.09481
3624.15904	0.0929
3622.23027	0.09129
3620.3015	0.09485
3618.37273	0.10176
3616.44396	0.10636
3614.51519	0.10913
3612.58642	0.11301
3610.65765	0.11806
3608.72888	0.12423
3606.80011	0.12875
3604.87134	0.12961
3602.94257	0.1307
3601.0138	0.13522
3599.08503	0.14135
3597.15626	0.14689
3595.22749	0.15219
3593.29872	0.15556
3591.36995	0.15646
3589.44118	0.15978
3587.51241	0.16857
3585.58364	0.17601
3583.65487	0.17791
3581.7261	0.17844
3579.79733	0.18087
3577.86856	0.18524
3575.93979	0.19081
3574.01102	0.19642
3572.08225	0.2008
3570.15348	0.20524
3568.22471	0.21351
3566.29594	0.22435
3564.36717	0.231
3562.4384	0.23358
3560.50963	0.23616
3558.58086	0.23956
3556.65209	0.24293
3554.72332	0.24674
3552.79455	0.25171
3550.86578	0.25687
3548.93701	0.26222
3547.00824	0.26928
3545.07947	0.27668
3543.1507	0.28154
3541.22193	0.28435
3539.29316	0.28756
3537.36439	0.29224
3535.43562	0.29762
3533.50685	0.30267
3531.57807	0.30786
3529.6493	0.3144
3527.72053	0.32207
3525.79176	0.3291
3523.86299	0.33437
3521.93422	0.33814
3520.00545	0.34136
3518.07668	0.34495
3516.14791	0.34928
3514.21914	0.35422
3512.29037	0.36009
3510.3616	0.36648
3508.43283	0.3722
3506.50406	0.37732
3504.57529	0.38327
3502.64652	0.38958
3500.71775	0.39426
3498.78898	0.39788
3496.86021	0.40244
3494.93144	0.40798
3493.00267	0.4131
3491.0739	0.41755
3489.14513	0.42256
3487.21636	0.42865
3485.28759	0.43486
3483.35882	0.44069
3481.43005	0.44644
3479.50128	0.45175
3477.57251	0.45687
3475.64374	0.46259
3473.71497	0.46801
3471.7862	0.47213
3469.85743	0.47609
3467.92866	0.48144
3465.99989	0.4879
3464.07112	0.49478
3462.14235	0.5014
3460.21358	0.50701
3458.28481	0.51201
3456.35604	0.51736
3454.42727	0.52293
3452.4985	0.52805
3450.56973	0.53258
3448.64096	0.53755
3446.71219	0.54364
3444.78342	0.54906
3442.85465	0.55325
3440.92588	0.5574
3438.99711	0.56159
3437.06834	0.56525
3435.13957	0.56869
3433.2108	0.57209
3431.28203	0.57587
3429.35326	0.58032
3427.42449	0.58488
3425.49572	0.58869
3423.56695	0.59206
3421.63818	0.59553
3419.70941	0.5986
3417.78064	0.60066
3415.85187	0.60208
3413.9231	0.60312
3411.99433	0.60387
3410.06556	0.60499
3408.13679	0.60686
3406.20802	0.60881
3404.27925	0.60986
3402.35048	0.61008
3400.42171	0.61004
3398.49294	0.61031
3396.56417	0.61027
3394.6354	0.60986
3392.70663	0.60934
3390.77786	0.60863
3388.84909	0.60751
3386.92032	0.60628
3384.99155	0.60512
3383.06278	0.60392
3381.13401	0.60194
3379.20524	0.59921
3377.27647	0.59652
3375.3477	0.59387
3373.41893	0.59062
3371.49016	0.58729
3369.56139	0.5843
3367.63262	0.58132
3365.70385	0.5781
3363.77508	0.57466
3361.84631	0.57089
3359.91753	0.5673
3357.98876	0.56416
3356.05999	0.56054
3354.13122	0.55602
3352.20245	0.55131
3350.27368	0.54694
3348.34491	0.54256
3346.41614	0.53793
3344.48737	0.53322
3342.5586	0.5287
3340.62983	0.52463
3338.70106	0.52089
3336.77229	0.51689
3334.84352	0.51214
3332.91475	0.50714
3330.98598	0.50235
3329.05721	0.49753
3327.12844	0.49256
3325.19967	0.4877
3323.2709	0.48318
3321.34213	0.47892
3319.41336	0.47462
3317.48459	0.47018
3315.55582	0.46543
3313.62705	0.46039
3311.69828	0.45549
3309.76951	0.45089
3307.84074	0.44618
3305.91197	0.4411
3303.9832	0.43617
3302.05443	0.43198
3300.12566	0.42806
3298.19689	0.42335
3296.26812	0.41816
3294.33935	0.41367
3292.41058	0.4099
3290.48181	0.4059
3288.55304	0.40141
3286.62427	0.39715
3284.6955	0.39308
3282.76673	0.38871
3280.83796	0.38411
3278.90919	0.37978
3276.98042	0.37567
3275.05165	0.37144
3273.12288	0.36703
3271.19411	0.36255
3269.26534	0.35795
3267.33657	0.35347
3265.4078	0.34943
3263.47903	0.34569
3261.55026	0.34211
3259.62149	0.33841
3257.69272	0.33448
3255.76395	0.33034
3253.83518	0.32615
3251.90641	0.32208
3249.97764	0.31823
3248.04887	0.31445
3246.1201	0.31046
3244.19133	0.3062
3242.26256	0.30205
3240.33379	0.29801
3238.40502	0.29371
3236.47625	0.28915
3234.54748	0.28486
3232.61871	0.28108
3230.68994	0.2772
3228.76117	0.27279
3226.8324	0.26849
3224.90363	0.2649
3222.97486	0.26146
3221.04609	0.25765
3219.11732	0.25354
3217.18855	0.24909
3215.25978	0.24461
3213.33101	0.24076
3211.40224	0.23755
3209.47347	0.2343
3207.5447	0.23071
3205.61593	0.22671
3203.68716	0.22271
3201.75839	0.21901
3199.82962	0.21539
3197.90085	0.21187
3195.97208	0.20859
3194.04331	0.2053
3192.11454	0.20201
3190.18577	0.19883
3188.257	0.19536
3186.32822	0.19147
3184.39945	0.18777
3182.47068	0.18467
3180.54191	0.18228
3178.61314	0.18
3176.68437	0.17708
3174.7556	0.17383
3172.82683	0.17081
3170.89806	0.16778
3168.96929	0.16472
3167.04052	0.1618
3165.11175	0.15896
3163.18298	0.15601
3161.25421	0.15328
3159.32544	0.15097
3157.39667	0.14895
3155.4679	0.14708
3153.53913	0.1451
3151.61036	0.14252
3149.68159	0.13949
3147.75282	0.1371
3145.82405	0.13557
3143.89528	0.134
3141.96651	0.13176
3140.03774	0.12941
3138.10897	0.12731
3136.1802	0.1253
3134.25143	0.12332
3132.32266	0.12156
3130.39389	0.12014
3128.46512	0.11846
3126.53635	0.11659
3124.60758	0.11521
3122.67881	0.11446
3120.75004	0.11349
3118.82127	0.11162
3116.8925	0.10942
3114.96373	0.10748
3113.03496	0.10565
3111.10619	0.10397
3109.17742	0.10258
3107.24865	0.1012
3105.31988	0.09967
3103.39111	0.09833
3101.46234	0.09743
3099.53357	0.09679
3097.6048	0.09616
3095.67603	0.09538
3093.74726	0.09437
3091.81849	0.09328
3089.88972	0.09205
3087.96095	0.09067
3086.03218	0.0894
3084.10341	0.08843
3082.17464	0.08768
3080.24587	0.08694
3078.3171	0.08615
3076.38833	0.08518
3074.45956	0.0838
3072.53079	0.08242
3070.60202	0.08141
3068.67325	0.08077
3066.74448	0.08047
3064.81571	0.0801
3062.88694	0.07936
3060.95817	0.07842
3059.0294	0.07782
3057.10063	0.07775
3055.17186	0.07775
3053.24309	0.07757
3051.31432	0.07704
3049.38555	0.07626
3047.45678	0.07574
3045.52801	0.07581
3043.59924	0.07611
3041.67047	0.07619
3039.7417	0.07623
3037.81293	0.07664
3035.88416	0.07757
3033.95539	0.07877
3032.02662	0.08008
3030.09785	0.08176
3028.16908	0.08397
3026.24031	0.08681
3024.31154	0.08999
3022.38277	0.09317
3020.454	0.09649
3018.52523	0.10064
3016.59646	0.10573
3014.66768	0.11126
3012.73891	0.11713
3010.81014	0.12337
3008.88137	0.13025
3006.9526	0.13784
3005.02383	0.14606
3003.09506	0.15488
3001.16629	0.16415
2999.23752	0.17316
2997.30875	0.18195
2995.37998	0.19051
2993.45121	0.19948
2991.52244	0.20991
2989.59367	0.22026
2987.6649	0.22729
2985.73613	0.23084
2983.80736	0.23327
2981.87859	0.23608
2979.94982	0.23929
2978.02105	0.24232
2976.09228	0.24501
2974.16351	0.24771
2972.23474	0.25002
2970.30597	0.2513
2968.3772	0.25204
2966.44843	0.25347
2964.51966	0.25649
2962.59089	0.26188
2960.66212	0.26995
2958.73335	0.28034
2956.80458	0.29231
2954.87581	0.30531
2952.94704	0.31881
2951.01827	0.33249
2949.0895	0.34662
2947.16073	0.36105
2945.23196	0.37503
2943.30319	0.38766
2941.37442	0.39865
2939.44565	0.40848
2937.51688	0.41738
2935.58811	0.42478
2933.65934	0.43028
2931.73057	0.43405
2929.8018	0.43633
2927.87303	0.43697
2925.94426	0.43596
2924.01549	0.43372
2922.08672	0.43058
2920.15795	0.42647
2918.22918	0.42128
2916.30041	0.41541
2914.37164	0.40965
2912.44287	0.4042
2910.5141	0.39867
2908.58533	0.39373
2906.65656	0.39056
2904.72779	0.38914
2902.79902	0.38876
2900.87025	0.38757
2898.94148	0.38413
2897.01271	0.37938
2895.08394	0.37423
2893.15517	0.36821
2891.2264	0.36111
2889.29763	0.35319
2887.36886	0.34463
2885.44009	0.33562
2883.51132	0.32568
2881.58255	0.31454
2879.65378	0.30262
2877.72501	0.29073
2875.79624	0.27948
2873.86747	0.26872
2871.9387	0.25792
2870.00993	0.247
2868.08116	0.23661
2866.15239	0.22708
2864.22362	0.21864
2862.29485	0.21184
2860.36608	0.20679
2858.43731	0.20343
2856.50854	0.20204
2854.57977	0.20257
2852.651	0.20459
2850.72223	0.2084
2848.79346	0.21401
2846.86469	0.22048
2844.93592	0.22702
2843.00714	0.23341
2841.07837	0.23917
2839.1496	0.24317
2837.22083	0.24466
2835.29206	0.24373
2833.36329	0.24074
2831.43452	0.23581
2829.50575	0.22942
2827.57698	0.22258
2825.64821	0.21645
2823.71944	0.21092
2821.79067	0.20535
2819.8619	0.19963
2817.93313	0.19373
2816.00436	0.18745
2814.07559	0.18072
2812.14682	0.1731
2810.21805	0.16409
2808.28928	0.15407
2806.36051	0.14387
2804.43174	0.13408
2802.50297	0.12537
2800.5742	0.11823
2798.64543	0.11244
2796.71666	0.10777
2794.78789	0.10418
2792.85912	0.10153
2790.93035	0.09943
2789.00158	0.09749
2787.07281	0.09555
2785.14404	0.09402
2783.21527	0.09275
2781.2865	0.09148
2779.35773	0.09021
2777.42896	0.08935
2775.50019	0.08879
2773.57142	0.08815
2771.64265	0.08744
2769.71388	0.08685
2767.78511	0.08633
2765.85634	0.0858
2763.92757	0.08517
2761.9988	0.08457
2760.07003	0.08401
2758.14126	0.08334
2756.21249	0.08263
2754.28372	0.08214
2752.35495	0.08196
2750.42618	0.08192
2748.49741	0.08147
2746.56864	0.0802
2744.63987	0.0786
2742.7111	0.0774
2740.78233	0.07651
2738.85356	0.07565
2736.92479	0.07464
2734.99602	0.07352
2733.06725	0.07244
2731.13848	0.07173
2729.20971	0.0715
2727.28094	0.0715
2725.35217	0.07098
2723.4234	0.0699
2721.49463	0.06885
2719.56586	0.06807
2717.63709	0.06751
2715.70832	0.06702
2713.77955	0.06658
2711.85078	0.06632
2709.92201	0.06605
2707.99324	0.06568
2706.06447	0.06527
2704.1357	0.06482
2702.20693	0.06445
2700.27816	0.0643
2698.34939	0.06412
2696.42062	0.06389
2694.49185	0.06389
2692.56308	0.06397
2690.63431	0.06375
2688.70554	0.06322
2686.77677	0.06293
2684.848	0.06311
2682.91923	0.06356
2680.99046	0.06394
2679.06169	0.06398
2677.13292	0.0636
2675.20415	0.06304
2673.27538	0.06274
2671.34661	0.06263
2669.41783	0.0623
2667.48906	0.06204
2665.56029	0.06219
2663.63152	0.06256
2661.70275	0.06282
2659.77398	0.06286
2657.84521	0.0626
2655.91644	0.06204
2653.98767	0.06159
2652.0589	0.06141
2650.13013	0.06126
2648.20136	0.061
2646.27259	0.06055
2644.34382	0.05992
2642.41505	0.05936
2640.48628	0.05921
2638.55751	0.05925
2636.62874	0.05906
2634.69997	0.05869
2632.7712	0.05809
2630.84243	0.05731
2628.91366	0.05671
2626.98489	0.05656
2625.05612	0.05652
2623.12735	0.05626
2621.19858	0.05567
2619.26981	0.05481
2617.34104	0.05399
2615.41227	0.0535
2613.4835	0.05316
2611.55473	0.05283
2609.62596	0.05249
2607.69719	0.05231
2605.76842	0.05205
2603.83965	0.05152
2601.91088	0.05096
2599.98211	0.05082
2598.05334	0.051
2596.12457	0.05085
2594.1958	0.05018
2592.26703	0.04962
2590.33826	0.04932
2588.40949	0.04888
2586.48072	0.04843
2584.55195	0.04847
2582.62318	0.04869
2580.69441	0.04851
2578.76564	0.04798
2576.83687	0.04757
2574.9081	0.0472
2572.97933	0.04668
2571.05056	0.04623
2569.12179	0.0459
2567.19302	0.0459
2565.26425	0.0462
2563.33548	0.0459
2561.40671	0.04485
2559.47794	0.04422
2557.54917	0.0447
2555.6204	0.04549
2553.69163	0.0453
2551.76286	0.04426
2549.83409	0.04385
2547.90532	0.04422
2545.97655	0.04452
2544.04778	0.04426
2542.11901	0.04352
2540.19024	0.04299
2538.26147	0.04322
2536.3327	0.04363
2534.40393	0.04378
2532.47516	0.04378
2530.54639	0.04371
2528.61762	0.04371
2526.68885	0.04382
2524.76008	0.04412
2522.83131	0.04431
2520.90254	0.04394
2518.97377	0.04323
2517.045	0.04282
2515.11623	0.0427
2513.18746	0.04244
2511.25869	0.04203
2509.32992	0.04177
2507.40115	0.04196
2505.47238	0.04207
2503.54361	0.04163
2501.61484	0.04114
2499.68607	0.04133
2497.75729	0.04174
2495.82852	0.04185
2493.89975	0.04182
2491.97098	0.04148
2490.04221	0.041
2488.11344	0.04081
2486.18467	0.04085
2484.2559	0.04104
2482.32713	0.04115
2480.39836	0.04108
2478.46959	0.04096
2476.54082	0.04089
2474.61205	0.04097
2472.68328	0.04108
2470.75451	0.04123
2468.82574	0.04142
2466.89697	0.04168
2464.9682	0.04187
2463.03943	0.04183
2461.11066	0.04194
2459.18189	0.04228
2457.25312	0.04251
2455.32435	0.04217
2453.39558	0.04154
2451.46681	0.04083
2449.53804	0.04023
2447.60927	0.03997
2445.6805	0.03989
2443.75173	0.03971
2441.82296	0.03949
2439.89419	0.03919
2437.96542	0.039
2436.03665	0.03889
2434.10788	0.0387
2432.17911	0.03867
2430.25034	0.03874
2428.32157	0.03867
2426.3928	0.03822
2424.46403	0.03777
2422.53526	0.0377
2420.60649	0.038
2418.67772	0.03819
2416.74895	0.03819
2414.82018	0.03811
2412.89141	0.03789
2410.96264	0.03763
2409.03387	0.03748
2407.1051	0.03748
2405.17633	0.03759
2403.24756	0.03775
2401.31879	0.03767
2399.39002	0.03165
2397.46125	0.03068
2395.53248	0.03289
2393.60371	0.03536
2391.67494	0.03812
2389.74617	0.04153
2387.8174	0.04553
2385.88863	0.04968
2383.95986	0.05312
2382.03109	0.05547
2380.10232	0.05723
2378.17355	0.05891
2376.24478	0.06078
2374.31601	0.06295
2372.38724	0.06587
2370.45847	0.06987
2368.5297	0.07469
2366.60093	0.0788
2364.67216	0.08142
2362.74339	0.0831
2360.81462	0.08479
2358.88585	0.08594
2356.95708	0.08834
2355.02831	0.0951
2353.09954	0.10176
2351.17077	0.10718
2349.242	0.10725
2347.31323	0.10053
2345.38446	0.08961
2343.45569	0.08191
2341.52692	0.07896
2339.59815	0.07911
2337.66938	0.07848
2335.74061	0.07811
2333.81184	0.07867
2331.88307	0.08005
2329.9543	0.083
2328.02553	0.08682
2326.09675	0.08854
2324.16798	0.0851
2322.23921	0.0774
2320.31044	0.07142
2318.38167	0.06918
2316.4529	0.06757
2314.52413	0.06473
2312.59536	0.06152
2310.66659	0.05973
2308.73782	0.05939
2306.80905	0.05879
2304.88028	0.05764
2302.95151	0.05633
2301.02274	0.05521
2299.09397	0.05446
2297.1652	0.05357
2295.23643	0.05218
2293.30766	0.05039
2291.37889	0.04852
2289.45012	0.04665
2287.52135	0.04456
2285.59258	0.04213
2283.66381	0.03974
2281.73504	0.03784
2279.80627	0.03619
2277.8775	0.0347
2275.94873	0.03376
2274.01996	0.03369
2272.09119	0.03395
2270.16242	0.03395
2268.23365	0.03358
2266.30488	0.03332
2264.37611	0.03399
2262.44734	0.03545
2260.51857	0.03628
2258.5898	0.03538
2256.66103	0.03355
2254.73226	0.03258
2252.80349	0.0337
2250.87472	0.03546
2248.94595	0.03482
2247.01718	0.03475
2245.08841	0.03404
2243.15964	0.03311
2241.23087	0.03266
2239.3021	0.03273
2237.37333	0.03318
2235.44456	0.03333
2233.51579	0.03251
2231.58702	0.03192
2229.65825	0.0321
2227.72948	0.03188
2225.80071	0.03139
2223.87194	0.03154
2221.94317	0.03173
2220.0144	0.03136
2218.08563	0.03076
2216.15686	0.03043
2214.22809	0.03069
2212.29932	0.03114
2210.37055	0.03125
2208.44178	0.03163
2206.51301	0.03264
2204.58424	0.03338
2202.65547	0.03327
2200.7267	0.03324
2198.79793	0.03391
2196.86916	0.03466
2194.94039	0.0344
2193.01162	0.03324
2191.08285	0.03238
2189.15408	0.03294
2187.22531	0.03448
2185.29654	0.03448
2183.36777	0.03182
2181.439	0.02951
2179.51023	0.02966
2177.58146	0.03007
2175.65269	0.0291
2173.72392	0.0282
2171.79515	0.02824
2169.86638	0.02899
2167.93761	0.03
2166.00884	0.03082
2164.08007	0.03161
2162.1513	0.03131
2160.22253	0.02664
2158.29376	0.0201
2156.36499	0.0186
2154.43622	0.02055
2152.50744	0.02227
2150.57867	0.02459
2148.6499	0.02758
2146.72113	0.02934
2144.79236	0.02941
2142.86359	0.02938
2140.93482	0.03016
2139.00605	0.03106
2137.07728	0.03113
2135.14851	0.03061
2133.21974	0.03046
2131.29097	0.0311
2129.3622	0.03222
2127.43343	0.03361
2125.50466	0.03495
2123.57589	0.03622
2121.64712	0.03761
2119.71835	0.03925
2117.78958	0.04038
2115.86081	0.04075
2113.93204	0.04098
2112.00327	0.04139
2110.0745	0.04116
2108.14573	0.03993
2106.21696	0.03881
2104.28819	0.03855
2102.35942	0.03836
2100.43065	0.03799
2098.50188	0.03758
2096.57311	0.03695
2094.64434	0.03646
2092.71557	0.03676
2090.7868	0.0377
2088.85803	0.03837
2086.92926	0.03874
2085.00049	0.03927
2083.07172	0.03964
2081.14295	0.03961
2079.21418	0.03987
2077.28541	0.04032
2075.35664	0.04066
2073.42787	0.04062
2071.4991	0.03995
2069.57033	0.03894
2067.64156	0.0386
2065.71279	0.03875
2063.78402	0.03831
2061.85525	0.03726
2059.92648	0.03644
2057.99771	0.03565
2056.06894	0.03487
2054.14017	0.03573
2052.2114	0.03846
2050.28263	0.03988
2048.35386	0.03771
2046.42509	0.03394
2044.49632	0.03151
2042.56755	0.03125
2040.63878	0.03163
2038.71001	0.03077
2036.78124	0.02789
2034.85247	0.02389
2032.9237	0.02128
2030.99493	0.02109
2029.06616	0.02113
2027.13739	0.01989
2025.20862	0.01877
2023.27985	0.01896
2021.35108	0.01922
2019.42231	0.01837
2017.49354	0.01691
2015.56477	0.01575
2013.636	0.01519
2011.70723	0.01497
2009.77846	0.01471
2007.84969	0.01441
2005.92092	0.01486
2003.99215	0.01568
2002.06338	0.01639
2000.13461	0.01706
1998.20584	0.01774
1996.27707	0.01826
1994.3483	0.01863
1992.41953	0.01923
1990.49076	0.02017
1988.56199	0.02133
1986.63322	0.02256
1984.70445	0.02323
1982.77568	0.02309
1980.8469	0.02174
1978.91813	0.01834
1976.98936	0.01367
1975.06059	0.01064
1973.13182	0.01045
1971.20305	0.0121
1969.27428	0.01419
1967.34551	0.01632
1965.41674	0.0183
1963.48797	0.01928
1961.5592	0.01905
1959.63043	0.01875
1957.70166	0.01928
1955.77289	0.0204
1953.84412	0.02122
1951.91535	0.02137
1949.98658	0.02115
1948.05781	0.02066
1946.12904	0.02007
1944.20027	0.01999
1942.2715	0.02066
1940.34273	0.02115
1938.41396	0.02089
1936.48519	0.02044
1934.55642	0.02044
1932.62765	0.02093
1930.69888	0.02145
1928.77011	0.02156
1926.84134	0.02164
1924.91257	0.02205
1922.9838	0.02261
1921.05503	0.02261
1919.12626	0.02239
1917.19749	0.02276
1915.26872	0.02347
1913.33995	0.02385
1911.41118	0.02396
1909.48241	0.02392
1907.55364	0.02366
1905.62487	0.02325
1903.6961	0.02321
1901.76733	0.02351
1899.83856	0.024
1897.90979	0.02471
1895.98102	0.02527
1894.05225	0.0252
1892.12348	0.02452
1890.19471	0.024
1888.26594	0.02404
1886.33717	0.02434
1884.4084	0.02456
1882.47963	0.02449
1880.55086	0.02427
1878.62209	0.02412
1876.69332	0.02412
1874.76455	0.024
1872.83578	0.02374
1870.90701	0.02363
1868.97824	0.02393
1867.04947	0.02431
1865.1207	0.02412
1863.19193	0.02356
1861.26316	0.02315
1859.33439	0.023
1857.40562	0.02274
1855.47685	0.02236
1853.54808	0.02218
1851.61931	0.02229
1849.69054	0.02259
1847.76177	0.02263
1845.833	0.02259
1843.90423	0.02278
1841.97546	0.02282
1840.04669	0.02233
1838.11792	0.02188
1836.18915	0.02203
1834.26038	0.02214
1832.33161	0.02181
1830.40284	0.02143
1828.47407	0.02166
1826.5453	0.02218
1824.61653	0.02263
1822.68776	0.02256
1820.75899	0.02189
1818.83022	0.02144
1816.90145	0.02148
1814.97268	0.02174
1813.04391	0.02207
1811.11514	0.02252
1809.18636	0.0229
1807.25759	0.02308
1805.32882	0.0232
1803.40005	0.02346
1801.47128	0.02368
1799.54251	0.02365
1797.61374	0.02339
1795.68497	0.02294
1793.7562	0.02294
1791.82743	0.02372
1789.89866	0.02436
1787.96989	0.02425
1786.04112	0.02402
1784.11235	0.02395
1782.18358	0.0238
1780.25481	0.02369
1778.32604	0.02343
1776.39727	0.02275
1774.4685	0.02216
1772.53973	0.02272
1770.61096	0.02421
1768.68219	0.02507
1766.75342	0.02477
1764.82465	0.02395
1762.89588	0.02365
1760.96711	0.02418
1759.03834	0.02481
1757.10957	0.02508
1755.1808	0.02496
1753.25203	0.02481
1751.32326	0.02519
1749.39449	0.0259
1747.46572	0.02601
1745.53695	0.02553
1743.60818	0.02482
1741.67941	0.02429
1739.75064	0.02418
1737.82187	0.02407
1735.8931	0.02411
1733.96433	0.0253
1732.03556	0.02658
1730.10679	0.02646
1728.17802	0.02572
1726.24925	0.02531
1724.32048	0.02527
1722.39171	0.02493
1720.46294	0.02422
1718.53417	0.02464
1716.6054	0.02692
1714.67663	0.02879
1712.74786	0.02901
1710.81909	0.02856
1708.89032	0.02834
1706.96155	0.02894
1705.03278	0.03006
1703.10401	0.03069
1701.17524	0.03129
1699.24647	0.03297
1697.3177	0.03514
1695.38893	0.0369
1693.46016	0.03802
1691.53139	0.03888
1689.60262	0.04004
1687.67385	0.0409
1685.74508	0.04251
1683.81631	0.04703
1681.88754	0.05193
1679.95877	0.05436
1678.03	0.05552
1676.10123	0.05757
1674.17246	0.0606
1672.24369	0.0637
1670.31492	0.06755
1668.38615	0.07193
1666.45738	0.07469
1664.52861	0.07675
1662.59984	0.08008
1660.67107	0.08374
1658.7423	0.08572
1656.81353	0.08617
1654.88476	0.08756
1652.95599	0.0917
1651.02722	0.09496
1649.09845	0.09567
1647.16968	0.09664
1645.24091	0.09821
1643.31214	0.09851
1641.38337	0.0975
1639.4546	0.09582
1637.52583	0.09414
1635.59705	0.09313
1633.66828	0.09227
1631.73951	0.0904
1629.81074	0.08752
1627.88197	0.08423
1625.9532	0.08098
1624.02443	0.07781
1622.09566	0.07452
1620.16689	0.07089
1618.23812	0.06697
1616.30935	0.06323
1614.38058	0.06009
1612.45181	0.0571
1610.52304	0.05396
1608.59427	0.05086
1606.6655	0.04798
1604.73673	0.04529
1602.80796	0.04286
1600.87919	0.04069
1598.95042	0.03871
1597.02165	0.037
1595.09288	0.03546
1593.16411	0.03416
1591.23534	0.03292
1589.30657	0.0318
1587.3778	0.03072
1585.44903	0.02975
1583.52026	0.02889
1581.59149	0.02792
1579.66272	0.02668
1577.73395	0.02567
1575.80518	0.02567
1573.87641	0.02582
1571.94764	0.02526
1570.01887	0.02474
1568.0901	0.02478
1566.16133	0.02467
1564.23256	0.02381
1562.30379	0.02213
1560.37502	0.02104
1558.44625	0.02261
1556.51748	0.02486
1554.58871	0.02534
1552.65994	0.02497
1550.73117	0.02456
1548.8024	0.02407
1546.87363	0.02333
1544.94486	0.0225
1543.01609	0.02149
1541.08732	0.02093
1539.15855	0.02194
1537.22978	0.0228
1535.30101	0.02273
1533.37224	0.02269
1531.44347	0.02295
1529.5147	0.02296
1527.58593	0.02284
1525.65716	0.02266
1523.72839	0.02217
1521.79962	0.02225
1519.87085	0.02288
1517.94208	0.02359
1516.01331	0.02423
1514.08454	0.02438
1512.15577	0.02404
1510.227	0.02367
1508.29823	0.02374
1506.36946	0.02442
1504.44069	0.02502
1502.51192	0.02498
1500.58315	0.02472
1498.65438	0.02532
1496.72561	0.02715
1494.79684	0.02894
1492.86807	0.03033
1490.9393	0.03328
1489.01053	0.03862
1487.08176	0.04438
1485.15299	0.04961
1483.22422	0.05608
1481.29545	0.06483
1479.36668	0.07485
1477.43791	0.08539
1475.50914	0.09746
1473.58037	0.11178
1471.6516	0.12508
1469.72283	0.13304
1467.79406	0.13757
1465.86529	0.14284
1463.93651	0.14931
1462.00774	0.15416
1460.07897	0.15753
1458.1502	0.16243
1456.22143	0.16818
1454.29266	0.1702
1452.36389	0.16852
1450.43512	0.16478
1448.50635	0.15914
1446.57758	0.152
1444.64881	0.14479
1442.72004	0.13813
1440.79127	0.13223
1438.8625	0.12715
1436.93373	0.12296
1435.00496	0.11978
1433.07619	0.11754
1431.14742	0.11631
1429.21865	0.11616
1427.28988	0.11668
1425.36111	0.11754
1423.43234	0.11874
1421.50357	0.1205
1419.5748	0.12394
1417.64603	0.12857
1415.71726	0.13205
1413.78849	0.13459
1411.85972	0.13721
1409.93095	0.13967
1408.00218	0.14113
1406.07341	0.14136
1404.14464	0.14005
1402.21587	0.13721
1400.2871	0.13362
1398.35833	0.13056
1396.42956	0.12869
1394.50079	0.12727
1392.57202	0.12536
1390.64325	0.1239
1388.71448	0.12499
1386.78571	0.12865
1384.85694	0.13295
1382.92817	0.13695
1380.9994	0.14114
1379.07063	0.14573
1377.14186	0.15097
1375.21309	0.1577
1373.28432	0.16562
1371.35555	0.17295
1369.42678	0.17908
1367.49801	0.18394
1365.56924	0.18663
1363.64047	0.18633
1361.7117	0.18259
1359.78293	0.17613
1357.85416	0.16865
1355.92539	0.16114
1353.99662	0.15404
1352.06785	0.14739
1350.13908	0.14111
1348.21031	0.13528
1346.28154	0.13053
1344.35277	0.12769
1342.424	0.12758
1340.49523	0.13038
1338.56646	0.13464
1336.63769	0.13823
1334.70892	0.14051
1332.78015	0.14171
1330.85138	0.14186
1328.92261	0.14104
1326.99384	0.13947
1325.06507	0.13745
1323.1363	0.13506
1321.20753	0.13244
1319.27876	0.12964
1317.34999	0.12672
1315.42122	0.1237
1313.49245	0.12074
1311.56368	0.11805
1309.63491	0.11596
1307.70614	0.11488
1305.77737	0.11461
1303.8486	0.11484
1301.91983	0.11499
1299.99106	0.11409
1298.06229	0.1114
1296.13352	0.10673
1294.20475	0.10049
1292.27597	0.09357
1290.3472	0.08677
1288.41843	0.08053
1286.48966	0.07496
1284.56089	0.07029
1282.63212	0.06659
1280.70335	0.06379
1278.77458	0.06173
1276.84581	0.06042
1274.91704	0.05975
1272.98827	0.05938
1271.0595	0.05863
1269.13073	0.05657
1267.20196	0.05299
1265.27319	0.04869
1263.34442	0.04514
1261.41565	0.04372
1259.48688	0.04495
1257.55811	0.04843
1255.62934	0.05325
1253.70057	0.05833
1251.7718	0.06245
1249.84303	0.06484
1247.91426	0.06555
1245.98549	0.06536
1244.05672	0.06499
1242.12795	0.06424
1240.19918	0.06271
1238.27041	0.06095
1236.34164	0.05987
1234.41287	0.05938
1232.4841	0.05931
1230.55533	0.05968
1228.62656	0.06073
1226.69779	0.06241
1224.76902	0.06477
1222.84025	0.06754
1220.91148	0.07034
1218.98271	0.07303
1217.05394	0.0758
1215.12517	0.07886
1213.1964	0.08249
1211.26763	0.08701
1209.33886	0.09296
1207.41009	0.10058
1205.48132	0.10959
1203.55255	0.11938
1201.62378	0.12936
1199.69501	0.13867
1197.76624	0.14652
1195.83747	0.15175
1193.9087	0.15299
1191.97993	0.14925
1190.05116	0.14065
1188.12239	0.12858
1186.19362	0.11513
1184.26485	0.1026
1182.33608	0.09337
1180.40731	0.0896
1178.47854	0.09274
1176.54977	0.10335
1174.621	0.12178
1172.69223	0.14798
1170.76346	0.18132
1168.83469	0.22038
1166.90592	0.26318
1164.97715	0.30733
1163.04838	0.35009
1161.11961	0.38844
1159.19084	0.41965
1157.26207	0.44133
1155.3333	0.45224
1153.40453	0.45295
1151.47576	0.44566
1149.54699	0.43344
1147.61822	0.41984
1145.68945	0.4075
1143.76068	0.39767
1141.83191	0.39042
1139.90314	0.38526
1137.97437	0.38134
1136.0456	0.37779
1134.11683	0.3745
1132.18806	0.37196
1130.25929	0.37065
1128.33052	0.3705
1126.40175	0.37155
1124.47298	0.37387
1122.54421	0.37753
1120.61544	0.38284
1118.68666	0.38987
1116.75789	0.39828
1114.82912	0.40747
1112.90035	0.41704
1110.97158	0.42721
1109.04281	0.43771
1107.11404	0.44777
1105.18527	0.457
1103.2565	0.46582
1101.32773	0.47516
1099.39896	0.48671
1097.47019	0.50275
1095.54142	0.52495
1093.61265	0.55422
1091.68388	0.58965
1089.75511	0.62845
1087.82634	0.66564
1085.89757	0.69573
1083.9688	0.71353
1082.04003	0.71491
1080.11126	0.69824
1078.18249	0.66748
1076.25372	0.63242
1074.32495	0.60397
1072.39618	0.58906
1070.46741	0.58951
1068.53864	0.60293
1066.60987	0.62412
1064.6811	0.64767
1062.75233	0.672
1060.82356	0.69865
1058.89479	0.72747
1056.96602	0.75648
1055.03725	0.78462
1053.10848	0.81232
1051.17971	0.83953
1049.25094	0.86615
1047.32217	0.89205
1045.3934	0.9165
1043.46463	0.93877
1041.53586	0.95843
1039.60709	0.97503
1037.67832	0.98744
1035.74955	0.99484
1033.82078	0.99809
1031.89201	0.99929
1029.96324	1
1028.03447	0.99996
1026.1057	0.99836
1024.17693	0.99634
1022.24816	0.99585
1020.31939	0.99671
1018.39062	0.99754
1016.46185	0.99727
1014.53308	0.99627
1012.60431	0.99604
1010.67554	0.99713
1008.74677	0.99772
1006.818	0.99376
1004.88923	0.97967
1002.96046	0.94977
1001.03169	0.90069
999.10292	0.83356
997.17415	0.75425
995.24538	0.67164
993.31661	0.59476
991.38784	0.52965
989.45907	0.47825
987.5303	0.43882
985.60153	0.40795
983.67276	0.38272
981.74399	0.36205
979.81522	0.34755
977.88645	0.34246
975.95768	0.34897
974.02891	0.36631
972.10014	0.39083
970.17137	0.41692
968.2426	0.43879
966.31383	0.45209
964.38506	0.45456
962.45629	0.446
960.52752	0.42817
958.59875	0.40459
956.66998	0.37981
954.74121	0.35742
952.81244	0.33899
950.88367	0.32434
948.9549	0.31257
947.02612	0.30311
945.09735	0.29507
943.16858	0.28648
941.23981	0.27534
939.31104	0.2617
937.38227	0.24708
935.4535	0.23284
933.52473	0.21987
931.59596	0.20873
929.66719	0.19984
927.73842	0.19386
925.80965	0.19098
923.88088	0.19091
921.95211	0.19308
920.02334	0.19655
918.09457	0.19973
916.1658	0.20111
914.23703	0.20003
912.30826	0.19648
910.37949	0.19065
908.45072	0.18291
906.52195	0.17383
904.59318	0.16396
902.66441	0.15391
900.73564	0.14434
898.80687	0.13582
896.8781	0.12875
894.94933	0.12315
893.02056	0.11844
891.09179	0.11354
889.16302	0.10771
887.23425	0.10128
885.30548	0.09485
883.37671	0.08872
881.44794	0.08316
879.51917	0.07837
877.5904	0.07486
875.66163	0.07344
873.73286	0.07471
871.80409	0.07852
869.87532	0.0848
867.94655	0.09355
866.01778	0.10465
864.08901	0.1171
862.16024	0.12928
860.23147	0.139
858.3027	0.14424
856.37393	0.14416
854.44516	0.13941
852.51639	0.13157
850.58762	0.12256
848.65885	0.114
846.73008	0.10645
844.80131	0.09957
842.87254	0.09277
840.94377	0.08556
839.015	0.07808
837.08623	0.07049
835.15746	0.06287
833.22869	0.05566
831.29992	0.04912
829.37115	0.04313
827.44238	0.0376
825.51361	0.03267
823.58484	0.02841
821.65607	0.02501
819.7273	0.02243
817.79853	0.02037
815.86976	0.0188
813.94099	0.0175
812.01222	0.01634
810.08345	0.01537
808.15468	0.01444
806.22591	0.01342
804.29714	0.01266
802.36837	0.01216
800.4396	0.01211
798.51083	0.01273
796.58206	0.01403
794.65329	0.01607
792.72452	0.01883
790.79575	0.02211
788.86698	0.02576
786.93821	0.02956
785.00944	0.03332
783.08067	0.03709
781.1519	0.04092
779.22313	0.04472
777.29436	0.0483
775.36558	0.05162
773.43681	0.05519
771.50804	0.0597
769.57927	0.06575
767.6505	0.07325
765.72173	0.08187
763.79296	0.09079
761.86419	0.09908
759.93542	0.10568
758.00665	0.10971
756.07788	0.11071
754.14911	0.10886
752.22034	0.10467
750.29157	0.09864
748.3628	0.09122
746.43403	0.08325
744.50526	0.07569
742.57649	0.06914
740.64772	0.06382
738.71895	0.05992
736.79018	0.0574
734.86141	0.05616
732.93264	0.056
731.00387	0.05681
729.0751	0.05848
727.14633	0.06071
725.21756	0.06335
723.28879	0.06771
721.36002	0.07136
719.43125	0.07576
717.50248	0.08136
715.57371	0.08766
713.64494	0.09494
711.71617	0.10274
709.7874	0.11024
707.85863	0.11662
705.92986	0.12117
704.00109	0.12314
702.07232	0.12208
700.14355	0.11807
698.21478	0.11189
696.28601	0.10489
694.35724	0.09841
692.42847	0.09302
690.4997	0.08901
688.57093	0.08664
686.64216	0.08562
684.71339	0.08538
682.78462	0.08545
680.85585	0.08577
678.92708	0.08655
676.99831	0.08799
675.06954	0.08963
673.14077	0.0898
671.212	0.08728
669.28323	0.08653
667.35446	0.09066
665.42569	0.09364
663.49692	0.09666
661.56815	0.0987
659.63938	0.10004
657.71061	0.10163
655.78184	0.10338
653.85307	0.1049
651.9243	0.10608
649.99553	0.10685
648.06676	0.1074
646.13799	0.10773
644.20922	0.10768
642.28045	0.10741
640.35168	0.10706
638.42291	0.10682
636.49414	0.1067
634.56537	0.10684
632.6366	0.1075
630.70783	0.10872
628.77906	0.11058
626.85029	0.11307
624.92152	0.11657
622.99275	0.12123
621.06398	0.12743
619.13521	0.13556
617.20644	0.14456
615.27767	0.15296
613.3489	0.16046
611.42013	0.16699
609.49136	0.17191
607.56259	0.17496
605.63382	0.17667
603.70505	0.17744
601.77627	0.17755
599.8475	0.17731
597.91873	0.17696
595.98996	0.17665
594.06119	0.1766
592.13242	0.17693
590.20365	0.17777
588.27488	0.17918
586.34611	0.18134
584.41734	0.18439
582.48857	0.18808
580.5598	0.19196
578.63103	0.19539
576.70226	0.19814
574.77349	0.20026
572.84472	0.20167
570.91595	0.20237
568.98718	0.20224
567.05841	0.20096
565.12964	0.19859
563.20087	0.19559
561.2721	0.19237
559.34333	0.18899
557.41456	0.18546
555.48579	0.18183
553.55702	0.17849
551.62825	0.17582
549.69948	0.17391
547.77071	0.17251
545.84194	0.1713
543.91317	0.17002
541.9844	0.16855
540.05563	0.16678
538.12686	0.16453
536.19809	0.16171
534.26932	0.15849
532.34055	0.15504
530.41178	0.15148
528.48301	0.14788
526.55424	0.14424
524.62547	0.14086
522.6967	0.13805
520.76793	0.13568
518.83916	0.13358
516.91039	0.13151
514.98162	0.12955
513.05285	0.12794
511.12408	0.12669
509.19531	0.12567
507.26654	0.12457
505.33777	0.12329
503.409	0.12197
501.48023	0.12043
499.55146	0.11821
497.62269	0.11555
495.69392	0.11269
493.76515	0.10977
491.83638	0.10673
489.90761	0.10376
487.97884	0.10098
486.05007	0.09817
484.1213	0.09528
482.19253	0.09284
480.26376	0.09092
478.33499	0.089
476.40622	0.0869
474.47745	0.08487
472.54868	0.08299
470.61991	0.08118
468.69114	0.07926
466.76237	0.07738
464.8336	0.07577
462.90483	0.07441
460.97606	0.07305
459.04729	0.07162
457.11852	0.07026
455.18975	0.06909
453.26098	0.068
451.33221	0.06683
449.40344	0.06566
447.47467	0.06463
445.5459	0.06402
443.61713	0.06383
441.68836	0.06359
439.75959	0.06294
437.83082	0.06192
435.90205	0.06068
433.97328	0.05913
432.04451	0.05751
430.11573	0.05605
428.18696	0.05476
426.25819	0.05341
424.32942	0.05175
422.40065	0.04979
420.47188	0.04747
418.54311	0.04402
416.61434	0.03985
414.68557	0.03614
412.7568	0.03292
410.82803	0.02973
408.89926	0.02635
406.97049	0.02309
405.04172	0.02039
403.11295	0.01817
401.18418	0.01633
399.25541	0.01471