401	0.06803
402	0.06566
403	0.06334
404	0.06105
405	0.0588
406	0.0566
407	0.05443
408	0.0523
409	0.05021
410	0.04816
411	0.04615
412	0.04418
413	0.04225
414	0.04015
415	0.03804
416	0.036
417	0.03412
418	0.03235
419	0.03062
420	0.02903
421	0.02776
422	0.02685
423	0.02622
424	0.02588
425	0.02583
426	0.02604
427	0.02642
428	0.02698
429	0.02776
430	0.02865
431	0.02936
432	0.02992
433	0.03059
434	0.03133
435	0.03193
436	0.03234
437	0.03262
438	0.03277
439	0.03296
440	0.03332
441	0.03372
442	0.03401
443	0.03422
444	0.03451
445	0.03502
446	0.03558
447	0.03599
448	0.03637
449	0.03684
450	0.0374
451	0.03803
452	0.03875
453	0.03953
454	0.04027
455	0.04094
456	0.04153
457	0.04206
458	0.04262
459	0.04324
460	0.04388
461	0.04447
462	0.045
463	0.04555
464	0.04612
465	0.04664
466	0.04714
467	0.04772
468	0.04842
469	0.04916
470	0.0498
471	0.05044
472	0.05124
473	0.05212
474	0.05294
475	0.05372
476	0.05458
477	0.05555
478	0.05664
479	0.05782
480	0.05902
481	0.06019
482	0.0614
483	0.06269
484	0.06399
485	0.06524
486	0.06649
487	0.06788
488	0.06945
489	0.0712
490	0.0731
491	0.07508
492	0.07707
493	0.07903
494	0.08095
495	0.08282
496	0.0846
497	0.08626
498	0.08779
499	0.08917
500	0.09038
501	0.09141
502	0.09224
503	0.09283
504	0.09315
505	0.09326
506	0.09322
507	0.09308
508	0.09285
509	0.09251
510	0.09219
511	0.09203
512	0.09209
513	0.09229
514	0.09258
515	0.09294
516	0.09345
517	0.09419
518	0.09516
519	0.09636
520	0.09779
521	0.09942
522	0.10114
523	0.10287
524	0.1046
525	0.1064
526	0.10828
527	0.11011
528	0.11182
529	0.11342
530	0.1149
531	0.11625
532	0.11744
533	0.11852
534	0.11961
535	0.12071
536	0.12177
537	0.12272
538	0.12357
539	0.12437
540	0.12519
541	0.12602
542	0.12683
543	0.12762
544	0.12844
545	0.12931
546	0.1302
547	0.13111
548	0.13211
549	0.13326
550	0.13452
551	0.13584
552	0.1372
553	0.13867
554	0.14029
555	0.14202
556	0.14383
557	0.1457
558	0.14765
559	0.14972
560	0.1519
561	0.15415
562	0.15647
563	0.15887
564	0.16136
565	0.16386
566	0.16631
567	0.16875
568	0.17123
569	0.1737
570	0.17607
571	0.17827
572	0.18031
573	0.18221
574	0.18389
575	0.18526
576	0.18621
577	0.18678
578	0.18702
579	0.18697
580	0.18655
581	0.18572
582	0.18459
583	0.18332
584	0.18196
585	0.18048
586	0.1789
587	0.1773
588	0.17577
589	0.17433
590	0.17301
591	0.17184
592	0.17088
593	0.17014
594	0.16964
595	0.16935
596	0.16928
597	0.16945
598	0.16984
599	0.17035
600	0.17088
601	0.17138
602	0.17187
603	0.17232
604	0.17261
605	0.17262
606	0.17225
607	0.17148
608	0.17029
609	0.16863
610	0.16645
611	0.16379
612	0.16078
613	0.15744
614	0.15375
615	0.14973
616	0.14553
617	0.14129
618	0.13711
619	0.13301
620	0.12904
621	0.12528
622	0.12178
623	0.11859
624	0.11568
625	0.11304
626	0.11073
627	0.10879
628	0.10715
629	0.10566
630	0.10423
631	0.10294
632	0.10189
633	0.10104
634	0.1003
635	0.09965
636	0.09915
637	0.09874
638	0.09836
639	0.09797
640	0.09761
641	0.09733
642	0.09713
643	0.09699
644	0.09682
645	0.09665
646	0.09651
647	0.09642
648	0.09631
649	0.09612
650	0.09588
651	0.09559
652	0.09526
653	0.09484
654	0.0944
655	0.09413
656	0.09427
657	0.09408
658	0.09307
659	0.09152
660	0.08977
661	0.08799
662	0.08624
663	0.08453
664	0.08286
665	0.08125
666	0.07975
667	0.07837
668	0.0771
669	0.07594
670	0.07488
671	0.07395
672	0.07316
673	0.0725
674	0.07196
675	0.07157
676	0.07136
677	0.07136
678	0.07155
679	0.07185
680	0.07198
681	0.07142
682	0.07063
683	0.07027
684	0.07051
685	0.07135
686	0.07289
687	0.07518
688	0.07828
689	0.08222
690	0.08704
691	0.0927
692	0.09905
693	0.10586
694	0.11291
695	0.11996
696	0.12681
697	0.13317
698	0.13877
699	0.14337
700	0.14682
701	0.14901
702	0.14983
703	0.1492
704	0.14712
705	0.14374
706	0.13923
707	0.13381
708	0.1277
709	0.12109
710	0.11425
711	0.10747
712	0.10098
713	0.0949
714	0.08936
715	0.08443
716	0.08017
717	0.07652
718	0.07341
719	0.07079
720	0.06864
721	0.06694
722	0.06557
723	0.06446
724	0.06358
725	0.06291
726	0.06239
727	0.06192
728	0.06147
729	0.06105
730	0.0607
731	0.06039
732	0.06006
733	0.05969
734	0.05944
735	0.05943
736	0.05969
737	0.06021
738	0.06102
739	0.06219
740	0.06377
741	0.06575
742	0.06807
743	0.0707
744	0.07366
745	0.07693
746	0.08042
747	0.08403
748	0.08771
749	0.09139
750	0.09499
751	0.09838
752	0.10143
753	0.10406
754	0.10621
755	0.10782
756	0.10877
757	0.10902
758	0.10861
759	0.10762
760	0.10609
761	0.10403
762	0.10148
763	0.09851
764	0.09523
765	0.09169
766	0.08793
767	0.08405
768	0.08017
769	0.0764
770	0.07278
771	0.06931
772	0.06605
773	0.06303
774	0.06029
775	0.05779
776	0.0555
777	0.05337
778	0.05142
779	0.04962
780	0.04793
781	0.04633
782	0.04484
783	0.04348
784	0.04224
785	0.04105
786	0.03987
787	0.03871
788	0.0376
789	0.03653
790	0.0355
791	0.03448
792	0.0335
793	0.0326
794	0.03177
795	0.03098
796	0.03024
797	0.02958
798	0.02901
799	0.02854
800	0.02811
801	0.02772
802	0.02738
803	0.02711
804	0.02688
805	0.02666
806	0.02643
807	0.02621
808	0.026
809	0.02575
810	0.02547
811	0.02517
812	0.02485
813	0.02452
814	0.02416
815	0.02379
816	0.02342
817	0.02308
818	0.0228
819	0.02259
820	0.02246
821	0.02244
822	0.02257
823	0.02283
824	0.02325
825	0.02384
826	0.02462
827	0.02559
828	0.02675
829	0.02809
830	0.02961
831	0.03131
832	0.03319
833	0.03524
834	0.03746
835	0.03981
836	0.04226
837	0.04476
838	0.0473
839	0.04986
840	0.05244
841	0.05505
842	0.05772
843	0.06053
844	0.06355
845	0.06682
846	0.07035
847	0.07415
848	0.07824
849	0.08257
850	0.08705
851	0.09155
852	0.09593
853	0.10009
854	0.10386
855	0.10707
856	0.10953
857	0.11114
858	0.11182
859	0.1115
860	0.11011
861	0.10765
862	0.10418
863	0.09983
864	0.09475
865	0.08908
866	0.08304
867	0.07687
868	0.07079
869	0.06499
870	0.05957
871	0.05465
872	0.05037
873	0.0468
874	0.04391
875	0.04166
876	0.03999
877	0.03889
878	0.03833
879	0.03821
880	0.03842
881	0.03892
882	0.03971
883	0.04076
884	0.04196
885	0.04322
886	0.04452
887	0.04588
888	0.04732
889	0.04878
890	0.05025
891	0.05178
892	0.05345
893	0.05529
894	0.05726
895	0.05938
896	0.06169
897	0.06422
898	0.06695
899	0.06983
900	0.07282
901	0.07596
902	0.07925
903	0.08264
904	0.08603
905	0.08939
906	0.09272
907	0.09597
908	0.09906
909	0.10188
910	0.10442
911	0.10668
912	0.10864
913	0.11026
914	0.11152
915	0.11246
916	0.11315
917	0.11361
918	0.11387
919	0.11396
920	0.11396
921	0.11398
922	0.11409
923	0.11432
924	0.11474
925	0.11545
926	0.11655
927	0.11813
928	0.12021
929	0.12286
930	0.12613
931	0.13005
932	0.13455
933	0.13951
934	0.14478
935	0.15023
936	0.15573
937	0.16118
938	0.16649
939	0.17162
940	0.17652
941	0.18116
942	0.1855
943	0.18951
944	0.19318
945	0.19653
946	0.19965
947	0.20263
948	0.20564
949	0.20888
950	0.21257
951	0.21692
952	0.22211
953	0.22828
954	0.23546
955	0.24364
956	0.25271
957	0.2625
958	0.27279
959	0.2833
960	0.29377
961	0.30391
962	0.31339
963	0.32187
964	0.32903
965	0.33461
966	0.33849
967	0.34065
968	0.34115
969	0.34017
970	0.33795
971	0.33484
972	0.33119
973	0.32733
974	0.32353
975	0.32002
976	0.317
977	0.31455
978	0.3127
979	0.31141
980	0.31064
981	0.31032
982	0.3104
983	0.31076
984	0.31136
985	0.31222
986	0.31347
987	0.31527
988	0.31788
989	0.32162
990	0.32689
991	0.33409
992	0.34353
993	0.35543
994	0.36988
995	0.38694
996	0.40648
997	0.42821
998	0.45167
999	0.47632
1000	0.50156
1001	0.52681
1002	0.55148
1003	0.57503
1004	0.59704
1005	0.61724
1006	0.63546
1007	0.65159
1008	0.66565
1009	0.67773
1010	0.68801
1011	0.69673
1012	0.70419
1013	0.71071
1014	0.71663
1015	0.72224
1016	0.72783
1017	0.73364
1018	0.73983
1019	0.74657
1020	0.75395
1021	0.762
1022	0.77072
1023	0.7801
1024	0.79016
1025	0.80095
1026	0.81247
1027	0.82469
1028	0.83757
1029	0.85109
1030	0.8652
1031	0.87974
1032	0.89449
1033	0.90922
1034	0.92368
1035	0.93761
1036	0.95074
1037	0.9628
1038	0.9735
1039	0.98259
1040	0.98992
1041	0.99535
1042	0.99873
1043	1
1044	0.99916
1045	0.99629
1046	0.99147
1047	0.98483
1048	0.97654
1049	0.96682
1050	0.95589
1051	0.94392
1052	0.93112
1053	0.91767
1054	0.90374
1055	0.88946
1056	0.87491
1057	0.86011
1058	0.84502
1059	0.8296
1060	0.81378
1061	0.79749
1062	0.78057
1063	0.76297
1064	0.74476
1065	0.72615
1066	0.70746
1067	0.68921
1068	0.67207
1069	0.65685
1070	0.64437
1071	0.63535
1072	0.63034
1073	0.62967
1074	0.63348
1075	0.64168
1076	0.65393
1077	0.66966
1078	0.68817
1079	0.70862
1080	0.73002
1081	0.75131
1082	0.77142
1083	0.78929
1084	0.80395
1085	0.81459
1086	0.8206
1087	0.82169
1088	0.8179
1089	0.80959
1090	0.79743
1091	0.78229
1092	0.7652
1093	0.74716
1094	0.72914
1095	0.71197
1096	0.69629
1097	0.68257
1098	0.67116
1099	0.66222
1100	0.65574
1101	0.65157
1102	0.64949
1103	0.64917
1104	0.65024
1105	0.65228
1106	0.65481
1107	0.65738
1108	0.65956
1109	0.66103
1110	0.66149
1111	0.66074
1112	0.65868
1113	0.65529
1114	0.65065
1115	0.64491
1116	0.63823
1117	0.63079
1118	0.62284
1119	0.61465
1120	0.60645
1121	0.59843
1122	0.59077
1123	0.5836
1124	0.57704
1125	0.57114
1126	0.56591
1127	0.56134
1128	0.55739
1129	0.55399
1130	0.551
1131	0.54829
1132	0.54571
1133	0.54314
1134	0.54051
1135	0.53777
1136	0.53493
1137	0.53208
1138	0.52939
1139	0.52704
1140	0.52528
1141	0.52435
1142	0.5245
1143	0.52597
1144	0.52897
1145	0.53361
1146	0.53992
1147	0.54782
1148	0.55717
1149	0.56772
1150	0.57916
1151	0.59106
1152	0.60296
1153	0.61436
1154	0.62477
1155	0.63366
1156	0.64055
1157	0.64502
1158	0.64671
1159	0.64538
1160	0.64088
1161	0.63315
1162	0.62226
1163	0.6084
1164	0.59183
1165	0.57293
1166	0.5521
1167	0.5298
1168	0.50649
1169	0.48268
1170	0.4588
1171	0.43526
1172	0.41247
1173	0.39081
1174	0.37061
1175	0.35214
1176	0.3356
1177	0.32115
1178	0.30888
1179	0.29886
1180	0.29104
1181	0.28533
1182	0.28156
1183	0.27955
1184	0.27908
1185	0.27987
1186	0.28163
1187	0.28408
1188	0.28698
1189	0.29012
1190	0.29329
1191	0.2963
1192	0.29901
1193	0.30131
1194	0.30311
1195	0.30434
1196	0.30495
1197	0.30493
1198	0.30428
1199	0.303
1200	0.3011
1201	0.29861
1202	0.29561
1203	0.29216
1204	0.28836
1205	0.28425
1206	0.27988
1207	0.27532
1208	0.27062
1209	0.26583
1210	0.26096
1211	0.25604
1212	0.25113
1213	0.24626
1214	0.24142
1215	0.23662
1216	0.23185
1217	0.22714
1218	0.2225
1219	0.21795
1220	0.21349
1221	0.20913
1222	0.2049
1223	0.20082
1224	0.19691
1225	0.19318
1226	0.18969
1227	0.18648
1228	0.1836
1229	0.1811
1230	0.17901
1231	0.17734
1232	0.17611
1233	0.17532
1234	0.17495
1235	0.17497
1236	0.17533
1237	0.17597
1238	0.17684
1239	0.17787
1240	0.17903
1241	0.18026
1242	0.18151
1243	0.18275
1244	0.18392
1245	0.18499
1246	0.1859
1247	0.18662
1248	0.18712
1249	0.18735
1250	0.18731
1251	0.18699
1252	0.1864
1253	0.18556
1254	0.18448
1255	0.18315
1256	0.1816
1257	0.17984
1258	0.17789
1259	0.17577
1260	0.17348
1261	0.17103
1262	0.16845
1263	0.1658
1264	0.16314
1265	0.16053
1266	0.15803
1267	0.15572
1268	0.15369
1269	0.152
1270	0.1507
1271	0.1498
1272	0.14932
1273	0.14926
1274	0.14957
1275	0.15023
1276	0.15115
1277	0.15226
1278	0.1535
1279	0.15483
1280	0.15619
1281	0.15754
1282	0.15887
1283	0.16018
1284	0.16149
1285	0.16281
1286	0.16418
1287	0.16567
1288	0.16731
1289	0.16914
1290	0.17115
1291	0.17335
1292	0.17571
1293	0.17822
1294	0.1808
1295	0.18337
1296	0.18586
1297	0.18821
1298	0.19035
1299	0.19223
1300	0.19381
1301	0.19506
1302	0.196
1303	0.19664
1304	0.197
1305	0.19715
1306	0.19712
1307	0.19698
1308	0.19674
1309	0.19643
1310	0.1961
1311	0.1958
1312	0.19559
1313	0.19544
1314	0.19534
1315	0.19528
1316	0.19525
1317	0.19525
1318	0.19529
1319	0.19535
1320	0.19546
1321	0.19566
1322	0.19596
1323	0.19639
1324	0.1969
1325	0.19746
1326	0.19801
1327	0.1985
1328	0.19879
1329	0.19872
1330	0.19821
1331	0.19729
1332	0.19596
1333	0.19424
1334	0.19214
1335	0.18972
1336	0.18703
1337	0.18412
1338	0.18106
1339	0.17792
1340	0.17482
1341	0.17186
1342	0.16916
1343	0.16677
1344	0.16475
1345	0.16321
1346	0.16221
1347	0.16182
1348	0.16206
1349	0.16297
1350	0.16452
1351	0.16663
1352	0.16922
1353	0.17234
1354	0.17612
1355	0.18059
1356	0.18561
1357	0.19102
1358	0.19664
1359	0.20236
1360	0.2081
1361	0.21371
1362	0.21907
1363	0.22393
1364	0.22807
1365	0.23136
1366	0.23374
1367	0.23511
1368	0.2354
1369	0.23467
1370	0.23298
1371	0.23042
1372	0.22701
1373	0.2227
1374	0.21756
1375	0.21175
1376	0.20549
1377	0.19905
1378	0.19267
1379	0.18644
1380	0.18046
1381	0.17481
1382	0.16963
1383	0.16497
1384	0.16084
1385	0.15726
1386	0.15427
1387	0.15178
1388	0.14975
1389	0.14821
1390	0.14719
1391	0.14664
1392	0.14652
1393	0.14676
1394	0.1472
1395	0.1477
1396	0.1482
1397	0.14867
1398	0.14915
1399	0.14967
1400	0.15021
1401	0.15081
1402	0.15151
1403	0.15229
1404	0.15312
1405	0.15395
1406	0.15473
1407	0.15533
1408	0.15566
1409	0.15575
1410	0.1557
1411	0.15552
1412	0.15516
1413	0.15458
1414	0.1538
1415	0.1529
1416	0.15191
1417	0.15082
1418	0.14962
1419	0.14836
1420	0.14709
1421	0.14587
1422	0.14467
1423	0.14353
1424	0.14248
1425	0.14144
1426	0.14034
1427	0.1393
1428	0.13836
1429	0.1375
1430	0.13671
1431	0.13601
1432	0.13543
1433	0.13509
1434	0.13516
1435	0.13566
1436	0.13647
1437	0.13756
1438	0.1391
1439	0.14121
1440	0.14384
1441	0.1469
1442	0.15034
1443	0.15411
1444	0.15819
1445	0.16239
1446	0.16658
1447	0.17074
1448	0.1749
1449	0.17903
1450	0.18323
1451	0.1876
1452	0.19201
1453	0.19631
1454	0.20023
1455	0.20362
1456	0.2065
1457	0.20885
1458	0.21065
1459	0.21191
1460	0.21266
1461	0.21283
1462	0.21231
1463	0.21109
1464	0.20922
1465	0.20671
1466	0.20359
1467	0.19991
1468	0.19577
1469	0.19131
1470	0.18682
1471	0.18261
1472	0.17889
1473	0.17571
1474	0.17298
1475	0.17053
1476	0.16814
1477	0.1656
1478	0.16271
1479	0.1594
1480	0.15578
1481	0.15204
1482	0.1483
1483	0.14463
1484	0.14101
1485	0.13724
1486	0.13331
1487	0.12945
1488	0.12575
1489	0.12223
1490	0.11904
1491	0.11634
1492	0.11428
1493	0.11297
1494	0.11252
1495	0.11266
1496	0.11294
1497	0.11319
1498	0.11339
1499	0.11352
1500	0.11352
1501	0.11336
1502	0.11305
1503	0.11268
1504	0.11247
1505	0.11245
1506	0.11239
1507	0.11234
1508	0.11243
1509	0.11265
1510	0.11286
1511	0.11297
1512	0.11313
1513	0.11348
1514	0.11399
1515	0.11462
1516	0.11536
1517	0.11612
1518	0.11676
1519	0.11705
1520	0.11705
1521	0.11704
1522	0.11704
1523	0.117
1524	0.11697
1525	0.11704
1526	0.11733
1527	0.11791
1528	0.11844
1529	0.1185
1530	0.1182
1531	0.11787
1532	0.11753
1533	0.117
1534	0.11609
1535	0.11505
1536	0.11417
1537	0.11351
1538	0.11294
1539	0.11234
1540	0.11174
1541	0.11126
1542	0.11101
1543	0.11092
1544	0.11085
1545	0.11077
1546	0.11079
1547	0.11086
1548	0.11059
1549	0.11001
1550	0.10933
1551	0.10854
1552	0.10747
1553	0.10612
1554	0.1047
1555	0.10324
1556	0.1018
1557	0.10044
1558	0.09905
1559	0.09761
1560	0.09624
1561	0.09497
1562	0.09371
1563	0.09249
1564	0.09143
1565	0.09045
1566	0.08936
1567	0.08813
1568	0.08687
1569	0.08568
1570	0.08446
1571	0.08289
1572	0.08088
1573	0.0789
1574	0.07718
1575	0.07566
1576	0.0743
1577	0.07303
1578	0.07182
1579	0.07076
1580	0.06985
1581	0.06901
1582	0.06809
1583	0.06713
1584	0.06631
1585	0.06562
1586	0.06502
1587	0.06448
1588	0.06393
1589	0.06328
1590	0.06262
1591	0.06206
1592	0.06162
1593	0.06127
1594	0.06103
1595	0.0609
1596	0.06086
1597	0.06089
1598	0.06097
1599	0.06111
1600	0.06132
1601	0.06163
1602	0.06202
1603	0.06251
1604	0.0631
1605	0.06367
1606	0.0641
1607	0.06446
1608	0.06482
1609	0.06526
1610	0.06585
1611	0.06655
1612	0.06721
1613	0.06782
1614	0.06847
1615	0.06924
1616	0.0701
1617	0.07101
1618	0.07199
1619	0.07306
1620	0.07419
1621	0.07539
1622	0.0767
1623	0.07812
1624	0.07955
1625	0.08085
1626	0.08202
1627	0.08309
1628	0.08407
1629	0.08492
1630	0.08572
1631	0.08662
1632	0.08762
1633	0.08873
1634	0.08993
1635	0.09101
1636	0.09172
1637	0.09219
1638	0.09262
1639	0.09308
1640	0.09358
1641	0.09425
1642	0.09475
1643	0.09486
1644	0.09478
1645	0.09466
1646	0.0945
1647	0.09426
1648	0.09386
1649	0.09337
1650	0.09293
1651	0.09254
1652	0.09214
1653	0.09172
1654	0.09135
1655	0.09108
1656	0.09098
1657	0.09095
1658	0.0908
1659	0.09037
1660	0.0897
1661	0.08906
1662	0.08867
1663	0.08854
1664	0.08844
1665	0.08825
1666	0.08779
1667	0.08741
1668	0.08744
1669	0.08778
1670	0.08843
1671	0.08949
1672	0.09086
1673	0.09211
1674	0.09333
1675	0.09477
1676	0.09649
1677	0.09854
1678	0.10091
1679	0.10357
1680	0.10647
1681	0.10955
1682	0.11277
1683	0.11625
1684	0.11996
1685	0.1237
1686	0.12738
1687	0.13092
1688	0.13436
1689	0.13763
1690	0.14052
1691	0.14302
1692	0.14513
1693	0.14681
1694	0.14805
1695	0.14868
1696	0.14838
1697	0.14714
1698	0.14552
1699	0.1436
1700	0.14117
1701	0.13825
1702	0.13497
1703	0.13141
1704	0.1276
1705	0.12359
1706	0.1194
1707	0.11491
1708	0.11009
1709	0.10508
1710	0.10015
1711	0.09547
1712	0.09101
1713	0.08658
1714	0.08234
1715	0.07858
1716	0.07534
1717	0.07259
1718	0.0702
1719	0.06808
1720	0.06633
1721	0.06518
1722	0.06448
1723	0.0639
1724	0.06359
1725	0.06376
1726	0.06438
1727	0.06534
1728	0.06645
1729	0.06769
1730	0.06912
1731	0.0707
1732	0.07247
1733	0.07453
1734	0.07693
1735	0.07963
1736	0.08257
1737	0.08577
1738	0.0894
1739	0.09349
1740	0.09805
1741	0.10328
1742	0.10927
1743	0.11607
1744	0.12375
1745	0.13214
1746	0.14091
1747	0.15
1748	0.15965
1749	0.16969
1750	0.17977
1751	0.18949
1752	0.19859
1753	0.20702
1754	0.21471
1755	0.22144
1756	0.22706
1757	0.23154
1758	0.23489
1759	0.23715
1760	0.2383
1761	0.23837
1762	0.23751
1763	0.23594
1764	0.23392
1765	0.23176
1766	0.22957
1767	0.22742
1768	0.22536
1769	0.22333
1770	0.22139
1771	0.21964
1772	0.21817
1773	0.21693
1774	0.2158
1775	0.21476
1776	0.21396
1777	0.21347
1778	0.2133
1779	0.21343
1780	0.21375
1781	0.21414
1782	0.21455
1783	0.21501
1784	0.21544
1785	0.21566
1786	0.2157
1787	0.21561
1788	0.21532
1789	0.21467
1790	0.21358
1791	0.21194
1792	0.20963
1793	0.20663
1794	0.20297
1795	0.19875
1796	0.19397
1797	0.18862
1798	0.18276
1799	0.17655
1800	0.17001
1801	0.16319
1802	0.15621
1803	0.14916
1804	0.14209
1805	0.13508
1806	0.12826
1807	0.12174
1808	0.11559
1809	0.1098
1810	0.10443
1811	0.09952
1812	0.09502
1813	0.09085
1814	0.08694
1815	0.08328
1816	0.07992
1817	0.07695
1818	0.07425
1819	0.07168
1820	0.06923
1821	0.06693
1822	0.06481
1823	0.06283
1824	0.06095
1825	0.05921
1826	0.05761
1827	0.05612
1828	0.05477
1829	0.05355
1830	0.05244
1831	0.05145
1832	0.05057
1833	0.04972
1834	0.04885
1835	0.04799
1836	0.04716
1837	0.04631
1838	0.04544
1839	0.04461
1840	0.04387
1841	0.04318
1842	0.04242
1843	0.04164
1844	0.04094
1845	0.04035
1846	0.03985
1847	0.03942
1848	0.03903
1849	0.03867
1850	0.03832
1851	0.038
1852	0.03777
1853	0.03762
1854	0.03752
1855	0.03744
1856	0.03729
1857	0.03699
1858	0.03654
1859	0.03602
1860	0.03547
1861	0.03491
1862	0.03439
1863	0.03395
1864	0.03357
1865	0.03323
1866	0.03293
1867	0.03268
1868	0.03247
1869	0.0323
1870	0.03216
1871	0.03205
1872	0.03198
1873	0.03194
1874	0.03192
1875	0.03193
1876	0.03201
1877	0.03215
1878	0.03226
1879	0.03226
1880	0.03214
1881	0.03192
1882	0.03165
1883	0.0314
1884	0.03118
1885	0.03096
1886	0.03075
1887	0.03057
1888	0.03041
1889	0.03026
1890	0.03014
1891	0.03003
1892	0.02994
1893	0.02985
1894	0.02979
1895	0.02975
1896	0.02972
1897	0.02969
1898	0.02963
1899	0.02955
1900	0.02944
1901	0.02929
1902	0.02909
1903	0.02886
1904	0.02869
1905	0.02858
1906	0.02847
1907	0.02828
1908	0.02801
1909	0.02775
1910	0.02757
1911	0.02741
1912	0.02719
1913	0.02693
1914	0.02669
1915	0.02647
1916	0.02629
1917	0.02614
1918	0.02602
1919	0.02593
1920	0.02586
1921	0.02577
1922	0.02567
1923	0.02557
1924	0.0255
1925	0.02547
1926	0.02548
1927	0.02552
1928	0.02559
1929	0.02568
1930	0.02577
1931	0.02577
1932	0.02573
1933	0.02569
1934	0.02563
1935	0.02548
1936	0.02526
1937	0.02507
1938	0.02493
1939	0.02483
1940	0.02474
1941	0.02468
1942	0.02465
1943	0.02463
1944	0.02461
1945	0.0246
1946	0.02458
1947	0.02459
1948	0.02462
1949	0.02466
1950	0.02472
1951	0.02479
1952	0.02488
1953	0.02498
1954	0.02507
1955	0.02508
1956	0.02501
1957	0.02493
1958	0.02483
1959	0.02473
1960	0.02464
1961	0.02457
1962	0.02453
1963	0.02451
1964	0.02449
1965	0.02449
1966	0.02449
1967	0.02449
1968	0.02448
1969	0.02448
1970	0.02449
1971	0.02452
1972	0.02456
1973	0.0246
1974	0.02465
1975	0.02472
1976	0.02481
1977	0.02489
1978	0.02496
1979	0.02499
1980	0.02499
1981	0.02495
1982	0.02489
1983	0.02483
1984	0.02477
1985	0.02472
1986	0.0247
1987	0.02468
1988	0.02467
1989	0.02466
1990	0.02465
1991	0.02466
1992	0.02468
1993	0.02471
1994	0.02475
1995	0.02481
1996	0.02488
1997	0.02496
1998	0.02504
1999	0.02512
2000	0.0252
2001	0.02527
2002	0.02534
2003	0.02541
2004	0.02547
2005	0.02548
2006	0.02547
2007	0.02545
2008	0.02544
2009	0.02542
2010	0.02543
2011	0.02544
2012	0.02546
2013	0.02548
2014	0.02552
2015	0.02557
2016	0.02564
2017	0.02572
2018	0.02581
2019	0.02591
2020	0.02601
2021	0.02613
2022	0.02625
2023	0.02638
2024	0.02652
2025	0.02667
2026	0.02683
2027	0.02699
2028	0.02716
2029	0.0273
2030	0.02741
2031	0.02749
2032	0.02758
2033	0.02767
2034	0.02777
2035	0.02788
2036	0.02798
2037	0.02809
2038	0.02821
2039	0.02833
2040	0.02846
2041	0.0286
2042	0.02873
2043	0.02887
2044	0.02902
2045	0.02916
2046	0.0293
2047	0.02944
2048	0.02957
2049	0.0297
2050	0.02982
2051	0.02994
2052	0.03005
2053	0.03014
2054	0.03018
2055	0.03019
2056	0.03019
2057	0.03018
2058	0.03017
2059	0.03014
2060	0.03011
2061	0.03008
2062	0.03005
2063	0.03002
2064	0.02998
2065	0.02995
2066	0.02991
2067	0.02987
2068	0.02983
2069	0.02979
2070	0.02975
2071	0.02972
2072	0.02969
2073	0.02967
2074	0.02964
2075	0.02962
2076	0.0296
2077	0.02958
2078	0.02953
2079	0.02948
2080	0.02943
2081	0.02938
2082	0.02933
2083	0.02929
2084	0.02924
2085	0.0292
2086	0.02915
2087	0.0291
2088	0.02905
2089	0.029
2090	0.02893
2091	0.02887
2092	0.0288
2093	0.02874
2094	0.02866
2095	0.02859
2096	0.02851
2097	0.02844
2098	0.02837
2099	0.0283
2100	0.02823
2101	0.02816
2102	0.02809
2103	0.02801
2104	0.02792
2105	0.02784
2106	0.02777
2107	0.0277
2108	0.02763
2109	0.02756
2110	0.0275
2111	0.02744
2112	0.02739
2113	0.02733
2114	0.02727
2115	0.02721
2116	0.02715
2117	0.0271
2118	0.02705
2119	0.02699
2120	0.02693
2121	0.02688
2122	0.02683
2123	0.02678
2124	0.02673
2125	0.02667
2126	0.02662
2127	0.02656
2128	0.0265
2129	0.02642
2130	0.02635
2131	0.02629
2132	0.02622
2133	0.02614
2134	0.02606
2135	0.02599
2136	0.02591
2137	0.02583
2138	0.02574
2139	0.02565
2140	0.02556
2141	0.02547
2142	0.02538
2143	0.02529
2144	0.02519
2145	0.02511
2146	0.02503
2147	0.02495
2148	0.02487
2149	0.0248
2150	0.02472
2151	0.02465
2152	0.02457
2153	0.02449
2154	0.02442
2155	0.02435
2156	0.02428
2157	0.02422
2158	0.02415
2159	0.02408
2160	0.02401
2161	0.02394
2162	0.02386
2163	0.02378
2164	0.0237
2165	0.02361
2166	0.02352
2167	0.02342
2168	0.02332
2169	0.02322
2170	0.02312
2171	0.02302
2172	0.0229
2173	0.02278
2174	0.02267
2175	0.02255
2176	0.02243
2177	0.02231
2178	0.02219
2179	0.02208
2180	0.02196
2181	0.02185
2182	0.02174
2183	0.02163
2184	0.02152
2185	0.02141
2186	0.0213
2187	0.02118
2188	0.02107
2189	0.02095
2190	0.02083
2191	0.02071
2192	0.02059
2193	0.02048
2194	0.02035
2195	0.02023
2196	0.02009
2197	0.01996
2198	0.01984
2199	0.01972
2200	0.01961
2201	0.0195
2202	0.01941
2203	0.01932
2204	0.01925
2205	0.01919
2206	0.01913
2207	0.01909
2208	0.01905
2209	0.01903
2210	0.01901
2211	0.01901
2212	0.019
2213	0.01901
2214	0.01901
2215	0.01902
2216	0.01903
2217	0.01904
2218	0.01904
2219	0.01904
2220	0.01904
2221	0.01904
2222	0.01904
2223	0.01904
2224	0.01904
2225	0.01904
2226	0.01904
2227	0.01904
2228	0.01904
2229	0.01904
2230	0.01904
2231	0.01904
2232	0.01904
2233	0.01904
2234	0.01904
2235	0.01904
2236	0.01904
2237	0.01904
2238	0.01904
2239	0.01904
2240	0.01904
2241	0.01904
2242	0.01904
2243	0.01904
2244	0.01904
2245	0.01904
2246	0.01904
2247	0.01904
2248	0.01904
2249	0.01904
2250	0.01904
2251	0.01904
2252	0.01904
2253	0.01904
2254	0.01904
2255	0.01904
2256	0.01904
2257	0.01904
2258	0.01904
2259	0.01904
2260	0.01904
2261	0.01904
2262	0.01904
2263	0.01904
2264	0.01904
2265	0.01904
2266	0.01904
2267	0.01904
2268	0.01904
2269	0.01904
2270	0.01904
2271	0.01904
2272	0.01904
2273	0.01904
2274	0.01904
2275	0.01904
2276	0.01904
2277	0.01904
2278	0.01904
2279	0.01904
2280	0.01904
2281	0.01904
2282	0.01904
2283	0.01904
2284	0.01904
2285	0.01904
2286	0.01904
2287	0.01904
2288	0.01904
2289	0.01904
2290	0.01904
2291	0.01904
2292	0.01904
2293	0.01904
2294	0.01904
2295	0.01904
2296	0.01904
2297	0.01904
2298	0.01904
2299	0.01904
2300	0.01904
2301	0.01904
2302	0.01904
2303	0.01904
2304	0.01904
2305	0.01904
2306	0.01904
2307	0.01904
2308	0.01904
2309	0.01904
2310	0.01904
2311	0.01904
2312	0.01904
2313	0.01904
2314	0.01904
2315	0.01904
2316	0.01904
2317	0.01904
2318	0.01904
2319	0.01904
2320	0.01904
2321	0.01904
2322	0.01904
2323	0.01904
2324	0.01904
2325	0.01904
2326	0.01904
2327	0.01904
2328	0.01904
2329	0.01904
2330	0.01904
2331	0.01904
2332	0.01904
2333	0.01904
2334	0.01904
2335	0.01904
2336	0.01904
2337	0.01904
2338	0.01904
2339	0.01904
2340	0.01904
2341	0.01904
2342	0.01904
2343	0.01904
2344	0.01904
2345	0.01904
2346	0.01904
2347	0.01904
2348	0.01904
2349	0.01904
2350	0.01904
2351	0.01904
2352	0.01904
2353	0.01904
2354	0.01904
2355	0.01904
2356	0.01904
2357	0.01904
2358	0.01904
2359	0.01904
2360	0.01904
2361	0.01904
2362	0.01904
2363	0.01904
2364	0.01904
2365	0.01904
2366	0.01904
2367	0.01904
2368	0.01904
2369	0.01904
2370	0.01904
2371	0.01904
2372	0.01904
2373	0.01904
2374	0.01904
2375	0.01904
2376	0.01904
2377	0.01904
2378	0.01904
2379	0.01904
2380	0.01904
2381	0.01904
2382	0.01904
2383	0.01904
2384	0.01904
2385	0.01904
2386	0.01904
2387	0.01904
2388	0.01904
2389	0.01904
2390	0.01904
2391	0.01904
2392	0.01904
2393	0.01904
2394	0.01904
2395	0.01904
2396	0.01904
2397	0.01904
2398	0.01904
2399	0.01904
2400	0.01904
2401	0.01904
2402	0.01904
2403	0.01904
2404	0.01904
2405	0.01904
2406	0.01904
2407	0.01904
2408	0.01904
2409	0.01904
2410	0.01904
2411	0.01904
2412	0.01904
2413	0.01904
2414	0.01904
2415	0.01904
2416	0.01904
2417	0.01904
2418	0.01904
2419	0.01904
2420	0.01904
2421	0.01904
2422	0.01904
2423	0.01904
2424	0.01904
2425	0.01904
2426	0.01904
2427	0.01904
2428	0.01904
2429	0.01904
2430	0.01904
2431	0.01904
2432	0.01903
2433	0.01903
2434	0.01902
2435	0.01901
2436	0.01901
2437	0.01902
2438	0.01903
2439	0.01904
2440	0.01907
2441	0.01909
2442	0.01913
2443	0.01917
2444	0.01921
2445	0.01927
2446	0.01933
2447	0.0194
2448	0.01947
2449	0.01955
2450	0.01964
2451	0.01972
2452	0.01981
2453	0.0199
2454	0.01998
2455	0.02005
2456	0.02012
2457	0.02019
2458	0.02026
2459	0.02033
2460	0.02041
2461	0.02048
2462	0.02055
2463	0.02062
2464	0.02069
2465	0.02076
2466	0.02082
2467	0.02089
2468	0.02096
2469	0.02103
2470	0.02111
2471	0.02118
2472	0.02125
2473	0.02132
2474	0.02139
2475	0.02146
2476	0.02153
2477	0.0216
2478	0.02167
2479	0.02173
2480	0.0218
2481	0.02187
2482	0.02194
2483	0.02202
2484	0.0221
2485	0.02217
2486	0.02224
2487	0.02232
2488	0.0224
2489	0.02249
2490	0.02257
2491	0.02266
2492	0.02275
2493	0.02285
2494	0.02295
2495	0.02305
2496	0.02316
2497	0.02326
2498	0.02337
2499	0.02348
2500	0.02358
2501	0.02368
2502	0.02379
2503	0.02389
2504	0.02399
2505	0.02408
2506	0.02417
2507	0.02425
2508	0.02432
2509	0.02439
2510	0.02446
2511	0.02453
2512	0.02461
2513	0.02467
2514	0.02474
2515	0.0248
2516	0.02487
2517	0.02494
2518	0.02502
2519	0.02509
2520	0.02516
2521	0.02524
2522	0.02532
2523	0.02539
2524	0.02547
2525	0.02554
2526	0.02562
2527	0.02571
2528	0.02579
2529	0.02587
2530	0.02596
2531	0.02605
2532	0.02614
2533	0.02624
2534	0.02635
2535	0.02645
2536	0.02655
2537	0.02666
2538	0.02676
2539	0.02687
2540	0.02699
2541	0.02711
2542	0.02723
2543	0.02736
2544	0.02749
2545	0.02762
2546	0.02776
2547	0.02791
2548	0.02806
2549	0.02822
2550	0.02838
2551	0.02855
2552	0.02873
2553	0.02892
2554	0.0291
2555	0.02929
2556	0.02949
2557	0.02969
2558	0.0299
2559	0.0301
2560	0.03031
2561	0.03052
2562	0.03073
2563	0.03095
2564	0.03117
2565	0.03138
2566	0.0316
2567	0.03182
2568	0.03204
2569	0.03227
2570	0.03249
2571	0.03272
2572	0.03296
2573	0.03319
2574	0.03343
2575	0.03367
2576	0.03392
2577	0.03417
2578	0.03443
2579	0.03469
2580	0.03496
2581	0.03524
2582	0.03552
2583	0.0358
2584	0.03609
2585	0.03638
2586	0.03668
2587	0.03697
2588	0.03727
2589	0.03756
2590	0.03785
2591	0.03814
2592	0.03842
2593	0.0387
2594	0.03896
2595	0.03922
2596	0.03947
2597	0.03972
2598	0.03996
2599	0.04019
2600	0.04041
2601	0.04063
2602	0.04085
2603	0.04105
2604	0.04125
2605	0.04145
2606	0.04164
2607	0.04183
2608	0.04202
2609	0.04221
2610	0.0424
2611	0.04259
2612	0.04277
2613	0.04295
2614	0.04313
2615	0.0433
2616	0.04348
2617	0.04366
2618	0.04383
2619	0.044
2620	0.04417
2621	0.04433
2622	0.04448
2623	0.04462
2624	0.04475
2625	0.04489
2626	0.04501
2627	0.04512
2628	0.04521
2629	0.04529
2630	0.04536
2631	0.04542
2632	0.04546
2633	0.04549
2634	0.04551
2635	0.04552
2636	0.04551
2637	0.04549
2638	0.04546
2639	0.04543
2640	0.04539
2641	0.04534
2642	0.04529
2643	0.04524
2644	0.04518
2645	0.04511
2646	0.04504
2647	0.04497
2648	0.0449
2649	0.04482
2650	0.04474
2651	0.04466
2652	0.04457
2653	0.04448
2654	0.04438
2655	0.04428
2656	0.04417
2657	0.04406
2658	0.04395
2659	0.04383
2660	0.04371
2661	0.04357
2662	0.04343
2663	0.0433
2664	0.04316
2665	0.04303
2666	0.04289
2667	0.04276
2668	0.04263
2669	0.0425
2670	0.04238
2671	0.04226
2672	0.04215
2673	0.04204
2674	0.04193
2675	0.04182
2676	0.04171
2677	0.04162
2678	0.04153
2679	0.04145
2680	0.04137
2681	0.04129
2682	0.04121
2683	0.04114
2684	0.04106
2685	0.04099
2686	0.04093
2687	0.04087
2688	0.04081
2689	0.04076
2690	0.04071
2691	0.04067
2692	0.04063
2693	0.0406
2694	0.04058
2695	0.04056
2696	0.04054
2697	0.04052
2698	0.0405
2699	0.04049
2700	0.04049
2701	0.0405
2702	0.04053
2703	0.04056
2704	0.0406
2705	0.04065
2706	0.04071
2707	0.04078
2708	0.04085
2709	0.04093
2710	0.04103
2711	0.04113
2712	0.04125
2713	0.04137
2714	0.04151
2715	0.04165
2716	0.0418
2717	0.04197
2718	0.04214
2719	0.04231
2720	0.04248
2721	0.04266
2722	0.04284
2723	0.04302
2724	0.04321
2725	0.04339
2726	0.04359
2727	0.04379
2728	0.04399
2729	0.0442
2730	0.04441
2731	0.04462
2732	0.04485
2733	0.04508
2734	0.04531
2735	0.04556
2736	0.04581
2737	0.04609
2738	0.04639
2739	0.0467
2740	0.04703
2741	0.04736
2742	0.04769
2743	0.04803
2744	0.04836
2745	0.04869
2746	0.04901
2747	0.04931
2748	0.04961
2749	0.04988
2750	0.05015
2751	0.05039
2752	0.05061
2753	0.05079
2754	0.05096
2755	0.05111
2756	0.05123
2757	0.05133
2758	0.05141
2759	0.05149
2760	0.05156
2761	0.05162
2762	0.05168
2763	0.05173
2764	0.05179
2765	0.05186
2766	0.05194
2767	0.05202
2768	0.05212
2769	0.05224
2770	0.05237
2771	0.05252
2772	0.05268
2773	0.05287
2774	0.05308
2775	0.05331
2776	0.05355
2777	0.05382
2778	0.05411
2779	0.05443
2780	0.05476
2781	0.05511
2782	0.05547
2783	0.05586
2784	0.05625
2785	0.05667
2786	0.05709
2787	0.05754
2788	0.05801
2789	0.0585
2790	0.05902
2791	0.05957
2792	0.06016
2793	0.06081
2794	0.06155
2795	0.0624
2796	0.06338
2797	0.06455
2798	0.06592
2799	0.06753
2800	0.06941
2801	0.07157
2802	0.07401
2803	0.07673
2804	0.07972
2805	0.08294
2806	0.08636
2807	0.08992
2808	0.09358
2809	0.09729
2810	0.10097
2811	0.10459
2812	0.10809
2813	0.11142
2814	0.11457
2815	0.11751
2816	0.12025
2817	0.1228
2818	0.12518
2819	0.12745
2820	0.12964
2821	0.13183
2822	0.13405
2823	0.13637
2824	0.13882
2825	0.1414
2826	0.14415
2827	0.14704
2828	0.15006
2829	0.15316
2830	0.15627
2831	0.15934
2832	0.16228
2833	0.16501
2834	0.16745
2835	0.16953
2836	0.17118
2837	0.17234
2838	0.17294
2839	0.17295
2840	0.17236
2841	0.17118
2842	0.16947
2843	0.16728
2844	0.1647
2845	0.16183
2846	0.15877
2847	0.15562
2848	0.15248
2849	0.14946
2850	0.14663
2851	0.14409
2852	0.14187
2853	0.14003
2854	0.13861
2855	0.13761
2856	0.13706
2857	0.13695
2858	0.13727
2859	0.138
2860	0.1391
2861	0.14054
2862	0.14228
2863	0.1443
2864	0.14657
2865	0.14907
2866	0.15178
2867	0.15468
2868	0.15774
2869	0.16095
2870	0.16426
2871	0.16767
2872	0.17114
2873	0.17466
2874	0.17821
2875	0.18177
2876	0.18532
2877	0.18886
2878	0.19236
2879	0.19584
2880	0.19929
2881	0.20271
2882	0.20611
2883	0.20947
2884	0.21283
2885	0.21619
2886	0.21953
2887	0.22286
2888	0.22614
2889	0.22938
2890	0.23254
2891	0.23562
2892	0.23858
2893	0.24142
2894	0.24413
2895	0.24671
2896	0.24913
2897	0.25141
2898	0.25353
2899	0.2555
2900	0.25734
2901	0.25906
2902	0.26067
2903	0.2622
2904	0.26367
2905	0.26506
2906	0.26639
2907	0.2677
2908	0.26901
2909	0.27035
2910	0.27174
2911	0.27322
2912	0.27484
2913	0.27663
2914	0.27861
2915	0.28081
2916	0.28322
2917	0.28585
2918	0.28871
2919	0.29176
2920	0.295
2921	0.29839
2922	0.30191
2923	0.30552
2924	0.30917
2925	0.31282
2926	0.31642
2927	0.31989
2928	0.32316
2929	0.32617
2930	0.32886
2931	0.33118
2932	0.33311
2933	0.33461
2934	0.33566
2935	0.33623
2936	0.33631
2937	0.33589
2938	0.33497
2939	0.33352
2940	0.33156
2941	0.32911
2942	0.32621
2943	0.3229
2944	0.31921
2945	0.3152
2946	0.31096
2947	0.30656
2948	0.30206
2949	0.29753
2950	0.29306
2951	0.28869
2952	0.28447
2953	0.28045
2954	0.27666
2955	0.27313
2956	0.26987
2957	0.26689
2958	0.26419
2959	0.26177
2960	0.25961
2961	0.25771
2962	0.25603
2963	0.25454
2964	0.25321
2965	0.25201
2966	0.25091
2967	0.2499
2968	0.24894
2969	0.24803
2970	0.24715
2971	0.24629
2972	0.24542
2973	0.24452
2974	0.24357
2975	0.24256
2976	0.24145
2977	0.24022
2978	0.23885
2979	0.23733
2980	0.23565
2981	0.2338
2982	0.23178
2983	0.22959
2984	0.22721
2985	0.22465
2986	0.22192
2987	0.21902
2988	0.21595
2989	0.21275
2990	0.20942
2991	0.20599
2992	0.20248
2993	0.1989
2994	0.19527
2995	0.19162
2996	0.18798
2997	0.18435
2998	0.18075
2999	0.1772
3000	0.1737
3001	0.17027
3002	0.16691
3003	0.16363
3004	0.16046
3005	0.15738
3006	0.15439
3007	0.1515
3008	0.14871
3009	0.14603
3010	0.14346
3011	0.141
3012	0.13864
3013	0.13638
3014	0.13423
3015	0.13218
3016	0.13023
3017	0.12838
3018	0.12664
3019	0.12502
3020	0.12349
3021	0.12206
3022	0.12073
3023	0.11952
3024	0.11842
3025	0.11742
3026	0.11653
3027	0.11574
3028	0.11505
3029	0.11444
3030	0.11389
3031	0.1134
3032	0.11296
3033	0.11256
3034	0.11218
3035	0.11183
3036	0.11149
3037	0.11114
3038	0.11079
3039	0.11042
3040	0.11005
3041	0.10966
3042	0.10926
3043	0.10884
3044	0.10839
3045	0.10794
3046	0.10748
3047	0.10702
3048	0.10657
3049	0.10613
3050	0.1057
3051	0.10528
3052	0.10487
3053	0.10448
3054	0.10409
3055	0.10371
3056	0.10334
3057	0.10299
3058	0.10264
3059	0.1023
3060	0.10194
3061	0.10157
3062	0.10118
3063	0.10078
3064	0.10035
3065	0.09989
3066	0.09941
3067	0.09889
3068	0.09833
3069	0.09773
3070	0.0971
3071	0.09643
3072	0.09575
3073	0.09505
3074	0.09435
3075	0.09365
3076	0.09295
3077	0.09227
3078	0.09161
3079	0.09098
3080	0.09039
3081	0.08983
3082	0.08931
3083	0.08882
3084	0.08835
3085	0.08791
3086	0.08747
3087	0.08706
3088	0.08668
3089	0.08632
3090	0.08597
3091	0.08564
3092	0.08531
3093	0.08498
3094	0.08465
3095	0.08434
3096	0.08405
3097	0.08377
3098	0.08352
3099	0.0833
3100	0.0831
3101	0.08293
3102	0.08279
3103	0.08268
3104	0.08259
3105	0.08252
3106	0.08248
3107	0.08246
3108	0.08244
3109	0.08244
3110	0.08247
3111	0.08253
3112	0.0826
3113	0.08269
3114	0.08279
3115	0.08289
3116	0.08299
3117	0.0831
3118	0.08323
3119	0.08338
3120	0.08356
3121	0.08377
3122	0.084
3123	0.08424
3124	0.0845
3125	0.08478
3126	0.08507
3127	0.08539
3128	0.08573
3129	0.08609
3130	0.08647
3131	0.08688
3132	0.08731
3133	0.08775
3134	0.08822
3135	0.08871
3136	0.0892
3137	0.0897
3138	0.09021
3139	0.09072
3140	0.09124
3141	0.09178
3142	0.09233
3143	0.0929
3144	0.09347
3145	0.09404
3146	0.09461
3147	0.0952
3148	0.0958
3149	0.09641
3150	0.09704
3151	0.09768
3152	0.09834
3153	0.09901
3154	0.09969
3155	0.10038
3156	0.10107
3157	0.10178
3158	0.1025
3159	0.10323
3160	0.10398
3161	0.10473
3162	0.10549
3163	0.10626
3164	0.10703
3165	0.10782
3166	0.10862
3167	0.10942
3168	0.11022
3169	0.11104
3170	0.11186
3171	0.1127
3172	0.11355
3173	0.11441
3174	0.11529
3175	0.11617
3176	0.11706
3177	0.11796
3178	0.11887
3179	0.1198
3180	0.12074
3181	0.12169
3182	0.12266
3183	0.12364
3184	0.12464
3185	0.12564
3186	0.12664
3187	0.12764
3188	0.12865
3189	0.12966
3190	0.13067
3191	0.13167
3192	0.1327
3193	0.13373
3194	0.13478
3195	0.13582
3196	0.13688
3197	0.13795
3198	0.13901
3199	0.14007
3200	0.14114
3201	0.14222
3202	0.14331
3203	0.14441
3204	0.14549
3205	0.14657
3206	0.14767
3207	0.14878
3208	0.14989
3209	0.15098
3210	0.15206
3211	0.15314
3212	0.15422
3213	0.15531
3214	0.15641
3215	0.15752
3216	0.15863
3217	0.15974
3218	0.16084
3219	0.16195
3220	0.16305
3221	0.16416
3222	0.16526
3223	0.16636
3224	0.16746
3225	0.16857
3226	0.16966
3227	0.17073
3228	0.17181
3229	0.17288
3230	0.17398
3231	0.17507
3232	0.17616
3233	0.17724
3234	0.17831
3235	0.17938
3236	0.18046
3237	0.18154
3238	0.18262
3239	0.1837
3240	0.18479
3241	0.18589
3242	0.187
3243	0.18811
3244	0.18923
3245	0.19035
3246	0.19147
3247	0.1926
3248	0.19373
3249	0.19487
3250	0.19601
3251	0.19718
3252	0.19836
3253	0.19955
3254	0.20074
3255	0.20194
3256	0.20315
3257	0.20436
3258	0.20558
3259	0.2068
3260	0.20804
3261	0.20928
3262	0.21054
3263	0.21181
3264	0.21309
3265	0.21437
3266	0.21564
3267	0.21692
3268	0.2182
3269	0.2195
3270	0.2208
3271	0.22211
3272	0.22343
3273	0.22476
3274	0.22611
3275	0.22748
3276	0.22885
3277	0.23023
3278	0.23162
3279	0.23303
3280	0.23445
3281	0.23587
3282	0.23729
3283	0.23871
3284	0.24012
3285	0.24155
3286	0.24298
3287	0.24441
3288	0.24584
3289	0.24727
3290	0.24871
3291	0.25016
3292	0.25163
3293	0.2531
3294	0.25459
3295	0.2561
3296	0.25762
3297	0.25914
3298	0.26067
3299	0.26221
3300	0.26375
3301	0.2653
3302	0.26686
3303	0.26843
3304	0.26999
3305	0.27155
3306	0.27311
3307	0.27468
3308	0.27627
3309	0.27785
3310	0.27943
3311	0.28102
3312	0.28263
3313	0.28425
3314	0.28589
3315	0.28754
3316	0.28918
3317	0.29082
3318	0.29247
3319	0.29413
3320	0.29579
3321	0.29744
3322	0.29908
3323	0.30074
3324	0.3024
3325	0.30406
3326	0.30571
3327	0.30735
3328	0.30898
3329	0.31059
3330	0.31218
3331	0.31377
3332	0.31535
3333	0.31692
3334	0.31851
3335	0.32011
3336	0.32171
3337	0.32331
3338	0.3249
3339	0.32647
3340	0.32804
3341	0.32961
3342	0.33118
3343	0.33277
3344	0.33435
3345	0.33591
3346	0.33746
3347	0.33899
3348	0.3405
3349	0.34199
3350	0.34344
3351	0.34486
3352	0.34625
3353	0.34764
3354	0.34902
3355	0.3504
3356	0.35176
3357	0.3531
3358	0.35441
3359	0.35568
3360	0.35692
3361	0.35814
3362	0.35935
3363	0.36055
3364	0.36174
3365	0.36291
3366	0.36406
3367	0.36519
3368	0.3663
3369	0.36738
3370	0.36845
3371	0.3695
3372	0.37055
3373	0.37158
3374	0.37258
3375	0.37356
3376	0.37452
3377	0.37547
3378	0.37639
3379	0.37731
3380	0.37819
3381	0.37903
3382	0.37982
3383	0.38058
3384	0.38132
3385	0.38205
3386	0.38276
3387	0.38345
3388	0.3841
3389	0.38474
3390	0.38534
3391	0.38593
3392	0.3865
3393	0.38706
3394	0.3876
3395	0.38811
3396	0.3886
3397	0.38905
3398	0.38947
3399	0.38985
3400	0.39022
3401	0.39056
3402	0.39088
3403	0.39118
3404	0.39143
3405	0.39162
3406	0.39177
3407	0.3919
3408	0.39203
3409	0.3921
3410	0.39211
3411	0.39204
3412	0.39192
3413	0.39176
3414	0.39156
3415	0.39135
3416	0.39113
3417	0.3909
3418	0.39063
3419	0.39032
3420	0.38996
3421	0.38955
3422	0.38911
3423	0.38865
3424	0.38816
3425	0.38762
3426	0.38704
3427	0.38642
3428	0.38578
3429	0.38513
3430	0.38449
3431	0.38382
3432	0.38312
3433	0.38237
3434	0.3816
3435	0.38079
3436	0.37992
3437	0.379
3438	0.37806
3439	0.37714
3440	0.37622
3441	0.37528
3442	0.37431
3443	0.3733
3444	0.37224
3445	0.37116
3446	0.37006
3447	0.36894
3448	0.3678
3449	0.36662
3450	0.3654
3451	0.36417
3452	0.36292
3453	0.36167
3454	0.36042
3455	0.35916
3456	0.35787
3457	0.35655
3458	0.35518
3459	0.35376
3460	0.35229
3461	0.35081
3462	0.34935
3463	0.34791
3464	0.34647
3465	0.34504
3466	0.34362
3467	0.3422
3468	0.34081
3469	0.33943
3470	0.33805
3471	0.33663
3472	0.33518
3473	0.33372
3474	0.33226
3475	0.33082
3476	0.3294
3477	0.32797
3478	0.32652
3479	0.32506
3480	0.32358
3481	0.3221
3482	0.32063
3483	0.3192
3484	0.31779
3485	0.31637
3486	0.31495
3487	0.31353
3488	0.31214
3489	0.3108
3490	0.30951
3491	0.30823
3492	0.30691
3493	0.30551
3494	0.30403
3495	0.30254
3496	0.3011
3497	0.29972
3498	0.29834
3499	0.29693
3500	0.29548
3501	0.294
3502	0.29255
3503	0.29114
3504	0.28979
3505	0.28848
3506	0.28722
3507	0.286
3508	0.2848
3509	0.28362
3510	0.28247
3511	0.28136
3512	0.28023
3513	0.27909
3514	0.27791
3515	0.27669
3516	0.27539
3517	0.27404
3518	0.27268
3519	0.27133
3520	0.27
3521	0.26865
3522	0.26729
3523	0.26595
3524	0.26466
3525	0.26341
3526	0.26218
3527	0.261
3528	0.25985
3529	0.25874
3530	0.25766
3531	0.25665
3532	0.25571
3533	0.2548
3534	0.25383
3535	0.25276
3536	0.25158
3537	0.25034
3538	0.2491
3539	0.24788
3540	0.24664
3541	0.24537
3542	0.24403
3543	0.24266
3544	0.24131
3545	0.24002
3546	0.2388
3547	0.23763
3548	0.23648
3549	0.23531
3550	0.23417
3551	0.23307
3552	0.23203
3553	0.23105
3554	0.23014
3555	0.2292
3556	0.22803
3557	0.2266
3558	0.22501
3559	0.22338
3560	0.22177
3561	0.22024
3562	0.21882
3563	0.21745
3564	0.2161
3565	0.21472
3566	0.21335
3567	0.21206
3568	0.21085
3569	0.20971
3570	0.20862
3571	0.2076
3572	0.20663
3573	0.20571
3574	0.20489
3575	0.2041
3576	0.20322
3577	0.20213
3578	0.20081
3579	0.19926
3580	0.19757
3581	0.19591
3582	0.19434
3583	0.19281
3584	0.19128
3585	0.18973
3586	0.18819
3587	0.18667
3588	0.18517
3589	0.18367
3590	0.18215
3591	0.18063
3592	0.17915
3593	0.17774
3594	0.17645
3595	0.17529
3596	0.17415
3597	0.17296
3598	0.1717
3599	0.17035
3600	0.16892
3601	0.16746
3602	0.16604
3603	0.16466
3604	0.16329
3605	0.16192
3606	0.16053
3607	0.15907
3608	0.15749
3609	0.15584
3610	0.15418
3611	0.15252
3612	0.15085
3613	0.14922
3614	0.14766
3615	0.1462
3616	0.14487
3617	0.14355
3618	0.14206
3619	0.14037
3620	0.13859
3621	0.1368
3622	0.13508
3623	0.13344
3624	0.13187
3625	0.13035
3626	0.12883
3627	0.12733
3628	0.12589
3629	0.12453
3630	0.12321
3631	0.12184
3632	0.12046
3633	0.11916
3634	0.11802
3635	0.11701
3636	0.11602
3637	0.11496
3638	0.11375
3639	0.11226
3640	0.11045
3641	0.10842
3642	0.10628
3643	0.10427
3644	0.10242
3645	0.10059
3646	0.09876
3647	0.097
3648	0.09536
3649	0.09384
3650	0.09241
3651	0.09107
3652	0.08985
3653	0.08877
3654	0.08781
3655	0.08695
3656	0.08624
3657	0.08565
3658	0.085
3659	0.08406
3660	0.0828
3661	0.08138
3662	0.0799
3663	0.07835
3664	0.07663
3665	0.07485
3666	0.07311
3667	0.07138
3668	0.06959
3669	0.06777
3670	0.06605
3671	0.06448
3672	0.06306
3673	0.06177
3674	0.06064
3675	0.05968
3676	0.05887
3677	0.05812
3678	0.05743
3679	0.05672
3680	0.0559
3681	0.05497
3682	0.05392
3683	0.05286
3684	0.05193
3685	0.05114
3686	0.05035
3687	0.04947
3688	0.04842
3689	0.04741
3690	0.04648
3691	0.04554
3692	0.04463
3693	0.04382
3694	0.04315
3695	0.04261
3696	0.0422
3697	0.0419
3698	0.04165
3699	0.04137
3700	0.04088
3701	0.0401
3702	0.03919
3703	0.03823
3704	0.03729
3705	0.03651
3706	0.03591
3707	0.03543
3708	0.03502
3709	0.03468
3710	0.03441
3711	0.03415
3712	0.03386
3713	0.03352
3714	0.03312
3715	0.03264
3716	0.03216
3717	0.03172
3718	0.03136
3719	0.03109
3720	0.03082
3721	0.03052
3722	0.03018
3723	0.0297
3724	0.02888
3725	0.02781
3726	0.02682
3727	0.02596
3728	0.02526
3729	0.02471
3730	0.02429
3731	0.024
3732	0.02375
3733	0.02346
3734	0.02315
3735	0.02292
3736	0.02279
3737	0.0227
3738	0.02257
3739	0.02241
3740	0.02218
3741	0.02192
3742	0.02174
3743	0.02167
3744	0.02165
3745	0.02169
3746	0.02175
3747	0.02168
3748	0.02134
3749	0.02096
3750	0.02074
3751	0.02069
3752	0.02079
3753	0.02098
3754	0.02119
3755	0.02137
3756	0.02151
3757	0.02165
3758	0.02185
3759	0.02205
3760	0.02216
3761	0.02217
3762	0.0221
3763	0.02194
3764	0.02169
3765	0.02149
3766	0.02145
3767	0.02148
3768	0.02143
3769	0.02131
3770	0.02117
3771	0.02099
3772	0.02077
3773	0.02058
3774	0.02042
3775	0.02026
3776	0.02009
3777	0.0199
3778	0.01969
3779	0.0195
3780	0.01935
3781	0.01919
3782	0.01899
3783	0.01883
3784	0.01873
3785	0.01864
3786	0.01853
3787	0.01846
3788	0.01843
3789	0.01837
3790	0.01811
3791	0.01765
3792	0.01711
3793	0.01664
3794	0.01625
3795	0.01583
3796	0.0153
3797	0.01473
3798	0.01419
3799	0.01374
3800	0.01341
3801	0.01322
3802	0.01317
3803	0.01324
3804	0.01331
3805	0.01332
3806	0.01341
3807	0.01358
3808	0.01377
3809	0.01382
3810	0.01365
3811	0.01339
3812	0.01309
3813	0.0127
3814	0.01222
3815	0.01176
3816	0.01136
3817	0.01101
3818	0.01068
3819	0.01033
3820	0.01
3821	0.0098
3822	0.00974
3823	0.00976
3824	0.00986
3825	0.01001
3826	0.01013
3827	0.01017
3828	0.01007
3829	0.00985
3830	0.00965
3831	0.00946
3832	0.00914
3833	0.0086
3834	0.008
3835	0.00759
3836	0.00736
3837	0.00725
3838	0.00722
3839	0.00726
3840	0.00738
3841	0.00751
3842	0.00742
3843	0.00714
3844	0.00689
3845	0.00673
3846	0.00657
3847	0.00641
3848	0.00629
3849	0.0062
3850	0.0061
3851	0.006
3852	0.00585
3853	0.00557
3854	0.00524
3855	0.00498
3856	0.00484
3857	0.00483
3858	0.00487
3859	0.00487
3860	0.00491
3861	0.00503
3862	0.00514
3863	0.0051
3864	0.00492
3865	0.0046
3866	0.0042
3867	0.00397
3868	0.00396
3869	0.00391
3870	0.00382
3871	0.0038
3872	0.00391
3873	0.00403
3874	0.00405
3875	0.00396
3876	0.00384
3877	0.00372
3878	0.00371
3879	0.00384
3880	0.00396
3881	0.00396
3882	0.00379
3883	0.00355
3884	0.00343
3885	0.00339
3886	0.00338
3887	0.00335
3888	0.00336
3889	0.00344
3890	0.00355
3891	0.0036
3892	0.00352
3893	0.00328
3894	0.00297
3895	0.00265
3896	0.00231
3897	0.00195
3898	0.0016
3899	0.00137
3900	0.00132
3901	0.00137
3902	0.00147
3903	0.00159
3904	0.00172
3905	0.00187
3906	0.00202
3907	0.00221
3908	0.00245
3909	0.0027
3910	0.00293
3911	0.00313
3912	0.00328
3913	0.00337
3914	0.00331
3915	0.00315
3916	0.00294
3917	0.0027
3918	0.00246
3919	0.00226
3920	0.00209
3921	0.00193
3922	0.00176
3923	0.00161
3924	0.0015
3925	0.00145
3926	0.00146
3927	0.00151
3928	0.00156
3929	0.00159
3930	0.00162
3931	0.00165
3932	0.00164
3933	0.00161
3934	0.00163
3935	0.0017
3936	0.00173
3937	0.00167
3938	0.00159
3939	0.00153
3940	0.00147
3941	0.00142
3942	0.00135
3943	0.00124
3944	0.0011
3945	9.48561E-4
3946	8.19251E-4
3947	7.38803E-4
3948	7.13404E-4
3949	7.36166E-4
3950	7.7468E-4
3951	8.07238E-4
3952	8.47674E-4
3953	9.01483E-4
3954	9.37715E-4
3955	9.32382E-4
3956	9.16186E-4
3957	9.3157E-4
3958	9.76887E-4
3959	0.00102
3960	0.00104
3961	0.00101
3962	9.414E-4
3963	8.51903E-4
3964	7.70011E-4
3965	6.95529E-4
3966	6.23795E-4
3967	5.73035E-4
3968	5.47775E-4
3969	5.37268E-4
3970	5.30679E-4
3971	5.24268E-4
3972	5.14809E-4
3973	4.92957E-4
3974	4.51514E-4
3975	4.06954E-4
3976	3.81853E-4
3977	3.77918E-4
3978	3.87945E-4
3979	4.04831E-4
3980	4.1781E-4
3981	4.17004E-4
3982	4.04987E-4
3983	3.93465E-4
3984	3.81061E-4
3985	3.58531E-4
3986	3.23778E-4
3987	2.78879E-4
3988	2.29553E-4
3989	2.05921E-4
3990	1.83108E-4
3991	1.61114E-4
3992	1.39938E-4
3993	1.1958E-4
3994	1.00042E-4
3995	8.13216E-5
3996	6.342E-5
3997	4.63371E-5
3998	3.00728E-5
3999	1.46271E-5
4000	0