4000.18193	0.00687
3999.21756	0.00712
3998.2532	0.00735
3997.28884	0.00758
3996.32447	0.00779
3995.36011	0.00799
3994.39574	0.00817
3993.43138	0.00834
3992.46702	0.0085
3991.50265	0.00864
3990.53829	0.00877
3989.57392	0.00889
3988.60956	0.00899
3987.6452	0.00885
3986.68083	0.00871
3985.71647	0.00863
3984.7521	0.00861
3983.78774	0.00874
3982.82338	0.00905
3981.85901	0.00939
3980.89465	0.00965
3979.93028	0.00997
3978.96592	0.01044
3978.00156	0.01099
3977.03719	0.01142
3976.07283	0.01168
3975.10846	0.01173
3974.1441	0.01163
3973.17974	0.01156
3972.21537	0.01164
3971.25101	0.01181
3970.28664	0.01198
3969.32228	0.01213
3968.35792	0.01225
3967.39355	0.01237
3966.42919	0.01242
3965.46482	0.01236
3964.50046	0.01234
3963.5361	0.0124
3962.57173	0.01239
3961.60737	0.01232
3960.643	0.01243
3959.67864	0.01279
3958.71428	0.01345
3957.74991	0.01439
3956.78555	0.01533
3955.82118	0.0159
3954.85682	0.01612
3953.89246	0.01649
3952.92809	0.01727
3951.96373	0.01816
3950.99936	0.01901
3950.035	0.01988
3949.07064	0.02072
3948.10627	0.02134
3947.14191	0.02159
3946.17754	0.02147
3945.21318	0.02102
3944.24882	0.02037
3943.28445	0.01977
3942.32009	0.01938
3941.35572	0.01922
3940.39136	0.01932
3939.427	0.01957
3938.46263	0.01985
3937.49827	0.01997
3936.5339	0.01997
3935.56954	0.02038
3934.60518	0.02125
3933.64081	0.02205
3932.67645	0.02254
3931.71208	0.02312
3930.74772	0.02419
3929.78336	0.02521
3928.81899	0.02575
3927.85463	0.02633
3926.89026	0.02722
3925.9259	0.02807
3924.96154	0.02852
3923.99717	0.02848
3923.03281	0.02806
3922.06844	0.02747
3921.10408	0.02694
3920.13972	0.02657
3919.17535	0.02602
3918.21099	0.02496
3917.24662	0.02343
3916.28226	0.02176
3915.3179	0.02034
3914.35353	0.01947
3913.38917	0.01972
3912.4248	0.02122
3911.46044	0.02308
3910.49608	0.02489
3909.53171	0.02709
3908.56735	0.0298
3907.60298	0.03258
3906.63862	0.03491
3905.67426	0.03691
3904.70989	0.03884
3903.74553	0.04031
3902.78116	0.04151
3901.8168	0.04291
3900.85244	0.04417
3899.88807	0.04479
3898.92371	0.0444
3897.95934	0.04286
3896.99498	0.04069
3896.03062	0.03847
3895.06625	0.0364
3894.10189	0.03467
3893.13752	0.03337
3892.17316	0.03265
3891.2088	0.03315
3890.24443	0.03462
3889.28007	0.03625
3888.3157	0.03757
3887.35134	0.03861
3886.38698	0.03912
3885.42261	0.0392
3884.45825	0.03913
3883.49388	0.03859
3882.52952	0.03742
3881.56516	0.03636
3880.60079	0.03708
3879.63643	0.03936
3878.67206	0.04179
3877.7077	0.04299
3876.74333	0.04292
3875.77897	0.0428
3874.81461	0.04328
3873.85024	0.04461
3872.88588	0.04665
3871.92151	0.0487
3870.95715	0.05021
3869.99279	0.05097
3869.02842	0.05148
3868.06406	0.05217
3867.09969	0.05219
3866.13533	0.05073
3865.17097	0.04801
3864.2066	0.04645
3863.24224	0.04687
3862.27787	0.04875
3861.31351	0.05111
3860.34915	0.05313
3859.38478	0.05495
3858.42042	0.05716
3857.45605	0.05957
3856.49169	0.06049
3855.52733	0.0599
3854.56296	0.05881
3853.5986	0.05787
3852.63423	0.05721
3851.66987	0.05648
3850.70551	0.05587
3849.74114	0.05563
3848.77678	0.05564
3847.81241	0.05527
3846.84805	0.05449
3845.88369	0.05381
3844.91932	0.05332
3843.95496	0.05265
3842.99059	0.05216
3842.02623	0.05313
3841.06187	0.05623
3840.0975	0.05928
3839.13314	0.06098
3838.16877	0.06187
3837.20441	0.06235
3836.24005	0.06211
3835.27568	0.0608
3834.31132	0.05834
3833.34695	0.05481
3832.38259	0.05178
3831.41823	0.05053
3830.45386	0.04999
3829.4895	0.04958
3828.52513	0.04951
3827.56077	0.0504
3826.59641	0.05272
3825.63204	0.0558
3824.66768	0.05867
3823.70331	0.0611
3822.73895	0.06301
3821.77459	0.06405
3820.81022	0.06419
3819.84586	0.06362
3818.88149	0.06233
3817.91713	0.06079
3816.95277	0.05929
3815.9884	0.05762
3815.02404	0.05561
3814.05967	0.05292
3813.09531	0.05008
3812.13095	0.04844
3811.16658	0.04785
3810.20222	0.0481
3809.23785	0.04971
3808.27349	0.05234
3807.30913	0.05498
3806.34476	0.05742
3805.3804	0.05974
3804.41603	0.06233
3803.45167	0.06495
3802.48731	0.06663
3801.52294	0.06718
3800.55858	0.06676
3799.59421	0.06545
3798.62985	0.06327
3797.66549	0.06026
3796.70112	0.0569
3795.73676	0.05415
3794.77239	0.05241
3793.80803	0.05063
3792.84367	0.04811
3791.8793	0.04511
3790.91494	0.0428
3789.95057	0.04254
3788.98621	0.04401
3788.02185	0.04544
3787.05748	0.04644
3786.09312	0.04735
3785.12875	0.04858
3784.16439	0.04994
3783.20003	0.05071
3782.23566	0.05072
3781.2713	0.05067
3780.30693	0.05116
3779.34257	0.05182
3778.37821	0.0522
3777.41384	0.05236
3776.44948	0.05278
3775.48511	0.05345
3774.52075	0.05426
3773.55639	0.05522
3772.59202	0.05609
3771.62766	0.05633
3770.66329	0.05644
3769.69893	0.05699
3768.73457	0.05798
3767.7702	0.05967
3766.80584	0.06187
3765.84147	0.06363
3764.87711	0.06439
3763.91275	0.06413
3762.94838	0.0639
3761.98402	0.0645
3761.01965	0.06619
3760.05529	0.06894
3759.09093	0.07241
3758.12656	0.07647
3757.1622	0.08046
3756.19783	0.08403
3755.23347	0.08809
3754.26911	0.09236
3753.30474	0.09644
3752.34038	0.09981
3751.37601	0.1022
3750.41165	0.10337
3749.44729	0.10329
3748.48292	0.10236
3747.51856	0.10124
3746.55419	0.10084
3745.58983	0.10124
3744.62547	0.10168
3743.6611	0.10179
3742.69674	0.10161
3741.73237	0.10117
3740.76801	0.10074
3739.80365	0.1008
3738.83928	0.10099
3737.87492	0.10111
3736.91055	0.10116
3735.94619	0.1008
3734.98182	0.0999
3734.01746	0.09895
3733.0531	0.09895
3732.08873	0.09946
3731.12437	0.09899
3730.16	0.09786
3729.19564	0.09648
3728.23128	0.09451
3727.26691	0.09168
3726.30255	0.08834
3725.33818	0.085
3724.37382	0.08216
3723.40946	0.08097
3722.44509	0.08156
3721.48073	0.08302
3720.51636	0.08547
3719.552	0.08843
3718.58764	0.09087
3717.62327	0.09243
3716.65891	0.09329
3715.69454	0.09378
3714.73018	0.09412
3713.76582	0.0944
3712.80145	0.09491
3711.83709	0.09574
3710.87272	0.09687
3709.90836	0.09801
3708.944	0.09843
3707.97963	0.0982
3707.01527	0.09773
3706.0509	0.0968
3705.08654	0.09506
3704.12218	0.09251
3703.15781	0.08929
3702.19345	0.08618
3701.22908	0.0842
3700.26472	0.08436
3699.30036	0.08718
3698.33599	0.09144
3697.37163	0.09603
3696.40726	0.10015
3695.4429	0.10359
3694.47854	0.1065
3693.51417	0.10879
3692.54981	0.11022
3691.58544	0.11094
3690.62108	0.11171
3689.65672	0.11291
3688.69235	0.11365
3687.72799	0.11316
3686.76362	0.11307
3685.79926	0.11501
3684.8349	0.11768
3683.87053	0.12
3682.90617	0.1212
3681.9418	0.12155
3680.97744	0.12259
3680.01308	0.12517
3679.04871	0.12934
3678.08435	0.13444
3677.11998	0.13973
3676.15562	0.14479
3675.19126	0.1488
3674.22689	0.15149
3673.26253	0.15298
3672.29816	0.15346
3671.3338	0.15295
3670.36944	0.15141
3669.40507	0.14882
3668.44071	0.14549
3667.47634	0.14242
3666.51198	0.14005
3665.54762	0.13807
3664.58325	0.13669
3663.61889	0.13674
3662.65452	0.13702
3661.69016	0.13631
3660.7258	0.13638
3659.76143	0.13802
3658.79707	0.14238
3657.8327	0.15002
3656.86834	0.15898
3655.90398	0.16736
3654.93961	0.17446
3653.97525	0.18044
3653.01088	0.1857
3652.04652	0.19025
3651.08216	0.19384
3650.11779	0.19642
3649.15343	0.1982
3648.18906	0.1993
3647.2247	0.19946
3646.26034	0.19857
3645.29597	0.19724
3644.33161	0.19629
3643.36724	0.19507
3642.40288	0.19249
3641.43852	0.18837
3640.47415	0.18433
3639.50979	0.18284
3638.54542	0.18441
3637.58106	0.18859
3636.6167	0.19409
3635.65233	0.20033
3634.68797	0.20644
3633.7236	0.21136
3632.75924	0.2149
3631.79488	0.2175
3630.83051	0.22001
3629.86615	0.22315
3628.90178	0.2268
3627.93742	0.23033
3626.97306	0.23329
3626.00869	0.23578
3625.04433	0.23799
3624.07996	0.24012
3623.1156	0.24244
3622.15124	0.24473
3621.18687	0.24652
3620.22251	0.24766
3619.25814	0.24872
3618.29378	0.25079
3617.32942	0.25489
3616.36505	0.26021
3615.40069	0.26454
3614.43632	0.26764
3613.47196	0.26961
3612.5076	0.27057
3611.54323	0.2709
3610.57887	0.27095
3609.6145	0.27103
3608.65014	0.27139
3607.68578	0.27225
3606.72141	0.27377
3605.75705	0.27563
3604.79268	0.27732
3603.82832	0.27901
3602.86396	0.28102
3601.89959	0.28323
3600.93523	0.28522
3599.97086	0.28658
3599.0065	0.28773
3598.04214	0.28997
3597.07777	0.29371
3596.11341	0.29834
3595.14904	0.30315
3594.18468	0.30753
3593.22031	0.31103
3592.25595	0.31365
3591.29159	0.31575
3590.32722	0.31769
3589.36286	0.3196
3588.39849	0.32155
3587.43413	0.32345
3586.46977	0.32511
3585.5054	0.32653
3584.54104	0.32788
3583.57667	0.32932
3582.61231	0.33069
3581.64795	0.33169
3580.68358	0.33204
3579.71922	0.33141
3578.75485	0.33041
3577.79049	0.33057
3576.82613	0.33292
3575.86176	0.33748
3574.8974	0.34339
3573.93303	0.34933
3572.96867	0.35459
3572.00431	0.35927
3571.03994	0.36366
3570.07558	0.3677
3569.11121	0.37126
3568.14685	0.37446
3567.18249	0.37724
3566.21812	0.37935
3565.25376	0.38081
3564.28939	0.38182
3563.32503	0.38275
3562.36067	0.38373
3561.3963	0.38439
3560.43194	0.3843
3559.46757	0.38345
3558.50321	0.38221
3557.53885	0.38111
3556.57448	0.3809
3555.61012	0.38248
3554.64575	0.38598
3553.68139	0.39024
3552.71703	0.39413
3551.75266	0.39746
3550.7883	0.40041
3549.82393	0.40295
3548.85957	0.40511
3547.89521	0.40715
3546.93084	0.40916
3545.96648	0.41101
3545.00211	0.41254
3544.03775	0.41363
3543.07339	0.4143
3542.10902	0.41483
3541.14466	0.4155
3540.18029	0.41642
3539.21593	0.41744
3538.25157	0.41846
3537.2872	0.41948
3536.32284	0.42062
3535.35847	0.42218
3534.39411	0.42456
3533.42975	0.42783
3532.46538	0.43156
3531.50102	0.43513
3530.53665	0.43827
3529.57229	0.44097
3528.60793	0.44332
3527.64356	0.44537
3526.6792	0.4471
3525.71483	0.4486
3524.75047	0.45007
3523.78611	0.45149
3522.82174	0.45248
3521.85738	0.45293
3520.89301	0.45318
3519.92865	0.45369
3518.96429	0.45445
3517.99992	0.45526
3517.03556	0.45608
3516.07119	0.45698
3515.10683	0.45805
3514.14247	0.45946
3513.1781	0.46138
3512.21374	0.46388
3511.24937	0.46687
3510.28501	0.46993
3509.32065	0.47258
3508.35628	0.47482
3507.39192	0.47694
3506.42755	0.4791
3505.46319	0.4812
3504.49883	0.4831
3503.53446	0.48472
3502.5701	0.48609
3501.60573	0.48723
3500.64137	0.48817
3499.67701	0.48903
3498.71264	0.49009
3497.74828	0.49149
3496.78391	0.49307
3495.81955	0.4944
3494.85519	0.4953
3493.89082	0.49603
3492.92646	0.49704
3491.96209	0.4987
3490.99773	0.50103
3490.03337	0.50362
3489.069	0.50606
3488.10464	0.50816
3487.14027	0.50998
3486.17591	0.51167
3485.21155	0.51344
3484.24718	0.51533
3483.28282	0.51724
3482.31845	0.51904
3481.35409	0.52066
3480.38973	0.52208
3479.42536	0.52331
3478.461	0.52444
3477.49663	0.52557
3476.53227	0.52681
3475.56791	0.52806
3474.60354	0.52921
3473.63918	0.5303
3472.67481	0.53144
3471.71045	0.53271
3470.74609	0.53416
3469.78172	0.53581
3468.81736	0.53754
3467.85299	0.53919
3466.88863	0.5407
3465.92427	0.54207
3464.9599	0.54334
3463.99554	0.54461
3463.03117	0.54591
3462.06681	0.5472
3461.10245	0.54836
3460.13808	0.54927
3459.17372	0.54998
3458.20935	0.55079
3457.24499	0.55186
3456.28062	0.55305
3455.31626	0.55423
3454.3519	0.55536
3453.38753	0.55648
3452.42317	0.55764
3451.4588	0.55882
3450.49444	0.56002
3449.53008	0.56116
3448.56571	0.56214
3447.60135	0.56291
3446.63698	0.5635
3445.67262	0.56392
3444.70826	0.56418
3443.74389	0.56429
3442.77953	0.56427
3441.81516	0.56414
3440.8508	0.5639
3439.88644	0.5635
3438.92207	0.56296
3437.95771	0.56231
3436.99334	0.56161
3436.02898	0.56106
3435.06462	0.5608
3434.10025	0.56061
3433.13589	0.56028
3432.17152	0.55991
3431.20716	0.55975
3430.2428	0.55987
3429.27843	0.56004
3428.31407	0.56007
3427.3497	0.55995
3426.38534	0.55969
3425.42098	0.5593
3424.45661	0.55879
3423.49225	0.55814
3422.52788	0.55735
3421.56352	0.55645
3420.59916	0.55548
3419.63479	0.55443
3418.67043	0.55329
3417.70606	0.55202
3416.7417	0.55064
3415.77734	0.54916
3414.81297	0.54763
3413.84861	0.54605
3412.88424	0.54442
3411.91988	0.54279
3410.95552	0.54118
3409.99115	0.53961
3409.02679	0.53819
3408.06242	0.53698
3407.09806	0.53586
3406.1337	0.53464
3405.16933	0.53326
3404.20497	0.53187
3403.2406	0.53058
3402.27624	0.5294
3401.31188	0.5282
3400.34751	0.52693
3399.38315	0.52558
3398.41878	0.52413
3397.45442	0.52257
3396.49006	0.52093
3395.52569	0.5193
3394.56133	0.51769
3393.59696	0.51607
3392.6326	0.51442
3391.66824	0.51271
3390.70387	0.51094
3389.73951	0.50909
3388.77514	0.50717
3387.81078	0.50516
3386.84642	0.50309
3385.88205	0.50103
3384.91769	0.49901
3383.95332	0.49694
3382.98896	0.49473
3382.0246	0.49246
3381.06023	0.49024
3380.09587	0.48805
3379.1315	0.48579
3378.16714	0.48342
3377.20278	0.48098
3376.23841	0.4785
3375.27405	0.47601
3374.30968	0.47351
3373.34532	0.47107
3372.38096	0.46871
3371.41659	0.46636
3370.45223	0.46396
3369.48786	0.46145
3368.5235	0.45887
3367.55914	0.45626
3366.59477	0.45367
3365.63041	0.45108
3364.66604	0.44845
3363.70168	0.44578
3362.73732	0.44306
3361.77295	0.44029
3360.80859	0.43744
3359.84422	0.43453
3358.87986	0.43157
3357.9155	0.4286
3356.95113	0.42564
3355.98677	0.4227
3355.0224	0.41978
3354.05804	0.41688
3353.09368	0.414
3352.12931	0.41115
3351.16495	0.40834
3350.20058	0.40556
3349.23622	0.40278
3348.27186	0.4
3347.30749	0.39725
3346.34313	0.39456
3345.37876	0.39196
3344.4144	0.38947
3343.45004	0.38703
3342.48567	0.38458
3341.52131	0.38209
3340.55694	0.37958
3339.59258	0.37705
3338.62822	0.37449
3337.66385	0.37194
3336.69949	0.36941
3335.73512	0.36691
3334.77076	0.3644
3333.8064	0.36189
3332.84203	0.35936
3331.87767	0.35683
3330.9133	0.35428
3329.94894	0.35172
3328.98458	0.34916
3328.02021	0.34662
3327.05585	0.34406
3326.09148	0.3415
3325.12712	0.33899
3324.16276	0.33657
3323.19839	0.33423
3322.23403	0.3319
3321.26966	0.32955
3320.3053	0.3272
3319.34094	0.3249
3318.37657	0.32268
3317.41221	0.32048
3316.44784	0.31828
3315.48348	0.31609
3314.51911	0.31392
3313.55475	0.31174
3312.59039	0.30956
3311.62602	0.30738
3310.66166	0.30518
3309.69729	0.30297
3308.73293	0.30077
3307.76857	0.2986
3306.8042	0.29645
3305.83984	0.29429
3304.87547	0.29211
3303.91111	0.28992
3302.94675	0.28777
3301.98238	0.2857
3301.01802	0.28371
3300.05365	0.28174
3299.08929	0.27981
3298.12493	0.27794
3297.16056	0.27614
3296.1962	0.27436
3295.23183	0.27257
3294.26747	0.27077
3293.30311	0.26899
3292.33874	0.26722
3291.37438	0.26546
3290.41001	0.2637
3289.44565	0.26193
3288.48129	0.26014
3287.51692	0.2584
3286.55256	0.25673
3285.58819	0.25513
3284.62383	0.25359
3283.65947	0.25211
3282.6951	0.25065
3281.73074	0.24924
3280.76637	0.24787
3279.80201	0.24653
3278.83765	0.24519
3277.87328	0.24382
3276.90892	0.24243
3275.94455	0.24107
3274.98019	0.23971
3274.01583	0.23833
3273.05146	0.23693
3272.0871	0.23555
3271.12273	0.23423
3270.15837	0.23289
3269.19401	0.23151
3268.22964	0.23011
3267.26528	0.2287
3266.30091	0.22725
3265.33655	0.22584
3264.37219	0.22454
3263.40782	0.2233
3262.44346	0.22207
3261.47909	0.22088
3260.51473	0.21968
3259.55037	0.21844
3258.586	0.21712
3257.62164	0.21572
3256.65727	0.21432
3255.69291	0.213
3254.72855	0.21177
3253.76418	0.21059
3252.79982	0.20943
3251.83545	0.20829
3250.87109	0.20716
3249.90673	0.20604
3248.94236	0.20494
3247.978	0.20388
3247.01363	0.20285
3246.04927	0.20183
3245.08491	0.20082
3244.12054	0.19982
3243.15618	0.19886
3242.19181	0.19794
3241.22745	0.19705
3240.26309	0.19612
3239.29872	0.19516
3238.33436	0.1942
3237.36999	0.19322
3236.40563	0.1922
3235.44127	0.19113
3234.4769	0.19005
3233.51254	0.18899
3232.54817	0.18795
3231.58381	0.18686
3230.61945	0.18572
3229.65508	0.18458
3228.69072	0.18345
3227.72635	0.18228
3226.76199	0.18104
3225.79763	0.17975
3224.83326	0.17851
3223.8689	0.17729
3222.90453	0.17602
3221.94017	0.17468
3220.97581	0.17335
3220.01144	0.17205
3219.04708	0.17075
3218.08271	0.16943
3217.11835	0.16808
3216.15399	0.16672
3215.18962	0.16534
3214.22526	0.16394
3213.26089	0.16248
3212.29653	0.16097
3211.33217	0.15942
3210.3678	0.15783
3209.40344	0.15626
3208.43907	0.15479
3207.47471	0.15343
3206.51035	0.15212
3205.54598	0.1508
3204.58162	0.14945
3203.61725	0.14811
3202.65289	0.14681
3201.68853	0.14557
3200.72416	0.14434
3199.7598	0.14309
3198.79543	0.14185
3197.83107	0.14064
3196.86671	0.13946
3195.90234	0.13829
3194.93798	0.13714
3193.97361	0.136
3193.00925	0.13487
3192.04489	0.13372
3191.08052	0.13253
3190.11616	0.13132
3189.15179	0.13015
3188.18743	0.12907
3187.22307	0.12807
3186.2587	0.12714
3185.29434	0.12627
3184.32997	0.12542
3183.36561	0.12456
3182.40125	0.12368
3181.43688	0.1228
3180.47252	0.12195
3179.50815	0.12113
3178.54379	0.12033
3177.57943	0.11954
3176.61506	0.11876
3175.6507	0.118
3174.68633	0.11727
3173.72197	0.11658
3172.7576	0.11595
3171.79324	0.11534
3170.82888	0.11472
3169.86451	0.11406
3168.90015	0.11336
3167.93578	0.11263
3166.97142	0.11191
3166.00706	0.11122
3165.04269	0.1105
3164.07833	0.10968
3163.11396	0.10876
3162.1496	0.10779
3161.18524	0.10675
3160.22087	0.10566
3159.25651	0.10449
3158.29214	0.10328
3157.32778	0.10203
3156.36342	0.10074
3155.39905	0.09942
3154.43469	0.09807
3153.47032	0.09672
3152.50596	0.09541
3151.5416	0.09413
3150.57723	0.09288
3149.61287	0.09168
3148.6485	0.09052
3147.68414	0.08941
3146.71978	0.08834
3145.75541	0.08729
3144.79105	0.08627
3143.82668	0.08537
3142.86232	0.08459
3141.89796	0.08388
3140.93359	0.08323
3139.96923	0.08261
3139.00486	0.08202
3138.0405	0.08146
3137.07614	0.08097
3136.11177	0.08053
3135.14741	0.08008
3134.18304	0.07964
3133.21868	0.0793
3132.25432	0.07904
3131.28995	0.0788
3130.32559	0.07859
3129.36122	0.07843
3128.39686	0.07829
3127.4325	0.07818
3126.46813	0.07811
3125.50377	0.07809
3124.5394	0.07809
3123.57504	0.07809
3122.61068	0.07808
3121.64631	0.0781
3120.68195	0.07816
3119.71758	0.07821
3118.75322	0.0782
3117.78886	0.07817
3116.82449	0.07811
3115.86013	0.07801
3114.89576	0.07791
3113.9314	0.07781
3112.96704	0.07769
3112.00267	0.0776
3111.03831	0.07762
3110.07394	0.07777
3109.10958	0.07792
3108.14522	0.07803
3107.18085	0.0782
3106.21649	0.07847
3105.25212	0.0788
3104.28776	0.07921
3103.3234	0.07969
3102.35903	0.08018
3101.39467	0.08064
3100.4303	0.08109
3099.46594	0.08153
3098.50158	0.082
3097.53721	0.0825
3096.57285	0.08299
3095.60848	0.08348
3094.64412	0.08396
3093.67976	0.08444
3092.71539	0.08491
3091.75103	0.08542
3090.78666	0.08602
3089.8223	0.08676
3088.85794	0.08762
3087.89357	0.08856
3086.92921	0.08952
3085.96484	0.09047
3085.00048	0.09145
3084.03612	0.09251
3083.07175	0.09364
3082.10739	0.09479
3081.14302	0.09595
3080.17866	0.09711
3079.2143	0.09827
3078.24993	0.09946
3077.28557	0.1007
3076.3212	0.10199
3075.35684	0.10335
3074.39248	0.10478
3073.42811	0.1062
3072.46375	0.1076
3071.49938	0.10899
3070.53502	0.1104
3069.57066	0.1118
3068.60629	0.11318
3067.64193	0.11458
3066.67756	0.11604
3065.7132	0.11747
3064.74884	0.1188
3063.78447	0.12002
3062.82011	0.12112
3061.85574	0.12215
3060.89138	0.12313
3059.92702	0.12412
3058.96265	0.12513
3057.99829	0.12614
3057.03392	0.12715
3056.06956	0.12816
3055.1052	0.12919
3054.14083	0.13023
3053.17647	0.13124
3052.2121	0.13224
3051.24774	0.13316
3050.28338	0.13398
3049.31901	0.1347
3048.35465	0.13535
3047.39028	0.13595
3046.42592	0.13651
3045.46156	0.13708
3044.49719	0.13769
3043.53283	0.1383
3042.56846	0.13893
3041.6041	0.13964
3040.63974	0.14042
3039.67537	0.14124
3038.71101	0.1421
3037.74664	0.14302
3036.78228	0.14406
3035.81792	0.14519
3034.85355	0.14633
3033.88919	0.1475
3032.92482	0.14868
3031.96046	0.14989
3030.99609	0.15109
3030.03173	0.15229
3029.06737	0.15346
3028.103	0.15464
3027.13864	0.15584
3026.17427	0.15711
3025.20991	0.15843
3024.24555	0.15987
3023.28118	0.16152
3022.31682	0.16338
3021.35245	0.16545
3020.38809	0.16774
3019.42373	0.17028
3018.45936	0.17299
3017.495	0.17577
3016.53063	0.17856
3015.56627	0.18143
3014.60191	0.18442
3013.63754	0.18754
3012.67318	0.19073
3011.70881	0.19396
3010.74445	0.19724
3009.78009	0.20056
3008.81572	0.20394
3007.85136	0.20736
3006.88699	0.21082
3005.92263	0.21431
3004.95827	0.2179
3003.9939	0.22161
3003.02954	0.22543
3002.06517	0.22938
3001.10081	0.23346
3000.13645	0.23769
2999.17208	0.24205
2998.20772	0.24654
2997.24335	0.25112
2996.27899	0.25575
2995.31463	0.2604
2994.35026	0.26507
2993.3859	0.26975
2992.42153	0.27443
2991.45717	0.27908
2990.49281	0.28364
2989.52844	0.28808
2988.56408	0.29238
2987.59971	0.29654
2986.63535	0.30054
2985.67099	0.30438
2984.70662	0.30809
2983.74226	0.31166
2982.77789	0.31509
2981.81353	0.31836
2980.84917	0.32146
2979.8848	0.32438
2978.92044	0.32711
2977.95607	0.32965
2976.99171	0.33205
2976.02735	0.33434
2975.06298	0.33657
2974.09862	0.33872
2973.13425	0.34081
2972.16989	0.34286
2971.20553	0.34492
2970.24116	0.34702
2969.2768	0.34916
2968.31243	0.35135
2967.34807	0.35357
2966.38371	0.35584
2965.41934	0.35817
2964.45498	0.36058
2963.49061	0.36304
2962.52625	0.36555
2961.56189	0.3681
2960.59752	0.37069
2959.63316	0.37331
2958.66879	0.37594
2957.70443	0.3786
2956.74007	0.38133
2955.7757	0.38415
2954.81134	0.3871
2953.84697	0.39019
2952.88261	0.39346
2951.91825	0.39693
2950.95388	0.40062
2949.98952	0.40455
2949.02515	0.4087
2948.06079	0.41305
2947.09643	0.41758
2946.13206	0.42226
2945.1677	0.42703
2944.20333	0.43184
2943.23897	0.43662
2942.27461	0.44129
2941.31024	0.44577
2940.34588	0.44999
2939.38151	0.45388
2938.41715	0.45739
2937.45279	0.4605
2936.48842	0.4632
2935.52406	0.46545
2934.55969	0.46726
2933.59533	0.46859
2932.63097	0.46945
2931.6666	0.4698
2930.70224	0.46965
2929.73787	0.46897
2928.77351	0.46777
2927.80915	0.46605
2926.84478	0.46382
2925.88042	0.46106
2924.91605	0.45777
2923.95169	0.45394
2922.98733	0.44962
2922.02296	0.44483
2921.0586	0.43963
2920.09423	0.43405
2919.12987	0.42816
2918.16551	0.42204
2917.20114	0.4158
2916.23678	0.40952
2915.27241	0.4033
2914.30805	0.3972
2913.34369	0.39133
2912.37932	0.38575
2911.41496	0.38051
2910.45059	0.3756
2909.48623	0.37103
2908.52187	0.3668
2907.5575	0.36291
2906.59314	0.35934
2905.62877	0.35604
2904.66441	0.35295
2903.70005	0.34999
2902.73568	0.34711
2901.77132	0.34423
2900.80695	0.34129
2899.84259	0.33825
2898.87823	0.33507
2897.91386	0.33174
2896.9495	0.32825
2895.98513	0.32457
2895.02077	0.32071
2894.05641	0.31667
2893.09204	0.31248
2892.12768	0.30817
2891.16331	0.30373
2890.19895	0.2992
2889.23458	0.29458
2888.27022	0.28992
2887.30586	0.28525
2886.34149	0.28058
2885.37713	0.27595
2884.41276	0.27139
2883.4484	0.2669
2882.48404	0.26248
2881.51967	0.25811
2880.55531	0.25376
2879.59094	0.24942
2878.62658	0.24507
2877.66222	0.2407
2876.69785	0.23628
2875.73349	0.23182
2874.76912	0.22733
2873.80476	0.22285
2872.8404	0.21838
2871.87603	0.21396
2870.91167	0.20965
2869.9473	0.2055
2868.98294	0.20161
2868.01858	0.19801
2867.05421	0.19477
2866.08985	0.19196
2865.12548	0.18966
2864.16112	0.18791
2863.19676	0.18675
2862.23239	0.18619
2861.26803	0.1862
2860.30366	0.18676
2859.3393	0.18779
2858.37494	0.1892
2857.41057	0.19085
2856.44621	0.19263
2855.48184	0.19447
2854.51748	0.19628
2853.55312	0.19803
2852.58875	0.19966
2851.62439	0.20113
2850.66002	0.20244
2849.69566	0.20358
2848.7313	0.20456
2847.76693	0.20535
2846.80257	0.20598
2845.8382	0.20645
2844.87384	0.20676
2843.90948	0.20691
2842.94511	0.20688
2841.98075	0.20664
2841.01638	0.20621
2840.05202	0.20556
2839.08766	0.20466
2838.12329	0.20346
2837.15893	0.20193
2836.19456	0.20003
2835.2302	0.19774
2834.26584	0.19505
2833.30147	0.19199
2832.33711	0.18859
2831.37274	0.18495
2830.40838	0.18114
2829.44402	0.17721
2828.47965	0.17324
2827.51529	0.16929
2826.55092	0.16542
2825.58656	0.16167
2824.6222	0.15807
2823.65783	0.15462
2822.69347	0.15131
2821.7291	0.14812
2820.76474	0.14502
2819.80038	0.14195
2818.83601	0.13887
2817.87165	0.1357
2816.90728	0.13242
2815.94292	0.12895
2814.97856	0.12527
2814.01419	0.12134
2813.04983	0.11714
2812.08546	0.1127
2811.1211	0.10803
2810.15674	0.10315
2809.19237	0.09812
2808.22801	0.09303
2807.26364	0.08792
2806.29928	0.08289
2805.33492	0.078
2804.37055	0.07332
2803.40619	0.0689
2802.44182	0.0648
2801.47746	0.06106
2800.5131	0.05771
2799.54873	0.05475
2798.58437	0.05216
2797.62	0.04995
2796.65564	0.04809
2795.69128	0.04653
2794.72691	0.04523
2793.76255	0.04414
2792.79818	0.04322
2791.83382	0.04243
2790.86946	0.04174
2789.90509	0.0411
2788.94073	0.04048
2787.97636	0.03988
2787.012	0.0393
2786.04764	0.03872
2785.08327	0.03815
2784.11891	0.03759
2783.15454	0.03703
2782.19018	0.03648
2781.22582	0.03593
2780.26145	0.03539
2779.29709	0.03487
2778.33272	0.03438
2777.36836	0.03391
2776.404	0.03346
2775.43963	0.03303
2774.47527	0.03262
2773.5109	0.03225
2772.54654	0.03189
2771.58218	0.03156
2770.61781	0.03124
2769.65345	0.03095
2768.68908	0.03069
2767.72472	0.03046
2766.76036	0.03026
2765.79599	0.03007
2764.83163	0.0299
2763.86726	0.02975
2762.9029	0.02963
2761.93854	0.02951
2760.97417	0.02941
2760.00981	0.02931
2759.04544	0.02921
2758.08108	0.02913
2757.11672	0.02905
2756.15235	0.02896
2755.18799	0.02885
2754.22362	0.02874
2753.25926	0.02862
2752.2949	0.02849
2751.33053	0.02833
2750.36617	0.02814
2749.4018	0.02792
2748.43744	0.02767
2747.47307	0.02742
2746.50871	0.02715
2745.54435	0.02687
2744.57998	0.02658
2743.61562	0.02627
2742.65125	0.02594
2741.68689	0.02559
2740.72253	0.02524
2739.75816	0.02489
2738.7938	0.02454
2737.82943	0.02421
2736.86507	0.02389
2735.90071	0.02359
2734.93634	0.02331
2733.97198	0.02304
2733.00761	0.02279
2732.04325	0.02254
2731.07889	0.02233
2730.11452	0.02213
2729.15016	0.02196
2728.18579	0.0218
2727.22143	0.02165
2726.25707	0.02152
2725.2927	0.0214
2724.32834	0.02131
2723.36397	0.02124
2722.39961	0.02116
2721.43525	0.0211
2720.47088	0.02104
2719.50652	0.02101
2718.54215	0.02099
2717.57779	0.02096
2716.61343	0.02093
2715.64906	0.02091
2714.6847	0.02091
2713.72033	0.02091
2712.75597	0.02092
2711.79161	0.02092
2710.82724	0.02091
2709.86288	0.02092
2708.89851	0.02093
2707.93415	0.02094
2706.96979	0.02096
2706.00542	0.02098
2705.04106	0.021
2704.07669	0.02102
2703.11233	0.02104
2702.14797	0.02107
2701.1836	0.0211
2700.21924	0.02114
2699.25487	0.02118
2698.29051	0.02121
2697.32615	0.02125
2696.36178	0.02127
2695.39742	0.02129
2694.43305	0.02128
2693.46869	0.02126
2692.50433	0.02123
2691.53996	0.0212
2690.5756	0.02116
2689.61123	0.02111
2688.64687	0.02105
2687.68251	0.02098
2686.71814	0.02091
2685.75378	0.02082
2684.78941	0.02073
2683.82505	0.02062
2682.86069	0.02051
2681.89632	0.0204
2680.93196	0.02031
2679.96759	0.02023
2679.00323	0.02015
2678.03887	0.02007
2677.0745	0.02
2676.11014	0.01993
2675.14577	0.01988
2674.18141	0.01982
2673.21705	0.01978
2672.25268	0.01976
2671.28832	0.01975
2670.32395	0.01976
2669.35959	0.0198
2668.39523	0.01986
2667.43086	0.01996
2666.4665	0.02009
2665.50213	0.02024
2664.53777	0.02042
2663.57341	0.02062
2662.60904	0.02085
2661.64468	0.02111
2660.68031	0.0214
2659.71595	0.02172
2658.75159	0.02208
2657.78722	0.02247
2656.82286	0.02288
2655.85849	0.02329
2654.89413	0.02371
2653.92977	0.02412
2652.9654	0.02454
2652.00104	0.02494
2651.03667	0.02532
2650.07231	0.02567
2649.10795	0.02599
2648.14358	0.02627
2647.17922	0.0265
2646.21485	0.02668
2645.25049	0.02679
2644.28613	0.02685
2643.32176	0.02687
2642.3574	0.02685
2641.39303	0.02677
2640.42867	0.02665
2639.46431	0.02649
2638.49994	0.0263
2637.53558	0.0261
2636.57121	0.02589
2635.60685	0.02568
2634.64249	0.02547
2633.67812	0.02527
2632.71376	0.02509
2631.74939	0.02494
2630.78503	0.02481
2629.82067	0.02471
2628.8563	0.02465
2627.89194	0.02462
2626.92757	0.02462
2625.96321	0.02466
2624.99885	0.02472
2624.03448	0.0248
2623.07012	0.0249
2622.10575	0.02503
2621.14139	0.02517
2620.17703	0.02533
2619.21266	0.02549
2618.2483	0.02564
2617.28393	0.0258
2616.31957	0.02595
2615.35521	0.0261
2614.39084	0.02625
2613.42648	0.02639
2612.46211	0.02653
2611.49775	0.02666
2610.53339	0.02678
2609.56902	0.02689
2608.60466	0.02698
2607.64029	0.02705
2606.67593	0.02709
2605.71156	0.02711
2604.7472	0.02711
2603.78284	0.02709
2602.81847	0.02705
2601.85411	0.02696
2600.88974	0.02684
2599.92538	0.02668
2598.96102	0.02649
2597.99665	0.02626
2597.03229	0.02599
2596.06792	0.0257
2595.10356	0.02539
2594.1392	0.02507
2593.17483	0.02473
2592.21047	0.02439
2591.2461	0.02405
2590.28174	0.02372
2589.31738	0.02338
2588.35301	0.02305
2587.38865	0.02271
2586.42428	0.02238
2585.45992	0.02205
2584.49556	0.02172
2583.53119	0.0214
2582.56683	0.02108
2581.60246	0.02076
2580.6381	0.02044
2579.67374	0.02012
2578.70937	0.0198
2577.74501	0.01948
2576.78064	0.01914
2575.81628	0.01881
2574.85192	0.01848
2573.88755	0.01817
2572.92319	0.01787
2571.95882	0.01758
2570.99446	0.01729
2570.0301	0.01701
2569.06573	0.01674
2568.10137	0.01648
2567.137	0.01623
2566.17264	0.01597
2565.20828	0.01573
2564.24391	0.0155
2563.27955	0.01529
2562.31518	0.01507
2561.35082	0.01485
2560.38646	0.01463
2559.42209	0.01441
2558.45773	0.01421
2557.49336	0.014
2556.529	0.01378
2555.56464	0.01357
2554.60027	0.01337
2553.63591	0.01318
2552.67154	0.01299
2551.70718	0.01282
2550.74282	0.01264
2549.77845	0.01248
2548.81409	0.01233
2547.84972	0.01217
2546.88536	0.01202
2545.921	0.01189
2544.95663	0.01177
2543.99227	0.01166
2543.0279	0.01155
2542.06354	0.01144
2541.09918	0.01135
2540.13481	0.01125
2539.17045	0.01116
2538.20608	0.01106
2537.24172	0.01097
2536.27736	0.01089
2535.31299	0.01083
2534.34863	0.01076
2533.38426	0.01069
2532.4199	0.01063
2531.45554	0.01056
2530.49117	0.01051
2529.52681	0.01044
2528.56244	0.01036
2527.59808	0.01029
2526.63372	0.01022
2525.66935	0.01016
2524.70499	0.0101
2523.74062	0.01005
2522.77626	0.00998
2521.8119	0.00992
2520.84753	0.00987
2519.88317	0.00983
2518.9188	0.00978
2517.95444	0.00973
2516.99008	0.00969
2516.02571	0.00966
2515.06135	0.00963
2514.09698	0.0096
2513.13262	0.00957
2512.16826	0.00955
2511.20389	0.00954
2510.23953	0.00953
2509.27516	0.00951
2508.3108	0.00948
2507.34644	0.00947
2506.38207	0.00946
2505.41771	0.00945
2504.45334	0.00945
2503.48898	0.00945
2502.52462	0.00945
2501.56025	0.00946
2500.59589	0.00947
2499.63152	0.00947
2498.66716	0.00948
2497.7028	0.0095
2496.73843	0.00954
2495.77407	0.00958
2494.8097	0.0096
2493.84534	0.00962
2492.88098	0.00964
2491.91661	0.00966
2490.95225	0.00968
2489.98788	0.0097
2489.02352	0.00971
2488.05916	0.00973
2487.09479	0.00976
2486.13043	0.00978
2485.16606	0.00979
2484.2017	0.00981
2483.23734	0.00983
2482.27297	0.00985
2481.30861	0.00987
2480.34424	0.00987
2479.37988	0.00987
2478.41552	0.00986
2477.45115	0.00985
2476.48679	0.00983
2475.52242	0.00982
2474.55806	0.0098
2473.5937	0.00978
2472.62933	0.00975
2471.66497	0.00973
2470.7006	0.00969
2469.73624	0.00965
2468.77187	0.00961
2467.80751	0.00958
2466.84315	0.00955
2465.87878	0.00951
2464.91442	0.00947
2463.95005	0.00943
2462.98569	0.00938
2462.02133	0.00934
2461.05696	0.0093
2460.0926	0.00926
2459.12823	0.00922
2458.16387	0.00918
2457.19951	0.00915
2456.23514	0.0091
2455.27078	0.00905
2454.30641	0.00901
2453.34205	0.00898
2452.37769	0.00896
2451.41332	0.00893
2450.44896	0.00891
2449.48459	0.00889
2448.52023	0.00889
2447.55587	0.0089
2446.5915	0.0089
2445.62714	0.0089
2444.66277	0.00891
2443.69841	0.00892
2442.73405	0.00892
2441.76968	0.00892
2440.80532	0.00891
2439.84095	0.00891
2438.87659	0.00891
2437.91223	0.00892
2436.94786	0.00892
2435.9835	0.0089
2435.01913	0.00888
2434.05477	0.00886
2433.09041	0.00884
2432.12604	0.00881
2431.16168	0.00878
2430.19731	0.00875
2429.23295	0.00874
2428.26859	0.00872
2427.30422	0.00869
2426.33986	0.00866
2425.37549	0.00864
2424.41113	0.00862
2423.44677	0.00861
2422.4824	0.00859
2421.51804	0.00856
2420.55367	0.00854
2419.58931	0.00854
2418.62495	0.00854
2417.66058	0.00852
2416.69622	0.00851
2415.73185	0.00851
2414.76749	0.00851
2413.80313	0.00851
2412.83876	0.00849
2411.8744	0.00847
2410.91003	0.00846
2409.94567	0.00845
2408.98131	0.00844
2408.01694	0.00842
2407.05258	0.00839
2406.08821	0.00837
2405.12385	0.00835
2404.15949	0.00833
2403.19512	0.00831
2402.23076	0.00829
2401.26639	0.00828
2400.30203	0.00828
2399.33767	0.00827
2398.3733	0.00824
2397.40894	0.00822
2396.44457	0.0082
2395.48021	0.0082
2394.51585	0.0082
2393.55148	0.00823
2392.58712	0.00828
2391.62275	0.00839
2390.65839	0.00855
2389.69403	0.00877
2388.72966	0.00903
2387.7653	0.00932
2386.80093	0.00965
2385.83657	0.00999
2384.87221	0.01034
2383.90784	0.01067
2382.94348	0.01098
2381.97911	0.01124
2381.01475	0.01145
2380.05039	0.01161
2379.08602	0.01166
2378.12166	0.01162
2377.15729	0.01146
2376.19293	0.0112
2375.22857	0.01082
2374.2642	0.01033
2373.29984	0.00973
2372.33547	0.00904
2371.37111	0.00826
2370.40675	0.00745
2369.44238	0.00665
2368.47802	0.00591
2367.51365	0.0052
2366.54929	0.00454
2365.58493	0.00394
2364.62056	0.0034
2363.6562	0.00295
2362.69183	0.00262
2361.72747	0.00246
2360.76311	0.00251
2359.79874	0.00281
2358.83438	0.00333
2357.87001	0.004
2356.90565	0.00474
2355.94129	0.00551
2354.97692	0.0063
2354.01256	0.00706
2353.04819	0.00774
2352.08383	0.0083
2351.11947	0.00869
2350.1551	0.00891
2349.19074	0.00897
2348.22637	0.00889
2347.26201	0.00871
2346.29765	0.00842
2345.33328	0.00799
2344.36892	0.00745
2343.40455	0.00684
2342.44019	0.00624
2341.47583	0.00567
2340.51146	0.00519
2339.5471	0.00488
2338.58273	0.00479
2337.61837	0.00491
2336.65401	0.00519
2335.68964	0.00553
2334.72528	0.00591
2333.76091	0.00639
2332.79655	0.00698
2331.83219	0.00763
2330.86782	0.0083
2329.90346	0.00898
2328.93909	0.00965
2327.97473	0.01032
2327.01036	0.01098
2326.046	0.01159
2325.08164	0.01213
2324.11727	0.01262
2323.15291	0.01306
2322.18854	0.01346
2321.22418	0.01384
2320.25982	0.01419
2319.29545	0.01454
2318.33109	0.01487
2317.36672	0.01517
2316.40236	0.01542
2315.438	0.0156
2314.47363	0.01571
2313.50927	0.01575
2312.5449	0.01573
2311.58054	0.0157
2310.61618	0.01565
2309.65181	0.0156
2308.68745	0.01551
2307.72308	0.01537
2306.75872	0.01521
2305.79436	0.01502
2304.82999	0.01479
2303.86563	0.01451
2302.90126	0.01418
2301.9369	0.01381
2300.97254	0.01344
2300.00817	0.0131
2299.04381	0.01278
2298.07944	0.01246
2297.11508	0.01214
2296.15072	0.01185
2295.18635	0.01156
2294.22199	0.01129
2293.25762	0.01103
2292.29326	0.01076
2291.3289	0.01051
2290.36453	0.01028
2289.40017	0.01008
2288.4358	0.00989
2287.47144	0.00971
2286.50708	0.00955
2285.54271	0.00941
2284.57835	0.00928
2283.61398	0.00917
2282.64962	0.00905
2281.68526	0.00895
2280.72089	0.00886
2279.75653	0.00877
2278.79216	0.00869
2277.8278	0.0086
2276.86344	0.00853
2275.89907	0.00848
2274.93471	0.00844
2273.97034	0.00839
2273.00598	0.00834
2272.04162	0.00829
2271.07725	0.00825
2270.11289	0.00824
2269.14852	0.00822
2268.18416	0.00821
2267.2198	0.00821
2266.25543	0.00822
2265.29107	0.00823
2264.3267	0.00824
2263.36234	0.00824
2262.39798	0.00826
2261.43361	0.00829
2260.46925	0.00831
2259.50488	0.00832
2258.54052	0.00833
2257.57616	0.00835
2256.61179	0.00836
2255.64743	0.00838
2254.68306	0.00838
2253.7187	0.00838
2252.75434	0.00838
2251.78997	0.00839
2250.82561	0.00839
2249.86124	0.00839
2248.89688	0.00838
2247.93252	0.00839
2246.96815	0.0084
2246.00379	0.00842
2245.03942	0.00844
2244.07506	0.00846
2243.1107	0.00848
2242.14633	0.00852
2241.18197	0.00855
2240.2176	0.00859
2239.25324	0.00862
2238.28888	0.00866
2237.32451	0.00871
2236.36015	0.00875
2235.39578	0.00879
2234.43142	0.00883
2233.46706	0.00889
2232.50269	0.00895
2231.53833	0.00901
2230.57396	0.00906
2229.6096	0.00911
2228.64524	0.00917
2227.68087	0.00924
2226.71651	0.00932
2225.75214	0.00938
2224.78778	0.00943
2223.82342	0.00949
2222.85905	0.00957
2221.89469	0.00964
2220.93032	0.00969
2219.96596	0.00974
2219.0016	0.0098
2218.03723	0.00985
2217.07287	0.00991
2216.1085	0.00996
2215.14414	0.01001
2214.17978	0.01005
2213.21541	0.01011
2212.25105	0.01016
2211.28668	0.01022
2210.32232	0.01027
2209.35796	0.01033
2208.39359	0.01041
2207.42923	0.01048
2206.46486	0.01055
2205.5005	0.01062
2204.53614	0.0107
2203.57177	0.0108
2202.60741	0.0109
2201.64304	0.01099
2200.67868	0.01107
2199.71432	0.01116
2198.74995	0.01125
2197.78559	0.01135
2196.82122	0.01144
2195.85686	0.01153
2194.8925	0.01163
2193.92813	0.01174
2192.96377	0.01184
2191.9994	0.01194
2191.03504	0.01203
2190.07068	0.01213
2189.10631	0.01224
2188.14195	0.01235
2187.17758	0.01244
2186.21322	0.01252
2185.24885	0.01261
2184.28449	0.0127
2183.32013	0.01279
2182.35576	0.01286
2181.3914	0.01293
2180.42703	0.01301
2179.46267	0.01309
2178.49831	0.01317
2177.53394	0.01322
2176.56958	0.01327
2175.60521	0.01334
2174.64085	0.01342
2173.67649	0.01348
2172.71212	0.01354
2171.74776	0.01361
2170.78339	0.01367
2169.81903	0.01375
2168.85467	0.01382
2167.8903	0.01387
2166.92594	0.0139
2165.96157	0.01394
2164.99721	0.01398
2164.03285	0.01401
2163.06848	0.01402
2162.10412	0.01402
2161.13975	0.01402
2160.17539	0.01402
2159.21103	0.01402
2158.24666	0.014
2157.2823	0.01398
2156.31793	0.01396
2155.35357	0.01396
2154.38921	0.01396
2153.42484	0.01394
2152.46048	0.01393
2151.49611	0.01392
2150.53175	0.01392
2149.56739	0.01394
2148.60302	0.01394
2147.63866	0.01395
2146.67429	0.01398
2145.70993	0.01404
2144.74557	0.01412
2143.7812	0.01418
2142.81684	0.01424
2141.85247	0.0143
2140.88811	0.01437
2139.92375	0.01443
2138.95938	0.01447
2137.99502	0.01451
2137.03065	0.01454
2136.06629	0.01458
2135.10193	0.01461
2134.13756	0.01464
2133.1732	0.01466
2132.20883	0.01469
2131.24447	0.01471
2130.28011	0.01471
2129.31574	0.0147
2128.35138	0.01467
2127.38701	0.01464
2126.42265	0.01462
2125.45829	0.01462
2124.49392	0.01466
2123.52956	0.01472
2122.56519	0.01478
2121.60083	0.01482
2120.63647	0.01484
2119.6721	0.01486
2118.70774	0.01487
2117.74337	0.01488
2116.77901	0.0149
2115.81465	0.01492
2114.85028	0.01492
2113.88592	0.01492
2112.92155	0.01492
2111.95719	0.01493
2110.99283	0.01494
2110.02846	0.01494
2109.0641	0.01493
2108.09973	0.01493
2107.13537	0.01492
2106.17101	0.01491
2105.20664	0.0149
2104.24228	0.0149
2103.27791	0.01491
2102.31355	0.01491
2101.34919	0.01492
2100.38482	0.01497
2099.42046	0.01504
2098.45609	0.01513
2097.49173	0.01524
2096.52737	0.01536
2095.563	0.01546
2094.59864	0.01554
2093.63427	0.01563
2092.66991	0.01571
2091.70555	0.01577
2090.74118	0.01582
2089.77682	0.01585
2088.81245	0.01589
2087.84809	0.01591
2086.88373	0.01592
2085.91936	0.0159
2084.955	0.01588
2083.99063	0.01586
2083.02627	0.01584
2082.06191	0.0158
2081.09754	0.01575
2080.13318	0.01568
2079.16881	0.01561
2078.20445	0.01555
2077.24009	0.01548
2076.27572	0.01545
2075.31136	0.01555
2074.34699	0.01574
2073.38263	0.01593
2072.41827	0.01607
2071.4539	0.0162
2070.48954	0.01633
2069.52517	0.01645
2068.56081	0.01654
2067.59645	0.01659
2066.63208	0.01662
2065.66772	0.01661
2064.70335	0.01657
2063.73899	0.01651
2062.77463	0.01642
2061.81026	0.01632
2060.8459	0.01619
2059.88153	0.01603
2058.91717	0.01583
2057.95281	0.0156
2056.98844	0.01532
2056.02408	0.01501
2055.05971	0.01469
2054.09535	0.01439
2053.13099	0.01422
2052.16662	0.01421
2051.20226	0.01428
2050.23789	0.01431
2049.27353	0.01432
2048.30917	0.01432
2047.3448	0.01431
2046.38044	0.01426
2045.41607	0.01417
2044.45171	0.01405
2043.48734	0.01391
2042.52298	0.01374
2041.55862	0.01355
2040.59425	0.01333
2039.62989	0.0131
2038.66552	0.01285
2037.70116	0.01258
2036.7368	0.01229
2035.77243	0.01198
2034.80807	0.01165
2033.8437	0.01133
2032.87934	0.01103
2031.91498	0.01072
2030.95061	0.01037
2029.98625	0.01005
2029.02188	0.00986
2028.05752	0.00984
2027.09316	0.01
2026.12879	0.01026
2025.16443	0.0105
2024.20006	0.0107
2023.2357	0.01085
2022.27134	0.01094
2021.30697	0.01097
2020.34261	0.01096
2019.37824	0.0109
2018.41388	0.01084
2017.44952	0.01076
2016.48515	0.01065
2015.52079	0.01048
2014.55642	0.01028
2013.59206	0.01002
2012.6277	0.00972
2011.66333	0.00937
2010.69897	0.00898
2009.7346	0.00858
2008.77024	0.00817
2007.80588	0.00776
2006.84151	0.00743
2005.87715	0.00718
2004.91278	0.00696
2003.94842	0.00675
2002.98406	0.00675
2002.01969	0.007
2001.05533	0.00728
2000.09096	0.00753
1999.1266	0.00786
1998.16224	0.0083
1997.19787	0.00875
1996.23351	0.00914
1995.26914	0.00947
1994.30478	0.00971
1993.34042	0.00986
1992.37605	0.00991
1991.41169	0.00988
1990.44732	0.00975
1989.48296	0.00954
1988.5186	0.00924
1987.55423	0.00888
1986.58987	0.00847
1985.6255	0.00799
1984.66114	0.00742
1983.69678	0.00675
1982.73241	0.00601
1981.76805	0.00529
1980.80368	0.00478
1979.83932	0.00449
1978.87496	0.00425
1977.91059	0.00412
1976.94623	0.00435
1975.98186	0.00489
1975.0175	0.00546
1974.05314	0.00587
1973.08877	0.00616
1972.12441	0.00641
1971.16004	0.00665
1970.19568	0.00684
1969.23132	0.00697
1968.26695	0.007
1967.30259	0.00692
1966.33822	0.00683
1965.37386	0.00678
1964.4095	0.00674
1963.44513	0.00664
1962.48077	0.00646
1961.5164	0.00621
1960.55204	0.00589
1959.58768	0.00547
1958.62331	0.0049
1957.65895	0.00423
1956.69458	0.0037
1955.73022	0.00343
1954.76586	0.00332
1953.80149	0.00342
1952.83713	0.00392
1951.87276	0.00463
1950.9084	0.00532
1949.94404	0.00593
1948.97967	0.00643
1948.01531	0.00681
1947.05094	0.00704
1946.08658	0.00712
1945.12222	0.00708
1944.15785	0.00698
1943.19349	0.0069
1942.22912	0.00679
1941.26476	0.00656
1940.3004	0.00617
1939.33603	0.00566
1938.37167	0.00502
1937.4073	0.00428
1936.44294	0.00333
1935.47858	0.00208
1934.51421	8.12974E-4
1933.54985	1.22383E-4
1932.58548	0
1931.62112	1.71451E-4
1930.65676	6.32428E-4
1929.69239	0.00133
1928.72803	0.00222
1927.76366	0.00324
1926.7993	0.00425
1925.83494	0.00514
1924.87057	0.00588
1923.90621	0.00644
1922.94184	0.00673
1921.97748	0.00677
1921.01312	0.00679
1920.04875	0.0069
1919.08439	0.00708
1918.12002	0.0073
1917.15566	0.00742
1916.1913	0.00732
1915.22693	0.00703
1914.26257	0.00655
1913.2982	0.00591
1912.33384	0.00528
1911.36948	0.00499
1910.40511	0.00511
1909.44075	0.00514
1908.47638	0.00474
1907.51202	0.00411
1906.54766	0.0038
1905.58329	0.00418
1904.61893	0.00476
1903.65456	0.00509
1902.6902	0.00508
1901.72583	0.00474
1900.76147	0.00444
1899.79711	0.00458
1898.83274	0.00513
1897.86838	0.00595
1896.90401	0.00684
1895.93965	0.00772
1894.97529	0.00857
1894.01092	0.00928
1893.04656	0.00982
1892.08219	0.01022
1891.11783	0.01046
1890.15347	0.01057
1889.1891	0.01057
1888.22474	0.01043
1887.26037	0.01013
1886.29601	0.00968
1885.33165	0.00911
1884.36728	0.00852
1883.40292	0.00802
1882.43855	0.00743
1881.47419	0.00642
1880.50983	0.00523
1879.54546	0.00467
1878.5811	0.00522
1877.61673	0.00694
1876.65237	0.00928
1875.68801	0.01146
1874.72364	0.01328
1873.75928	0.01483
1872.79491	0.01625
1871.83055	0.01754
1870.86619	0.01857
1869.90182	0.01936
1868.93746	0.01999
1867.97309	0.02046
1867.00873	0.0207
1866.04437	0.02067
1865.08	0.02035
1864.11564	0.01975
1863.15127	0.01887
1862.18691	0.01769
1861.22255	0.01614
1860.25818	0.01421
1859.29382	0.01228
1858.32945	0.01088
1857.36509	0.0103
1856.40073	0.01051
1855.43636	0.01157
1854.472	0.0135
1853.50763	0.01582
1852.54327	0.01815
1851.57891	0.0203
1850.61454	0.02221
1849.65018	0.02384
1848.68581	0.02532
1847.72145	0.02686
1846.75709	0.02846
1845.79272	0.02991
1844.82836	0.03108
1843.86399	0.0319
1842.89963	0.03218
1841.93527	0.03176
1840.9709	0.03139
1840.00654	0.0319
1839.04217	0.03275
1838.07781	0.03327
1837.11345	0.03343
1836.14908	0.03396
1835.18472	0.03512
1834.22035	0.03648
1833.25599	0.03814
1832.29163	0.04054
1831.32726	0.0433
1830.3629	0.04565
1829.39853	0.04745
1828.43417	0.04887
1827.46981	0.05012
1826.50544	0.0513
1825.54108	0.05249
1824.57671	0.0536
1823.61235	0.05441
1822.64799	0.05506
1821.68362	0.05609
1820.71926	0.05782
1819.75489	0.0602
1818.79053	0.0637
1817.82617	0.06912
1816.8618	0.07604
1815.89744	0.08318
1814.93307	0.0902
1813.96871	0.09739
1813.00435	0.1052
1812.03998	0.1132
1811.07562	0.12096
1810.11125	0.12842
1809.14689	0.13517
1808.18253	0.14077
1807.21816	0.14543
1806.2538	0.14945
1805.28943	0.15257
1804.32507	0.15436
1803.36071	0.15536
1802.39634	0.15641
1801.43198	0.15759
1800.46761	0.15876
1799.50325	0.15993
1798.53889	0.16121
1797.57452	0.16243
1796.61016	0.16359
1795.64579	0.16522
1794.68143	0.16739
1793.71707	0.16954
1792.7527	0.1714
1791.78834	0.17323
1790.82397	0.17552
1789.85961	0.17829
1788.89525	0.18111
1787.93088	0.18364
1786.96652	0.1858
1786.00215	0.18754
1785.03779	0.1888
1784.07343	0.18982
1783.10906	0.19192
1782.1447	0.19542
1781.18033	0.19976
1780.21597	0.20503
1779.25161	0.21111
1778.28724	0.21712
1777.32288	0.22217
1776.35851	0.22591
1775.39415	0.2282
1774.42979	0.22902
1773.46542	0.22881
1772.50106	0.22851
1771.53669	0.22783
1770.57233	0.22617
1769.60797	0.22356
1768.6436	0.22053
1767.67924	0.21753
1766.71487	0.21434
1765.75051	0.21058
1764.78615	0.20629
1763.82178	0.202
1762.85742	0.19834
1761.89305	0.19626
1760.92869	0.19656
1759.96432	0.20018
1758.99996	0.20623
1758.0356	0.2131
1757.07123	0.2201
1756.10687	0.22672
1755.1425	0.23244
1754.17814	0.23717
1753.21378	0.24054
1752.24941	0.242
1751.28505	0.2419
1750.32068	0.24133
1749.35632	0.24029
1748.39196	0.23762
1747.42759	0.23265
1746.46323	0.2253
1745.49886	0.21676
1744.5345	0.20961
1743.57014	0.20287
1742.60577	0.1955
1741.64141	0.18793
1740.67704	0.18128
1739.71268	0.17598
1738.74832	0.17191
1737.78395	0.16845
1736.81959	0.16529
1735.85522	0.16205
1734.89086	0.15823
1733.9265	0.15378
1732.96213	0.14882
1731.99777	0.14362
1731.0334	0.13796
1730.06904	0.1309
1729.10468	0.12358
1728.14031	0.11814
1727.17595	0.11424
1726.21158	0.11107
1725.24722	0.1088
1724.28286	0.10733
1723.31849	0.10661
1722.35413	0.1075
1721.38976	0.11049
1720.4254	0.11356
1719.46104	0.11636
1718.49667	0.11917
1717.53231	0.12238
1716.56794	0.12593
1715.60358	0.12974
1714.63922	0.13368
1713.67485	0.1374
1712.71049	0.14044
1711.74612	0.14248
1710.78176	0.14541
1709.8174	0.14901
1708.85303	0.15252
1707.88867	0.15593
1706.9243	0.16089
1705.95994	0.16901
1704.99558	0.1794
1704.03121	0.19008
1703.06685	0.2008
1702.10248	0.21131
1701.13812	0.22102
1700.17376	0.23
1699.20939	0.23846
1698.24503	0.24611
1697.28066	0.25202
1696.3163	0.2552
1695.35194	0.25828
1694.38757	0.26289
1693.42321	0.267
1692.45884	0.26918
1691.49448	0.26926
1690.53012	0.26754
1689.56575	0.26388
1688.60139	0.2586
1687.63702	0.253
1686.67266	0.24642
1685.7083	0.23954
1684.74393	0.23268
1683.77957	0.22622
1682.8152	0.21951
1681.85084	0.21213
1680.88648	0.20466
1679.92211	0.19839
1678.95775	0.19364
1677.99338	0.18996
1677.02902	0.18676
1676.06466	0.18329
1675.10029	0.179
1674.13593	0.17458
1673.17156	0.17178
1672.2072	0.17218
1671.24284	0.17347
1670.27847	0.17318
1669.31411	0.17203
1668.34974	0.17062
1667.38538	0.16865
1666.42102	0.16524
1665.45665	0.16013
1664.49229	0.15634
1663.52792	0.15629
1662.56356	0.15781
1661.5992	0.15909
1660.63483	0.15957
1659.67047	0.15935
1658.7061	0.15939
1657.74174	0.16171
1656.77738	0.16654
1655.81301	0.17164
1654.84865	0.17561
1653.88428	0.17827
1652.91992	0.17987
1651.95556	0.18077
1650.99119	0.18142
1650.02683	0.18155
1649.06246	0.18021
1648.0981	0.17739
1647.13374	0.1741
1646.16937	0.17165
1645.20501	0.16948
1644.24064	0.16706
1643.27628	0.16446
1642.31192	0.16244
1641.34755	0.16254
1640.38319	0.16303
1639.41882	0.1615
1638.45446	0.15923
1637.4901	0.15655
1636.52573	0.15379
1635.56137	0.15187
1634.597	0.15182
1633.63264	0.15276
1632.66828	0.15317
1631.70391	0.15272
1630.73955	0.15141
1629.77518	0.14917
1628.81082	0.14597
1627.84646	0.1429
1626.88209	0.14085
1625.91773	0.13969
1624.95336	0.13958
1623.989	0.14069
1623.02464	0.14235
1622.06027	0.1429
1621.09591	0.14234
1620.13154	0.14118
1619.16718	0.13963
1618.20281	0.13787
1617.23845	0.13615
1616.27409	0.13462
1615.30972	0.13315
1614.34536	0.13133
1613.38099	0.12928
1612.41663	0.12753
1611.45227	0.12669
1610.4879	0.12636
1609.52354	0.12542
1608.55917	0.12369
1607.59481	0.12142
1606.63045	0.11905
1605.66608	0.1173
1604.70172	0.11686
1603.73735	0.11696
1602.77299	0.11642
1601.80863	0.11529
1600.84426	0.11382
1599.8799	0.11218
1598.91553	0.11047
1597.95117	0.10896
1596.98681	0.10778
1596.02244	0.10679
1595.05808	0.10595
1594.09371	0.10518
1593.12935	0.10437
1592.16499	0.10365
1591.20062	0.10317
1590.23626	0.10273
1589.27189	0.10201
1588.30753	0.10095
1587.34317	0.10071
1586.3788	0.10204
1585.41444	0.10429
1584.45007	0.10699
1583.48571	0.10985
1582.52135	0.11251
1581.55698	0.11454
1580.59262	0.11683
1579.62825	0.12038
1578.66389	0.12457
1577.69953	0.12868
1576.73516	0.13245
1575.7708	0.13635
1574.80643	0.14056
1573.84207	0.14466
1572.87771	0.14815
1571.91334	0.15041
1570.94898	0.15029
1569.98461	0.15231
1569.02025	0.15827
1568.05589	0.16515
1567.09152	0.17169
1566.12716	0.17796
1565.16279	0.18503
1564.19843	0.19325
1563.23407	0.2009
1562.2697	0.20623
1561.30534	0.20974
1560.34097	0.21241
1559.37661	0.214
1558.41225	0.21429
1557.44788	0.21365
1556.48352	0.2117
1555.51915	0.20825
1554.55479	0.20385
1553.59043	0.19897
1552.62606	0.19404
1551.6617	0.1888
1550.69733	0.18509
1549.73297	0.1834
1548.76861	0.18243
1547.80424	0.18256
1546.83988	0.18643
1545.87551	0.19058
1544.91115	0.19233
1543.94679	0.19401
1542.98242	0.19621
1542.01806	0.1985
1541.05369	0.19942
1540.08933	0.19833
1539.12497	0.1961
1538.1606	0.1939
1537.19624	0.19153
1536.23187	0.18823
1535.26751	0.1839
1534.30315	0.17854
1533.33878	0.17282
1532.37442	0.16942
1531.41005	0.16882
1530.44569	0.16951
1529.48133	0.17077
1528.51696	0.17298
1527.5526	0.17832
1526.58823	0.18467
1525.62387	0.18957
1524.65951	0.1929
1523.69514	0.19495
1522.73078	0.19651
1521.76641	0.19822
1520.80205	0.1997
1519.83769	0.19989
1518.87332	0.19866
1517.90896	0.19868
1516.94459	0.20198
1515.98023	0.20696
1515.01587	0.2123
1514.0515	0.21707
1513.08714	0.2212
1512.12277	0.22455
1511.15841	0.22703
1510.19405	0.22953
1509.22968	0.23359
1508.26532	0.23778
1507.30095	0.24101
1506.33659	0.24448
1505.37223	0.249
1504.40786	0.25478
1503.4435	0.25985
1502.47913	0.2629
1501.51477	0.26463
1500.55041	0.26673
1499.58604	0.26905
1498.62168	0.27101
1497.65731	0.2729
1496.69295	0.27535
1495.72859	0.27895
1494.76422	0.28449
1493.79986	0.28988
1492.83549	0.2926
1491.87113	0.29376
1490.90677	0.29396
1489.9424	0.29328
1488.97804	0.29163
1488.01367	0.28905
1487.04931	0.2865
1486.08495	0.28458
1485.12058	0.28289
1484.15622	0.28216
1483.19185	0.28398
1482.22749	0.2873
1481.26312	0.29098
1480.29876	0.29458
1479.3344	0.2983
1478.37003	0.30286
1477.40567	0.308
1476.4413	0.31258
1475.47694	0.31717
1474.51258	0.32178
1473.54821	0.32565
1472.58385	0.32835
1471.61948	0.3298
1470.65512	0.33012
1469.69076	0.32997
1468.72639	0.33086
1467.76203	0.33363
1466.79766	0.33743
1465.8333	0.34147
1464.86894	0.34527
1463.90457	0.34869
1462.94021	0.35151
1461.97584	0.35373
1461.01148	0.35585
1460.04712	0.35802
1459.08275	0.35894
1458.11839	0.35827
1457.15402	0.35597
1456.18966	0.35202
1455.2253	0.34654
1454.26093	0.33983
1453.29657	0.33244
1452.3322	0.32459
1451.36784	0.31548
1450.40348	0.30477
1449.43911	0.29262
1448.47475	0.27968
1447.51038	0.26796
1446.54602	0.25887
1445.58166	0.2528
1444.61729	0.24881
1443.65293	0.24528
1442.68856	0.24158
1441.7242	0.23763
1440.75984	0.23409
1439.79547	0.2314
1438.83111	0.22924
1437.86674	0.22726
1436.90238	0.22551
1435.93802	0.22426
1434.97365	0.22377
1434.00929	0.22393
1433.04492	0.22418
1432.08056	0.22403
1431.1162	0.22324
1430.15183	0.22271
1429.18747	0.22316
1428.2231	0.22431
1427.25874	0.22587
1426.29438	0.2277
1425.33001	0.23001
1424.36565	0.23309
1423.40128	0.23602
1422.43692	0.23832
1421.47256	0.24027
1420.50819	0.24204
1419.54383	0.24359
1418.57946	0.2449
1417.6151	0.24593
1416.65074	0.24648
1415.68637	0.24675
1414.72201	0.24676
1413.75764	0.24626
1412.79328	0.2453
1411.82892	0.24409
1410.86455	0.24226
1409.90019	0.23993
1408.93582	0.23774
1407.97146	0.23608
1407.0071	0.23554
1406.04273	0.23644
1405.07837	0.23845
1404.114	0.24081
1403.14964	0.24283
1402.18528	0.24432
1401.22091	0.2454
1400.25655	0.24613
1399.29218	0.24654
1398.32782	0.24712
1397.36346	0.24821
1396.39909	0.24942
1395.43473	0.25036
1394.47036	0.25099
1393.506	0.25163
1392.54164	0.25235
1391.57727	0.25265
1390.61291	0.25231
1389.64854	0.25159
1388.68418	0.25078
1387.71982	0.25015
1386.75545	0.25006
1385.79109	0.25069
1384.82672	0.25245
1383.86236	0.2557
1382.898	0.26046
1381.93363	0.26594
1380.96927	0.27123
1380.0049	0.2765
1379.04054	0.28217
1378.07618	0.2881
1377.11181	0.29401
1376.14745	0.29987
1375.18308	0.30585
1374.21872	0.3119
1373.25436	0.31776
1372.28999	0.32313
1371.32563	0.32769
1370.36126	0.33105
1369.3969	0.33295
1368.43254	0.33334
1367.46817	0.33225
1366.50381	0.32983
1365.53944	0.32621
1364.57508	0.32145
1363.61072	0.31588
1362.64635	0.31017
1361.68199	0.30454
1360.71762	0.29853
1359.75326	0.29198
1358.7889	0.28513
1357.82453	0.27839
1356.86017	0.27212
1355.8958	0.26625
1354.93144	0.26044
1353.96708	0.2546
1353.00271	0.24883
1352.03835	0.24357
1351.07398	0.23989
1350.10962	0.23818
1349.14526	0.23774
1348.18089	0.23801
1347.21653	0.23886
1346.25216	0.24022
1345.2878	0.24195
1344.32344	0.24396
1343.35907	0.2464
1342.39471	0.24925
1341.43034	0.25223
1340.46598	0.25514
1339.50161	0.25796
1338.53725	0.26071
1337.57289	0.26339
1336.60852	0.26582
1335.64416	0.26776
1334.67979	0.26917
1333.71543	0.27008
1332.75107	0.27045
1331.7867	0.27021
1330.82234	0.26946
1329.85797	0.26857
1328.89361	0.26815
1327.92925	0.26877
1326.96488	0.27021
1326.00052	0.2717
1325.03615	0.27301
1324.07179	0.27438
1323.10743	0.27585
1322.14306	0.27724
1321.1787	0.27838
1320.21433	0.27928
1319.24997	0.28002
1318.28561	0.28066
1317.32124	0.28112
1316.35688	0.28129
1315.39251	0.28115
1314.42815	0.28076
1313.46379	0.28016
1312.49942	0.27934
1311.53506	0.27829
1310.57069	0.27704
1309.60633	0.27568
1308.64197	0.27436
1307.6776	0.27327
1306.71324	0.27242
1305.74887	0.27165
1304.78451	0.27088
1303.82015	0.27007
1302.85578	0.26918
1301.89142	0.26828
1300.92705	0.26747
1299.96269	0.26669
1298.99833	0.26585
1298.03396	0.26495
1297.0696	0.26402
1296.10523	0.26307
1295.14087	0.26214
1294.17651	0.26121
1293.21214	0.26022
1292.24778	0.25917
1291.28341	0.25814
1290.31905	0.25721
1289.35469	0.25641
1288.39032	0.25564
1287.42596	0.25481
1286.46159	0.25392
1285.49723	0.253
1284.53287	0.25204
1283.5685	0.25096
1282.60414	0.24975
1281.63977	0.24847
1280.67541	0.2472
1279.71105	0.246
1278.74668	0.24484
1277.78232	0.24372
1276.81795	0.24273
1275.85359	0.24204
1274.88923	0.24165
1273.92486	0.2414
1272.9605	0.24126
1271.99613	0.24136
1271.03177	0.2419
1270.06741	0.24292
1269.10304	0.24433
1268.13868	0.24605
1267.17431	0.24808
1266.20995	0.25047
1265.24559	0.2532
1264.28122	0.25622
1263.31686	0.25952
1262.35249	0.26316
1261.38813	0.26728
1260.42377	0.27195
1259.4594	0.27712
1258.49504	0.2826
1257.53067	0.28828
1256.56631	0.2941
1255.60195	0.29995
1254.63758	0.30567
1253.67322	0.31112
1252.70885	0.31623
1251.74449	0.32094
1250.78013	0.32518
1249.81576	0.32882
1248.8514	0.3318
1247.88703	0.3341
1246.92267	0.33567
1245.95831	0.33644
1244.99394	0.33641
1244.02958	0.33563
1243.06521	0.33425
1242.10085	0.3325
1241.13649	0.33052
1240.17212	0.3284
1239.20776	0.32622
1238.24339	0.32412
1237.27903	0.32222
1236.31467	0.32058
1235.3503	0.31919
1234.38594	0.31801
1233.42157	0.31714
1232.45721	0.31673
1231.49285	0.31685
1230.52848	0.31746
1229.56412	0.31852
1228.59975	0.32009
1227.63539	0.32221
1226.67103	0.32479
1225.70666	0.3277
1224.7423	0.33087
1223.77793	0.33432
1222.81357	0.33815
1221.84921	0.34235
1220.88484	0.34685
1219.92048	0.35163
1218.95611	0.35677
1217.99175	0.36233
1217.02739	0.36832
1216.06302	0.37466
1215.09866	0.38133
1214.13429	0.38845
1213.16993	0.39614
1212.20557	0.40443
1211.2412	0.41324
1210.27684	0.42253
1209.31247	0.43228
1208.34811	0.44238
1207.38375	0.45256
1206.41938	0.46249
1205.45502	0.47186
1204.49065	0.48044
1203.52629	0.48809
1202.56193	0.49461
1201.59756	0.49981
1200.6332	0.50356
1199.66883	0.50583
1198.70447	0.50666
1197.7401	0.50609
1196.77574	0.50416
1195.81138	0.50099
1194.84701	0.49679
1193.88265	0.49185
1192.91828	0.48646
1191.95392	0.48087
1190.98956	0.47543
1190.02519	0.47052
1189.06083	0.46651
1188.09646	0.46363
1187.1321	0.462
1186.16774	0.46171
1185.20337	0.46292
1184.23901	0.46576
1183.27464	0.47025
1182.31028	0.47639
1181.34592	0.48423
1180.38155	0.49383
1179.41719	0.50523
1178.45282	0.51833
1177.48846	0.53297
1176.5241	0.54898
1175.55973	0.56628
1174.59537	0.58471
1173.631	0.60402
1172.66664	0.6239
1171.70228	0.64416
1170.73791	0.66461
1169.77355	0.68503
1168.80918	0.70506
1167.84482	0.7243
1166.88046	0.74238
1165.91609	0.75903
1164.95173	0.77395
1163.98736	0.78684
1163.023	0.79745
1162.05864	0.80563
1161.09427	0.81129
1160.12991	0.81439
1159.16554	0.81493
1158.20118	0.81298
1157.23682	0.80868
1156.27245	0.80231
1155.30809	0.79417
1154.34372	0.78458
1153.37936	0.77384
1152.415	0.76231
1151.45063	0.75041
1150.48627	0.73852
1149.5219	0.72699
1148.55754	0.71609
1147.59318	0.70606
1146.62881	0.69712
1145.66445	0.6895
1144.70008	0.68331
1143.73572	0.67861
1142.77136	0.67537
1141.80699	0.67351
1140.84263	0.67294
1139.87826	0.67353
1138.9139	0.67512
1137.94954	0.67756
1136.98517	0.68077
1136.02081	0.68467
1135.05644	0.68913
1134.09208	0.69401
1133.12772	0.69917
1132.16335	0.70457
1131.19899	0.71022
1130.23462	0.71608
1129.27026	0.72215
1128.3059	0.72852
1127.34153	0.73538
1126.37717	0.74298
1125.4128	0.7515
1124.44844	0.76106
1123.48408	0.7717
1122.51971	0.78338
1121.55535	0.79587
1120.59098	0.80878
1119.62662	0.82163
1118.66226	0.83396
1117.69789	0.84546
1116.73353	0.85586
1115.76916	0.8649
1114.8048	0.87232
1113.84044	0.87792
1112.87607	0.88157
1111.91171	0.88319
1110.94734	0.88278
1109.98298	0.8804
1109.01862	0.87627
1108.05425	0.87072
1107.08989	0.86418
1106.12552	0.85716
1105.16116	0.85022
1104.1968	0.8439
1103.23243	0.83869
1102.26807	0.83495
1101.3037	0.8329
1100.33934	0.83262
1099.37498	0.83408
1098.41061	0.83714
1097.44625	0.84159
1096.48188	0.84719
1095.51752	0.8537
1094.55316	0.86084
1093.58879	0.86827
1092.62443	0.87559
1091.66006	0.88236
1090.6957	0.88808
1089.73134	0.89226
1088.76697	0.89446
1087.80261	0.89431
1086.83824	0.89155
1085.87388	0.8861
1084.90952	0.8781
1083.94515	0.86785
1082.98079	0.85579
1082.01642	0.8425
1081.05206	0.82859
1080.0877	0.81472
1079.12333	0.80153
1078.15897	0.78963
1077.1946	0.77957
1076.23024	0.77177
1075.26588	0.76656
1074.30151	0.76416
1073.33715	0.76469
1072.37278	0.76815
1071.40842	0.77438
1070.44406	0.78309
1069.47969	0.79389
1068.51533	0.8063
1067.55096	0.81981
1066.5866	0.8339
1065.62224	0.84807
1064.65787	0.86193
1063.69351	0.87519
1062.72914	0.8877
1061.76478	0.89937
1060.80042	0.9102
1059.83605	0.92023
1058.87169	0.92952
1057.90732	0.93814
1056.94296	0.9461
1055.97859	0.95345
1055.01423	0.96024
1054.04987	0.96649
1053.0855	0.9722
1052.12114	0.97741
1051.15677	0.98212
1050.19241	0.98631
1049.22805	0.98992
1048.26368	0.99296
1047.29932	0.99544
1046.33495	0.99738
1045.37059	0.99876
1044.40623	0.9996
1043.44186	0.99998
1042.4775	1
1041.51313	0.99971
1040.54877	0.99916
1039.58441	0.9984
1038.62004	0.99748
1037.65568	0.99643
1036.69131	0.99531
1035.72695	0.9941
1034.76259	0.99277
1033.79822	0.99136
1032.83386	0.98993
1031.86949	0.98845
1030.90513	0.98673
1029.94077	0.98462
1028.9764	0.98204
1028.01204	0.97894
1027.04767	0.97523
1026.08331	0.97079
1025.11895	0.96562
1024.15458	0.95977
1023.19022	0.9533
1022.22585	0.94635
1021.26149	0.93904
1020.29713	0.93151
1019.33276	0.92397
1018.3684	0.91664
1017.40403	0.90962
1016.43967	0.90296
1015.47531	0.89666
1014.51094	0.89081
1013.54658	0.88545
1012.58221	0.88048
1011.61785	0.87566
1010.65349	0.87075
1009.68912	0.86551
1008.72476	0.85968
1007.76039	0.85291
1006.79603	0.84485
1005.83167	0.83524
1004.8673	0.82402
1003.90294	0.81119
1002.93857	0.79674
1001.97421	0.78063
1001.00985	0.76294
1000.04548	0.74397
999.08112	0.72411
998.11675	0.70365
997.15239	0.68281
996.18803	0.66189
995.22366	0.64132
994.2593	0.62154
993.29493	0.60288
992.33057	0.58548
991.36621	0.5695
990.40184	0.55505
989.43748	0.54213
988.47311	0.53045
987.50875	0.51958
986.54439	0.5092
985.58002	0.49922
984.61566	0.48962
983.65129	0.48031
982.68693	0.47121
981.72257	0.46248
980.7582	0.45445
979.79384	0.44745
978.82947	0.44158
977.86511	0.43683
976.90075	0.43325
975.93638	0.43095
974.97202	0.42993
974.00765	0.42998
973.04329	0.43084
972.07893	0.43236
971.11456	0.43448
970.1502	0.43703
969.18583	0.43959
968.22147	0.44158
967.25711	0.44256
966.29274	0.44221
965.32838	0.44026
964.36401	0.43641
963.39965	0.43052
962.43529	0.42277
961.47092	0.41356
960.50656	0.40327
959.54219	0.39212
958.57783	0.38036
957.61347	0.36843
956.6491	0.3568
955.68474	0.34578
954.72037	0.33542
953.75601	0.32572
952.79165	0.31683
951.82728	0.30896
950.86292	0.30214
949.89855	0.29615
948.93419	0.29069
947.96983	0.28559
947.00546	0.28084
946.0411	0.27629
945.07673	0.27161
944.11237	0.26653
943.14801	0.26106
942.18364	0.25538
941.21928	0.24953
940.25491	0.24339
939.29055	0.23691
938.32619	0.23023
937.36182	0.22358
936.39746	0.21705
935.43309	0.21054
934.46873	0.20404
933.50437	0.19777
932.54	0.19208
931.57564	0.18711
930.61127	0.18279
929.64691	0.17909
928.68255	0.17611
927.71818	0.17398
926.75382	0.17262
925.78945	0.17175
924.82509	0.17118
923.86073	0.17092
922.89636	0.17104
921.932	0.17142
920.96763	0.17178
920.00327	0.17197
919.03891	0.17202
918.07454	0.172
917.11018	0.17184
916.14581	0.17128
915.18145	0.1702
914.21708	0.16868
913.25272	0.16679
912.28836	0.16447
911.32399	0.16153
910.35963	0.15798
909.39526	0.154
908.4309	0.14979
907.46654	0.14538
906.50217	0.14067
905.53781	0.13568
904.57344	0.13067
903.60908	0.12585
902.64472	0.12124
901.68035	0.1167
900.71599	0.11225
899.75162	0.10809
898.78726	0.10438
897.8229	0.10104
896.85853	0.09784
895.89417	0.09474
894.9298	0.09186
893.96544	0.0893
893.00108	0.08692
892.03671	0.08449
891.07235	0.08195
890.10798	0.07943
889.14362	0.07701
888.17926	0.07455
887.21489	0.07187
886.25053	0.06899
885.28616	0.06612
884.3218	0.06338
883.35744	0.06067
882.39307	0.05789
881.42871	0.05514
880.46434	0.05266
879.49998	0.05065
878.53562	0.04906
877.57125	0.0479
876.60689	0.04733
875.64252	0.04762
874.67816	0.04888
873.7138	0.05097
872.74943	0.05375
871.78507	0.05727
870.8207	0.06169
869.85634	0.06697
868.89198	0.07288
867.92761	0.07917
866.96325	0.08581
865.99888	0.09274
865.03452	0.09973
864.07016	0.10639
863.10579	0.11241
862.14143	0.1176
861.17706	0.1219
860.2127	0.12518
859.24834	0.12724
858.28397	0.12798
857.31961	0.12751
856.35524	0.12604
855.39088	0.12373
854.42652	0.12061
853.46215	0.11677
852.49779	0.11244
851.53342	0.10788
850.56906	0.10317
849.6047	0.09828
848.64033	0.09324
847.67597	0.08825
846.7116	0.0835
845.74724	0.07902
844.78288	0.07471
843.81851	0.07044
842.85415	0.06626
841.88978	0.06223
840.92542	0.05831
839.96106	0.05432
838.99669	0.05022
838.03233	0.04612
837.06796	0.04216
836.1036	0.03831
835.13924	0.03447
834.17487	0.03063
833.21051	0.027
832.24614	0.02374
831.28178	0.02083
830.31742	0.01813
829.35305	0.01562
828.38869	0.01342
827.42432	0.0116
826.45996	0.01003
825.4956	0.00854
824.53123	0.00711
823.56687	0.00587
822.6025	0.00489
821.63814	0.00405
820.67378	0.00324
819.70941	0.00247
818.74505	0.00192
817.78068	0.00165
816.81632	0.00156
815.85196	0.00149
814.88759	0.00144
813.92323	0.00156
812.95886	0.00188
811.9945	0.00229
811.03014	0.00268
810.06577	0.00313
809.10141	0.00376
808.13704	0.00456
807.17268	0.00538
806.20832	0.00609
805.24395	0.00675
804.27959	0.00746
803.31522	0.0082
802.35086	0.00883
801.3865	0.00929
800.42213	0.00971
799.45777	0.01024
798.4934	0.01085
797.52904	0.01142
796.56468	0.01188
795.60031	0.01236
794.63595	0.01299
793.67158	0.01373
792.70722	0.0144
791.74286	0.01494
790.77849	0.01549
789.81413	0.01621
788.84976	0.01706
787.8854	0.01792
786.92104	0.01879
785.95667	0.01978
784.99231	0.02095
784.02794	0.02222
783.06358	0.02346
782.09922	0.02474
781.13485	0.02627
780.17049	0.02824
779.20612	0.03061
778.24176	0.03321
777.2774	0.03601
776.31303	0.0391
775.34867	0.04256
774.3843	0.04628
773.41994	0.05014
772.45557	0.0542
771.49121	0.0586
770.52685	0.06334
769.56248	0.06822
768.59812	0.07306
767.63375	0.07784
766.66939	0.08265
765.70503	0.08742
764.74066	0.09193
763.7763	0.09596
762.81193	0.09945
761.84757	0.10246
760.88321	0.10498
759.91884	0.10686
758.95448	0.108
757.99011	0.10846
757.02575	0.10834
756.06139	0.10762
755.09702	0.10616
754.13266	0.1039
753.16829	0.10101
752.20393	0.09775
751.23957	0.09428
750.2752	0.09058
749.31084	0.08668
748.34647	0.08277
747.38211	0.07904
746.41775	0.07553
745.45338	0.07219
744.48902	0.06904
743.52465	0.06628
742.56029	0.06408
741.59593	0.06239
740.63156	0.061
739.6672	0.05984
738.70283	0.05905
737.73847	0.05875
736.77411	0.05889
735.80974	0.05934
734.84538	0.06004
733.88101	0.06109
732.91665	0.06253
731.95229	0.06414
730.98792	0.06565
730.02356	0.06698
729.05919	0.06824
728.09483	0.06957
727.13047	0.07088
726.1661	0.07202
725.20174	0.07306
724.23737	0.07425
723.27301	0.07575
722.30865	0.07749
721.34428	0.07931
720.37992	0.08127
719.41555	0.08354
718.45119	0.08622
717.48683	0.08922
716.52246	0.09245
715.5581	0.096
714.59373	0.10006
713.62937	0.10464
712.66501	0.10949
711.70064	0.11431
710.73628	0.11893
709.77191	0.12336
708.80755	0.12757
707.84319	0.13135
706.87882	0.13455
705.91446	0.13735
704.95009	0.14008
703.98573	0.14275
703.02137	0.14496
702.057	0.14629
701.09264	0.14663
700.12827	0.14608
699.16391	0.14468
698.19955	0.14234
697.23518	0.13901
696.27082	0.13491
695.30645	0.13036
694.34209	0.12551
693.37773	0.12037
692.41336	0.11497
691.449	0.1095
690.48463	0.10423
689.52027	0.09921
688.55591	0.0944
687.59154	0.08984
686.62718	0.08579
685.66281	0.08252
684.69845	0.08013
683.73409	0.07856
682.76972	0.07782
681.80536	0.07791
680.84099	0.07865
679.87663	0.07981
678.91227	0.08112
677.9479	0.08237
676.98354	0.08378
676.01917	0.08541
675.05481	0.08709
674.09045	0.08857
673.12608	0.08986
672.16172	0.09113
671.19735	0.09253
670.23299	0.09402
669.26863	0.09546
668.30426	0.0968
667.3399	0.09814
666.37553	0.09957
665.41117	0.10098
664.44681	0.10216
663.48244	0.1031
662.51808	0.10399
661.55371	0.105
660.58935	0.10603
659.62499	0.10689
658.66062	0.10758
657.69626	0.10831
656.73189	0.10923
655.76753	0.11007
654.80317	0.1106
653.8388	0.11095
652.87444	0.11122
651.91007	0.11146
650.94571	0.1116
649.98135	0.11154
649.01698	0.11134
648.05262	0.11122
647.08825	0.11126
646.12389	0.11136
645.15953	0.11134
644.19516	0.1113
643.2308	0.11142
642.26643	0.11168
641.30207	0.1119
640.33771	0.11205
639.37334	0.11226
638.40898	0.11265
637.44461	0.1132
636.48025	0.11383
635.51589	0.11457
634.55152	0.11553
633.58716	0.11679
632.62279	0.11831
631.65843	0.11996
630.69406	0.1217
629.7297	0.1236
628.76534	0.12583
627.80097	0.12848
626.83661	0.13151
625.87224	0.13485
624.90788	0.13854
623.94352	0.14269
622.97915	0.14723
622.01479	0.15193
621.05042	0.15672
620.08606	0.16163
619.1217	0.16665
618.15733	0.17164
617.19297	0.17639
616.2286	0.18079
615.26424	0.18491
614.29988	0.18882
613.33551	0.19238
612.37115	0.19537
611.40678	0.19777
610.44242	0.19974
609.47806	0.20134
608.51369	0.20244
607.54933	0.20296
606.58496	0.20302
605.6206	0.20294
604.65624	0.20277
603.69187	0.20235
602.72751	0.20179
601.76314	0.20136
600.79878	0.20115
599.83442	0.20108
598.87005	0.20106
597.90569	0.20104
596.94132	0.20118
595.97696	0.20166
595.0126	0.20244
594.04823	0.20328
593.08387	0.20408
592.1195	0.20508
591.15514	0.20653
590.19078	0.20832
589.22641	0.21017
588.26205	0.21211
587.29768	0.21434
586.33332	0.21687
585.36896	0.21938
584.40459	0.2216
583.44023	0.22351
582.47586	0.22521
581.5115	0.22667
580.54714	0.22792
579.58277	0.22907
578.61841	0.23004
577.65404	0.2307
576.68968	0.23101
575.72532	0.23086
574.76095	0.23019
573.79659	0.22919
572.83222	0.22805
571.86786	0.22669
570.9035	0.22495
569.93913	0.2229
568.97477	0.22088
568.0104	0.21898
567.04604	0.21697
566.08168	0.21472
565.11731	0.21243
564.15295	0.21033
563.18858	0.20828
562.22422	0.20595
561.25986	0.20334
560.29549	0.20068
559.33113	0.19815
558.36676	0.19587
557.4024	0.19381
556.43804	0.19192
555.47367	0.19019
554.50931	0.18863
553.54494	0.18712
552.58058	0.18551
551.61622	0.1838
550.65185	0.18213
549.68749	0.18063
548.72312	0.17927
547.75876	0.17788
546.7944	0.17639
545.83003	0.17493
544.86567	0.17363
543.9013	0.17248
542.93694	0.1712
541.97258	0.16962
541.00821	0.16789
540.04385	0.16621
539.07948	0.16451
538.11512	0.16262
537.15076	0.16074
536.18639	0.15933
535.22203	0.15847
534.25766	0.15788
533.2933	0.15711
532.32894	0.15593
531.36457	0.15451
530.40021	0.15324
529.43584	0.15203
528.47148	0.15082
527.50712	0.14989
526.54275	0.14932
525.57839	0.14887
524.61402	0.14822
523.64966	0.14705
522.6853	0.14543
521.72093	0.1438
520.75657	0.14233
519.7922	0.14056
518.82784	0.13822
517.86348	0.13579
516.89911	0.13381
515.93475	0.13209
514.97038	0.13021
514.00602	0.12828
513.04166	0.12693
512.07729	0.12625
511.11293	0.12573
510.14856	0.1248
509.1842	0.12342
508.21984	0.12218
507.25547	0.12153
506.29111	0.12121
505.32674	0.12085
504.36238	0.12024
503.39802	0.11953
502.43365	0.11906
501.46929	0.11862
500.50492	0.11767
499.54056	0.11623
498.5762	0.1148
497.61183	0.11357
496.64747	0.11211
495.6831	0.1102
494.71874	0.10839
493.75437	0.10705
492.79001	0.10589
491.82565	0.10446
490.86128	0.10265
489.89692	0.10083
488.93255	0.09917
487.96819	0.09752
487.00383	0.09558
486.03946	0.09303
485.0751	0.08989
484.11073	0.087
483.14637	0.08516
482.18201	0.08365
481.21764	0.08183
480.25328	0.08018
479.28891	0.07941
478.32455	0.07921
477.36019	0.07869
476.39582	0.07762
475.43146	0.07652
474.46709	0.07587
473.50273	0.07542
472.53837	0.07474
471.574	0.07383
470.60964	0.07276
469.64527	0.07167
468.68091	0.07124
467.71655	0.07111
466.75218	0.07089
465.78782	0.07078
464.82345	0.07089
463.85909	0.07094
462.89473	0.07048
461.93036	0.06981
460.966	0.06991
460.00163	0.07074
459.03727	0.0707
458.07291	0.06958
457.10854	0.06854
456.14418	0.06827
455.17981	0.06815
454.21545	0.06734
453.25109	0.06592
452.28672	0.06475
451.32236	0.06427
450.35799	0.06393
449.39363	0.06283
448.42927	0.0608
447.4649	0.0588
446.50054	0.05815
445.53617	0.0588
444.57181	0.05893
443.60745	0.058
442.64308	0.05704
441.67872	0.0569
440.71435	0.05717
439.74999	0.05676
438.78563	0.05542
437.82126	0.05392
436.8569	0.05284
435.89253	0.05175
434.92817	0.05024
433.96381	0.04883
432.99944	0.04806
432.03508	0.04752
431.07071	0.04626
430.10635	0.04533
429.14199	0.0473
428.17762	0.05129
427.21326	0.05553
426.24889	0.05856
425.28453	0.06013
424.32017	0.06133
423.3558	0.06281
422.39144	0.06371
421.42707	0.06311
420.46271	0.06123
419.49835	0.05914
418.53398	0.05727
417.56962	0.05472
416.60525	0.05067
415.64089	0.04571
414.67653	0.04105
413.71216	0.03664
412.7478	0.03111
411.78343	0.02377
410.81907	0.02044
409.85471	0.01736
408.89034	0.01453
407.92598	0.01195
406.96161	0.00962
405.99725	0.00755
405.03289	0.00572
404.06852	0.00415
403.10416	0.00283
402.13979	0.00175
401.17543	9.34307E-4
400.21107	3.64997E-4