401	0.05661
402	0.05651
403	0.05642
404	0.05633
405	0.05624
406	0.05617
407	0.0561
408	0.05604
409	0.05598
410	0.05593
411	0.05589
412	0.05585
413	0.05582
414	0.0558
415	0.05578
416	0.05577
417	0.05576
418	0.05576
419	0.05577
420	0.05579
421	0.05581
422	0.05584
423	0.05587
424	0.05592
425	0.05596
426	0.05602
427	0.05604
428	0.05611
429	0.05625
430	0.05638
431	0.05649
432	0.05672
433	0.05709
434	0.05735
435	0.05742
436	0.05739
437	0.05731
438	0.05725
439	0.05725
440	0.05724
441	0.05719
442	0.0572
443	0.0573
444	0.05734
445	0.0573
446	0.05736
447	0.05771
448	0.05819
449	0.0585
450	0.0583
451	0.05811
452	0.05804
453	0.05812
454	0.05824
455	0.05837
456	0.05857
457	0.0589
458	0.05942
459	0.06011
460	0.06086
461	0.06166
462	0.06248
463	0.06334
464	0.06433
465	0.06544
466	0.06662
467	0.06774
468	0.06875
469	0.0697
470	0.07069
471	0.07173
472	0.07275
473	0.07381
474	0.07502
475	0.07638
476	0.07784
477	0.0793
478	0.08068
479	0.082
480	0.08333
481	0.08473
482	0.08607
483	0.0872
484	0.08815
485	0.0892
486	0.09031
487	0.09131
488	0.09225
489	0.09322
490	0.09421
491	0.09518
492	0.0961
493	0.09693
494	0.09769
495	0.09848
496	0.09924
497	0.09982
498	0.10017
499	0.10045
500	0.10086
501	0.10144
502	0.10209
503	0.10283
504	0.10371
505	0.10473
506	0.10583
507	0.10696
508	0.10816
509	0.10938
510	0.11055
511	0.11165
512	0.11278
513	0.11401
514	0.11531
515	0.11655
516	0.11768
517	0.11872
518	0.11976
519	0.12082
520	0.12185
521	0.12279
522	0.12369
523	0.12459
524	0.1255
525	0.12633
526	0.12703
527	0.12763
528	0.12822
529	0.12878
530	0.12922
531	0.12956
532	0.12988
533	0.13018
534	0.13034
535	0.13031
536	0.13013
537	0.12997
538	0.12984
539	0.12959
540	0.12915
541	0.12863
542	0.1281
543	0.12754
544	0.12688
545	0.12618
546	0.12569
547	0.12555
548	0.12571
549	0.12609
550	0.12675
551	0.12786
552	0.12944
553	0.13138
554	0.13357
555	0.13608
556	0.13902
557	0.14231
558	0.14574
559	0.1492
560	0.15279
561	0.15661
562	0.16054
563	0.16435
564	0.16797
565	0.17156
566	0.17523
567	0.1788
568	0.18202
569	0.18489
570	0.18761
571	0.19023
572	0.19253
573	0.19438
574	0.19588
575	0.19719
576	0.1983
577	0.19903
578	0.19927
579	0.19911
580	0.19874
581	0.1982
582	0.19732
583	0.19605
584	0.19455
585	0.19301
586	0.19144
587	0.18968
588	0.1877
589	0.18568
590	0.18383
591	0.18214
592	0.1805
593	0.17881
594	0.17713
595	0.17564
596	0.17433
597	0.17307
598	0.17186
599	0.17086
600	0.17008
601	0.16937
602	0.16859
603	0.16779
604	0.16708
605	0.16643
606	0.16574
607	0.1649
608	0.16396
609	0.16296
610	0.1619
611	0.16067
612	0.15923
613	0.15764
614	0.15599
615	0.15427
616	0.15237
617	0.15024
618	0.14793
619	0.14556
620	0.14315
621	0.14063
622	0.13797
623	0.13527
624	0.13258
625	0.12987
626	0.12713
627	0.12439
628	0.12169
629	0.11916
630	0.11686
631	0.11476
632	0.11284
633	0.11116
634	0.10977
635	0.1087
636	0.10786
637	0.1072
638	0.10669
639	0.10636
640	0.10625
641	0.10639
642	0.10698
643	0.10833
644	0.10952
645	0.10988
646	0.10965
647	0.10913
648	0.10856
649	0.1081
650	0.10775
651	0.10738
652	0.10693
653	0.10643
654	0.10597
655	0.10559
656	0.10518
657	0.10464
658	0.10403
659	0.10346
660	0.10294
661	0.10237
662	0.10169
663	0.10098
664	0.10029
665	0.09956
666	0.0987
667	0.09771
668	0.09668
669	0.0957
670	0.09473
671	0.09372
672	0.09273
673	0.09188
674	0.09128
675	0.09098
676	0.09098
677	0.09135
678	0.09221
679	0.09363
680	0.0955
681	0.0977
682	0.10022
683	0.10318
684	0.10655
685	0.11021
686	0.11407
687	0.11815
688	0.1225
689	0.1271
690	0.13183
691	0.13652
692	0.14107
693	0.14508
694	0.14784
695	0.15005
696	0.15241
697	0.15486
698	0.15723
699	0.15935
700	0.16106
701	0.16231
702	0.1632
703	0.16382
704	0.16412
705	0.164
706	0.16343
707	0.16252
708	0.16132
709	0.15978
710	0.15783
711	0.15546
712	0.15278
713	0.14981
714	0.14651
715	0.14286
716	0.13897
717	0.13491
718	0.13076
719	0.12652
720	0.12225
721	0.1181
722	0.11422
723	0.11068
724	0.10754
725	0.10485
726	0.10268
727	0.10105
728	0.09996
729	0.09932
730	0.09908
731	0.09923
732	0.09979
733	0.10069
734	0.1019
735	0.10337
736	0.10511
737	0.10709
738	0.10927
739	0.11159
740	0.11401
741	0.11651
742	0.11907
743	0.12161
744	0.12403
745	0.12624
746	0.12824
747	0.13009
748	0.13186
749	0.13349
750	0.1349
751	0.13605
752	0.13693
753	0.13752
754	0.13778
755	0.13771
756	0.1373
757	0.13659
758	0.13558
759	0.13426
760	0.13262
761	0.13066
762	0.12843
763	0.12596
764	0.12322
765	0.12018
766	0.11688
767	0.11338
768	0.10974
769	0.106
770	0.10218
771	0.09837
772	0.09468
773	0.09113
774	0.08773
775	0.08445
776	0.08133
777	0.0784
778	0.07563
779	0.07295
780	0.07033
781	0.06786
782	0.06561
783	0.06358
784	0.06168
785	0.05991
786	0.05834
787	0.05702
788	0.05585
789	0.05475
790	0.05372
791	0.05279
792	0.05199
793	0.05123
794	0.05044
795	0.04964
796	0.04888
797	0.04819
798	0.04746
799	0.04663
800	0.04576
801	0.04494
802	0.04419
803	0.04341
804	0.04258
805	0.04177
806	0.04109
807	0.04051
808	0.03996
809	0.0394
810	0.03895
811	0.0387
812	0.03865
813	0.03867
814	0.03879
815	0.03913
816	0.0398
817	0.04072
818	0.0418
819	0.04309
820	0.04469
821	0.04665
822	0.04887
823	0.05125
824	0.05381
825	0.05661
826	0.05966
827	0.06284
828	0.06604
829	0.06932
830	0.07282
831	0.07654
832	0.08036
833	0.08421
834	0.08815
835	0.09226
836	0.09649
837	0.10069
838	0.10477
839	0.10877
840	0.11276
841	0.11667
842	0.12033
843	0.12367
844	0.12676
845	0.12967
846	0.13231
847	0.13456
848	0.13636
849	0.1378
850	0.13888
851	0.13951
852	0.13957
853	0.13907
854	0.13813
855	0.13678
856	0.13499
857	0.13271
858	0.13
859	0.12701
860	0.12381
861	0.12035
862	0.11661
863	0.11269
864	0.1087
865	0.10467
866	0.10056
867	0.09634
868	0.0921
869	0.08793
870	0.08384
871	0.07976
872	0.07568
873	0.07169
874	0.06786
875	0.06421
876	0.06073
877	0.05746
878	0.0545
879	0.05192
880	0.04974
881	0.04792
882	0.04644
883	0.04532
884	0.04457
885	0.04415
886	0.04401
887	0.04416
888	0.04459
889	0.04531
890	0.0463
891	0.04753
892	0.04899
893	0.05066
894	0.05256
895	0.05468
896	0.05701
897	0.05954
898	0.06223
899	0.06507
900	0.06807
901	0.07126
902	0.07461
903	0.07812
904	0.08177
905	0.08556
906	0.08949
907	0.09351
908	0.0976
909	0.10173
910	0.10593
911	0.11018
912	0.11446
913	0.11875
914	0.12308
915	0.12748
916	0.13195
917	0.13646
918	0.14097
919	0.14552
920	0.15012
921	0.15474
922	0.1593
923	0.16377
924	0.16821
925	0.17271
926	0.1773
927	0.18195
928	0.18669
929	0.19157
930	0.19658
931	0.20162
932	0.20656
933	0.21129
934	0.21579
935	0.22002
936	0.22387
937	0.22725
938	0.23014
939	0.23262
940	0.23477
941	0.23655
942	0.23794
943	0.23903
944	0.23997
945	0.24086
946	0.24169
947	0.24244
948	0.24324
949	0.24423
950	0.24549
951	0.24697
952	0.24863
953	0.25057
954	0.25289
955	0.25562
956	0.25868
957	0.26206
958	0.26583
959	0.27007
960	0.27478
961	0.27989
962	0.28536
963	0.29126
964	0.29761
965	0.30434
966	0.31133
967	0.31853
968	0.32597
969	0.33367
970	0.34158
971	0.34961
972	0.35782
973	0.36633
974	0.37525
975	0.38453
976	0.39409
977	0.4039
978	0.41396
979	0.4242
980	0.43445
981	0.44452
982	0.45436
983	0.46401
984	0.47345
985	0.48263
986	0.49149
987	0.50008
988	0.50848
989	0.51672
990	0.52476
991	0.53258
992	0.54029
993	0.54799
994	0.55572
995	0.56348
996	0.57131
997	0.57933
998	0.58765
999	0.59631
1000	0.60531
1001	0.61468
1002	0.62452
1003	0.63492
1004	0.64587
1005	0.65731
1006	0.66925
1007	0.68173
1008	0.69476
1009	0.70824
1010	0.72207
1011	0.73618
1012	0.75055
1013	0.7651
1014	0.77976
1015	0.79439
1016	0.80896
1017	0.82345
1018	0.83783
1019	0.85205
1020	0.86603
1021	0.87976
1022	0.89321
1023	0.9063
1024	0.91892
1025	0.93093
1026	0.94224
1027	0.95279
1028	0.96249
1029	0.97122
1030	0.97886
1031	0.98536
1032	0.99071
1033	0.99488
1034	0.99784
1035	0.99954
1036	1
1037	0.99925
1038	0.99734
1039	0.99427
1040	0.99008
1041	0.98481
1042	0.97853
1043	0.97127
1044	0.96305
1045	0.95386
1046	0.94374
1047	0.93272
1048	0.92084
1049	0.90816
1050	0.89479
1051	0.88092
1052	0.86677
1053	0.8526
1054	0.83862
1055	0.82505
1056	0.81209
1057	0.79989
1058	0.78859
1059	0.77821
1060	0.76877
1061	0.76028
1062	0.75273
1063	0.74607
1064	0.74021
1065	0.73503
1066	0.73047
1067	0.72647
1068	0.72296
1069	0.71985
1070	0.71701
1071	0.71437
1072	0.71184
1073	0.70937
1074	0.70688
1075	0.70431
1076	0.70165
1077	0.69891
1078	0.69612
1079	0.69327
1080	0.69035
1081	0.68742
1082	0.68455
1083	0.6818
1084	0.67916
1085	0.67658
1086	0.6741
1087	0.67172
1088	0.66942
1089	0.66708
1090	0.66462
1091	0.66197
1092	0.65911
1093	0.656
1094	0.65255
1095	0.64874
1096	0.64462
1097	0.6403
1098	0.63591
1099	0.63156
1100	0.6274
1101	0.62361
1102	0.62036
1103	0.61774
1104	0.61573
1105	0.61428
1106	0.61335
1107	0.61293
1108	0.61292
1109	0.61316
1110	0.61352
1111	0.61393
1112	0.61428
1113	0.61445
1114	0.6143
1115	0.61373
1116	0.61272
1117	0.61127
1118	0.60933
1119	0.60686
1120	0.60387
1121	0.60046
1122	0.59672
1123	0.59275
1124	0.58861
1125	0.58445
1126	0.58047
1127	0.57685
1128	0.57372
1129	0.57121
1130	0.56943
1131	0.56855
1132	0.56867
1133	0.5698
1134	0.5719
1135	0.57495
1136	0.57895
1137	0.58381
1138	0.58938
1139	0.59549
1140	0.60202
1141	0.60888
1142	0.61594
1143	0.62301
1144	0.62992
1145	0.63655
1146	0.64282
1147	0.64862
1148	0.65383
1149	0.65831
1150	0.662
1151	0.66484
1152	0.66676
1153	0.66764
1154	0.66739
1155	0.66597
1156	0.66336
1157	0.65953
1158	0.65441
1159	0.64794
1160	0.64011
1161	0.63094
1162	0.62045
1163	0.60866
1164	0.59563
1165	0.58146
1166	0.5663
1167	0.55028
1168	0.53351
1169	0.51616
1170	0.49841
1171	0.48044
1172	0.46244
1173	0.44458
1174	0.42703
1175	0.41
1176	0.39364
1177	0.37811
1178	0.36352
1179	0.34995
1180	0.33747
1181	0.32611
1182	0.3159
1183	0.30678
1184	0.29872
1185	0.29166
1186	0.28556
1187	0.28036
1188	0.27595
1189	0.27226
1190	0.2692
1191	0.26671
1192	0.26473
1193	0.26314
1194	0.26187
1195	0.26083
1196	0.25999
1197	0.25928
1198	0.25864
1199	0.258
1200	0.25729
1201	0.25648
1202	0.25556
1203	0.25449
1204	0.25325
1205	0.25184
1206	0.25027
1207	0.24858
1208	0.24676
1209	0.2448
1210	0.24273
1211	0.24059
1212	0.2384
1213	0.23617
1214	0.23388
1215	0.23156
1216	0.22927
1217	0.22704
1218	0.22487
1219	0.22275
1220	0.22073
1221	0.21886
1222	0.21721
1223	0.21577
1224	0.21456
1225	0.21363
1226	0.21302
1227	0.21276
1228	0.21282
1229	0.21319
1230	0.21387
1231	0.21488
1232	0.2162
1233	0.21778
1234	0.21957
1235	0.22157
1236	0.22375
1237	0.22605
1238	0.2284
1239	0.23077
1240	0.23314
1241	0.2355
1242	0.23778
1243	0.23991
1244	0.24184
1245	0.24359
1246	0.24515
1247	0.24646
1248	0.24745
1249	0.24811
1250	0.24848
1251	0.24858
1252	0.24839
1253	0.24792
1254	0.2472
1255	0.24629
1256	0.24524
1257	0.24406
1258	0.24275
1259	0.24136
1260	0.23998
1261	0.23864
1262	0.23736
1263	0.23614
1264	0.23502
1265	0.23406
1266	0.2333
1267	0.23272
1268	0.23233
1269	0.23215
1270	0.23225
1271	0.23262
1272	0.23322
1273	0.23403
1274	0.23507
1275	0.23636
1276	0.23787
1277	0.23954
1278	0.24133
1279	0.24325
1280	0.2453
1281	0.24741
1282	0.24954
1283	0.25164
1284	0.25372
1285	0.25575
1286	0.2577
1287	0.25956
1288	0.26131
1289	0.26293
1290	0.26441
1291	0.26573
1292	0.26685
1293	0.26778
1294	0.26854
1295	0.26909
1296	0.26938
1297	0.26943
1298	0.26929
1299	0.26905
1300	0.26873
1301	0.26833
1302	0.26786
1303	0.2674
1304	0.26699
1305	0.26668
1306	0.26646
1307	0.26635
1308	0.2664
1309	0.26663
1310	0.26707
1311	0.26771
1312	0.26855
1313	0.26958
1314	0.27082
1315	0.27217
1316	0.27352
1317	0.27483
1318	0.27619
1319	0.27761
1320	0.27907
1321	0.28052
1322	0.28194
1323	0.28334
1324	0.28469
1325	0.28593
1326	0.28703
1327	0.28798
1328	0.28879
1329	0.28946
1330	0.28994
1331	0.29017
1332	0.29018
1333	0.28998
1334	0.28959
1335	0.28904
1336	0.28837
1337	0.2876
1338	0.28666
1339	0.28548
1340	0.28413
1341	0.28273
1342	0.28136
1343	0.28005
1344	0.27876
1345	0.27749
1346	0.27631
1347	0.27535
1348	0.27467
1349	0.27429
1350	0.27411
1351	0.27406
1352	0.27419
1353	0.27456
1354	0.27514
1355	0.2759
1356	0.27686
1357	0.27804
1358	0.27942
1359	0.28086
1360	0.28215
1361	0.28316
1362	0.28377
1363	0.28389
1364	0.28355
1365	0.28283
1366	0.28185
1367	0.28072
1368	0.27956
1369	0.27836
1370	0.27706
1371	0.27556
1372	0.2739
1373	0.27217
1374	0.27037
1375	0.26843
1376	0.26637
1377	0.26425
1378	0.26211
1379	0.26
1380	0.25786
1381	0.25561
1382	0.25327
1383	0.25095
1384	0.24873
1385	0.24663
1386	0.24464
1387	0.2427
1388	0.24081
1389	0.23909
1390	0.23772
1391	0.23676
1392	0.23613
1393	0.23578
1394	0.23564
1395	0.23561
1396	0.2357
1397	0.23599
1398	0.23653
1399	0.23723
1400	0.23788
1401	0.2385
1402	0.23922
1403	0.24005
1404	0.24095
1405	0.24182
1406	0.24253
1407	0.24301
1408	0.24319
1409	0.24298
1410	0.24243
1411	0.24169
1412	0.24077
1413	0.2396
1414	0.23836
1415	0.23714
1416	0.23589
1417	0.23458
1418	0.23323
1419	0.23178
1420	0.23017
1421	0.22843
1422	0.22671
1423	0.22497
1424	0.22309
1425	0.22108
1426	0.21909
1427	0.21716
1428	0.21529
1429	0.21349
1430	0.2118
1431	0.21023
1432	0.20881
1433	0.20746
1434	0.20616
1435	0.20497
1436	0.20406
1437	0.20357
1438	0.20361
1439	0.20424
1440	0.20541
1441	0.20688
1442	0.20851
1443	0.21033
1444	0.21232
1445	0.21448
1446	0.21698
1447	0.21991
1448	0.22301
1449	0.22587
1450	0.22846
1451	0.2309
1452	0.23316
1453	0.23512
1454	0.23674
1455	0.23801
1456	0.23898
1457	0.23971
1458	0.24029
1459	0.24078
1460	0.24124
1461	0.24162
1462	0.24181
1463	0.24179
1464	0.24165
1465	0.24126
1466	0.2403
1467	0.2387
1468	0.23663
1469	0.23422
1470	0.23156
1471	0.22867
1472	0.22548
1473	0.22194
1474	0.21814
1475	0.21418
1476	0.21015
1477	0.20608
1478	0.20203
1479	0.19813
1480	0.19451
1481	0.19126
1482	0.18814
1483	0.18486
1484	0.18156
1485	0.17845
1486	0.17568
1487	0.17324
1488	0.17107
1489	0.16915
1490	0.16748
1491	0.16607
1492	0.16491
1493	0.16378
1494	0.16276
1495	0.16199
1496	0.16146
1497	0.16078
1498	0.15968
1499	0.15836
1500	0.15714
1501	0.15603
1502	0.15499
1503	0.15409
1504	0.15342
1505	0.15303
1506	0.15301
1507	0.15346
1508	0.15439
1509	0.1556
1510	0.15683
1511	0.15801
1512	0.15912
1513	0.16025
1514	0.16154
1515	0.1627
1516	0.1634
1517	0.16399
1518	0.16465
1519	0.16533
1520	0.16591
1521	0.16622
1522	0.16632
1523	0.16645
1524	0.16676
1525	0.16722
1526	0.16769
1527	0.16816
1528	0.16873
1529	0.16944
1530	0.17012
1531	0.1705
1532	0.17041
1533	0.17022
1534	0.17017
1535	0.16976
1536	0.16896
1537	0.16804
1538	0.16712
1539	0.16632
1540	0.16555
1541	0.16462
1542	0.16341
1543	0.16214
1544	0.16116
1545	0.16022
1546	0.1589
1547	0.15719
1548	0.1554
1549	0.15379
1550	0.15231
1551	0.1509
1552	0.14942
1553	0.14773
1554	0.14593
1555	0.14414
1556	0.14243
1557	0.14071
1558	0.13886
1559	0.13683
1560	0.13474
1561	0.13275
1562	0.13085
1563	0.12897
1564	0.12691
1565	0.12442
1566	0.12162
1567	0.11886
1568	0.11614
1569	0.11345
1570	0.11076
1571	0.1081
1572	0.10559
1573	0.10326
1574	0.10098
1575	0.09866
1576	0.09631
1577	0.0941
1578	0.09204
1579	0.09001
1580	0.08791
1581	0.08585
1582	0.0839
1583	0.08191
1584	0.07949
1585	0.07664
1586	0.074
1587	0.07176
1588	0.06978
1589	0.06798
1590	0.06629
1591	0.06474
1592	0.06328
1593	0.06176
1594	0.06011
1595	0.05827
1596	0.05643
1597	0.05488
1598	0.05356
1599	0.05221
1600	0.05072
1601	0.04912
1602	0.04742
1603	0.04573
1604	0.04414
1605	0.04265
1606	0.04126
1607	0.03996
1608	0.03877
1609	0.03775
1610	0.03695
1611	0.03622
1612	0.0354
1613	0.03448
1614	0.03352
1615	0.03258
1616	0.03171
1617	0.03093
1618	0.03025
1619	0.02972
1620	0.02937
1621	0.02928
1622	0.02935
1623	0.02935
1624	0.02926
1625	0.02923
1626	0.02938
1627	0.02985
1628	0.03074
1629	0.03152
1630	0.03204
1631	0.03251
1632	0.03304
1633	0.03364
1634	0.03435
1635	0.0352
1636	0.03626
1637	0.03757
1638	0.039
1639	0.04041
1640	0.04178
1641	0.04312
1642	0.04443
1643	0.04585
1644	0.04746
1645	0.04909
1646	0.05068
1647	0.05219
1648	0.05359
1649	0.05494
1650	0.05642
1651	0.05795
1652	0.05948
1653	0.06105
1654	0.06276
1655	0.06468
1656	0.06675
1657	0.06899
1658	0.07154
1659	0.0743
1660	0.07668
1661	0.07864
1662	0.08062
1663	0.08287
1664	0.08544
1665	0.08827
1666	0.09133
1667	0.09464
1668	0.09825
1669	0.10222
1670	0.10655
1671	0.1111
1672	0.11558
1673	0.11999
1674	0.12464
1675	0.12976
1676	0.13497
1677	0.14001
1678	0.14479
1679	0.14915
1680	0.15361
1681	0.15835
1682	0.16314
1683	0.16778
1684	0.17229
1685	0.17667
1686	0.18082
1687	0.18462
1688	0.18804
1689	0.19118
1690	0.19407
1691	0.19663
1692	0.19879
1693	0.20037
1694	0.20105
1695	0.20089
1696	0.2002
1697	0.19913
1698	0.19772
1699	0.19592
1700	0.19362
1701	0.19086
1702	0.18788
1703	0.18478
1704	0.18153
1705	0.17805
1706	0.17425
1707	0.17033
1708	0.16639
1709	0.16216
1710	0.15729
1711	0.15251
1712	0.14814
1713	0.14407
1714	0.14028
1715	0.13674
1716	0.13351
1717	0.13077
1718	0.12858
1719	0.12679
1720	0.12534
1721	0.12421
1722	0.12342
1723	0.12309
1724	0.12322
1725	0.12375
1726	0.12451
1727	0.12567
1728	0.12747
1729	0.12993
1730	0.13305
1731	0.13679
1732	0.14111
1733	0.146
1734	0.15156
1735	0.15776
1736	0.16458
1737	0.17192
1738	0.17962
1739	0.18756
1740	0.19567
1741	0.20392
1742	0.21233
1743	0.22079
1744	0.22923
1745	0.2378
1746	0.24661
1747	0.25547
1748	0.26408
1749	0.27233
1750	0.28028
1751	0.28798
1752	0.29536
1753	0.30241
1754	0.30911
1755	0.31536
1756	0.32108
1757	0.3263
1758	0.33097
1759	0.33496
1760	0.33832
1761	0.34141
1762	0.34416
1763	0.34648
1764	0.34833
1765	0.34971
1766	0.35074
1767	0.35148
1768	0.35172
1769	0.35138
1770	0.35063
1771	0.34963
1772	0.3483
1773	0.3466
1774	0.34467
1775	0.34261
1776	0.34043
1777	0.33818
1778	0.33594
1779	0.33371
1780	0.33144
1781	0.3291
1782	0.32664
1783	0.32405
1784	0.32139
1785	0.31865
1786	0.31576
1787	0.31253
1788	0.30894
1789	0.30513
1790	0.30113
1791	0.29694
1792	0.29251
1793	0.28777
1794	0.28267
1795	0.27729
1796	0.27166
1797	0.2657
1798	0.25939
1799	0.25293
1800	0.24641
1801	0.23976
1802	0.23295
1803	0.22612
1804	0.21933
1805	0.21247
1806	0.20543
1807	0.19831
1808	0.19128
1809	0.1844
1810	0.17765
1811	0.17111
1812	0.16485
1813	0.15886
1814	0.15312
1815	0.14766
1816	0.14246
1817	0.13752
1818	0.13286
1819	0.12856
1820	0.1246
1821	0.12088
1822	0.1174
1823	0.11419
1824	0.11123
1825	0.10844
1826	0.10581
1827	0.10336
1828	0.10108
1829	0.09899
1830	0.09712
1831	0.09543
1832	0.09388
1833	0.09241
1834	0.09101
1835	0.08969
1836	0.08839
1837	0.08709
1838	0.08585
1839	0.08472
1840	0.08374
1841	0.0829
1842	0.08217
1843	0.0815
1844	0.08084
1845	0.08012
1846	0.07935
1847	0.07856
1848	0.07776
1849	0.07698
1850	0.0762
1851	0.07541
1852	0.07465
1853	0.07398
1854	0.07331
1855	0.07255
1856	0.07176
1857	0.07106
1858	0.07049
1859	0.07001
1860	0.06959
1861	0.06918
1862	0.06878
1863	0.0684
1864	0.06812
1865	0.0679
1866	0.06763
1867	0.06732
1868	0.06698
1869	0.06658
1870	0.06612
1871	0.06563
1872	0.06516
1873	0.06471
1874	0.06427
1875	0.0639
1876	0.06358
1877	0.06329
1878	0.06303
1879	0.06281
1880	0.06262
1881	0.06244
1882	0.0623
1883	0.06219
1884	0.0621
1885	0.06199
1886	0.06185
1887	0.06168
1888	0.06153
1889	0.06141
1890	0.0613
1891	0.06118
1892	0.06104
1893	0.0608
1894	0.0604
1895	0.05989
1896	0.05943
1897	0.05911
1898	0.05886
1899	0.05856
1900	0.0582
1901	0.05781
1902	0.05743
1903	0.05707
1904	0.05672
1905	0.05638
1906	0.05605
1907	0.05575
1908	0.05547
1909	0.05518
1910	0.05488
1911	0.05458
1912	0.05431
1913	0.05406
1914	0.05378
1915	0.05345
1916	0.05315
1917	0.05296
1918	0.05281
1919	0.05259
1920	0.0523
1921	0.05197
1922	0.05164
1923	0.05135
1924	0.05109
1925	0.05084
1926	0.05061
1927	0.0504
1928	0.05023
1929	0.05007
1930	0.04994
1931	0.04982
1932	0.04971
1933	0.04959
1934	0.04945
1935	0.04929
1936	0.04914
1937	0.04902
1938	0.04895
1939	0.04891
1940	0.04891
1941	0.04895
1942	0.049
1943	0.04895
1944	0.04881
1945	0.04869
1946	0.04861
1947	0.04851
1948	0.04834
1949	0.04813
1950	0.04797
1951	0.04788
1952	0.04781
1953	0.04776
1954	0.04772
1955	0.04768
1956	0.04765
1957	0.04762
1958	0.04759
1959	0.04756
1960	0.04755
1961	0.04755
1962	0.04757
1963	0.0476
1964	0.04763
1965	0.04767
1966	0.04771
1967	0.0477
1968	0.04756
1969	0.04736
1970	0.04718
1971	0.047
1972	0.04682
1973	0.04665
1974	0.04652
1975	0.04639
1976	0.04626
1977	0.04613
1978	0.046
1979	0.04588
1980	0.04576
1981	0.04563
1982	0.0455
1983	0.04538
1984	0.04528
1985	0.04518
1986	0.04507
1987	0.04496
1988	0.04486
1989	0.04478
1990	0.04471
1991	0.04464
1992	0.04452
1993	0.04436
1994	0.04418
1995	0.04402
1996	0.04387
1997	0.04372
1998	0.04359
1999	0.04348
2000	0.04337
2001	0.04326
2002	0.04314
2003	0.04304
2004	0.04296
2005	0.04288
2006	0.0428
2007	0.04274
2008	0.04269
2009	0.04267
2010	0.04266
2011	0.04264
2012	0.04263
2013	0.04263
2014	0.04263
2015	0.04264
2016	0.04265
2017	0.04262
2018	0.04256
2019	0.04251
2020	0.04249
2021	0.04249
2022	0.0425
2023	0.04252
2024	0.04256
2025	0.04259
2026	0.04263
2027	0.04267
2028	0.04274
2029	0.04282
2030	0.0429
2031	0.04297
2032	0.04305
2033	0.04314
2034	0.04324
2035	0.04333
2036	0.04343
2037	0.04352
2038	0.04364
2039	0.04376
2040	0.04389
2041	0.04399
2042	0.04404
2043	0.04405
2044	0.04405
2045	0.04406
2046	0.04408
2047	0.04411
2048	0.04415
2049	0.04418
2050	0.04419
2051	0.0442
2052	0.04422
2053	0.04423
2054	0.04424
2055	0.04424
2056	0.04423
2057	0.04422
2058	0.0442
2059	0.04418
2060	0.04417
2061	0.04415
2062	0.04412
2063	0.0441
2064	0.04408
2065	0.04405
2066	0.04401
2067	0.04393
2068	0.04385
2069	0.04377
2070	0.0437
2071	0.04363
2072	0.04356
2073	0.04349
2074	0.04342
2075	0.04336
2076	0.0433
2077	0.04323
2078	0.04317
2079	0.04311
2080	0.04305
2081	0.04298
2082	0.04291
2083	0.04285
2084	0.0428
2085	0.04275
2086	0.0427
2087	0.04264
2088	0.04258
2089	0.04253
2090	0.04246
2091	0.04236
2092	0.04226
2093	0.04216
2094	0.04209
2095	0.04202
2096	0.04195
2097	0.04187
2098	0.04179
2099	0.04172
2100	0.04165
2101	0.04157
2102	0.04149
2103	0.0414
2104	0.04133
2105	0.04125
2106	0.04117
2107	0.04108
2108	0.04101
2109	0.04095
2110	0.04089
2111	0.04083
2112	0.04075
2113	0.04069
2114	0.04063
2115	0.04057
2116	0.04049
2117	0.04041
2118	0.04034
2119	0.04029
2120	0.04024
2121	0.04018
2122	0.04012
2123	0.04008
2124	0.04004
2125	0.03999
2126	0.03994
2127	0.03988
2128	0.03984
2129	0.0398
2130	0.03976
2131	0.03971
2132	0.03966
2133	0.03962
2134	0.03959
2135	0.03955
2136	0.0395
2137	0.03945
2138	0.03941
2139	0.03936
2140	0.03931
2141	0.03924
2142	0.03918
2143	0.03913
2144	0.03908
2145	0.03902
2146	0.03895
2147	0.03888
2148	0.03882
2149	0.03875
2150	0.03867
2151	0.03859
2152	0.03851
2153	0.03843
2154	0.03835
2155	0.03826
2156	0.03816
2157	0.03807
2158	0.03797
2159	0.03787
2160	0.03776
2161	0.03764
2162	0.03752
2163	0.03741
2164	0.03728
2165	0.03715
2166	0.03702
2167	0.0369
2168	0.03678
2169	0.03665
2170	0.03651
2171	0.03638
2172	0.03624
2173	0.03611
2174	0.03596
2175	0.03581
2176	0.03566
2177	0.03552
2178	0.03537
2179	0.03522
2180	0.03506
2181	0.03491
2182	0.03476
2183	0.0346
2184	0.03444
2185	0.03428
2186	0.03412
2187	0.03395
2188	0.03379
2189	0.03361
2190	0.03345
2191	0.03328
2192	0.03311
2193	0.03294
2194	0.03276
2195	0.03258
2196	0.0324
2197	0.03222
2198	0.03204
2199	0.03186
2200	0.03169
2201	0.03151
2202	0.03135
2203	0.03118
2204	0.03101
2205	0.03085
2206	0.0307
2207	0.03055
2208	0.03041
2209	0.03027
2210	0.03015
2211	0.03003
2212	0.02992
2213	0.02981
2214	0.02972
2215	0.02963
2216	0.02955
2217	0.02948
2218	0.02941
2219	0.02935
2220	0.0293
2221	0.02926
2222	0.02923
2223	0.02919
2224	0.02917
2225	0.02915
2226	0.02914
2227	0.02914
2228	0.02913
2229	0.02913
2230	0.02914
2231	0.02914
2232	0.02915
2233	0.02916
2234	0.02917
2235	0.02918
2236	0.02919
2237	0.0292
2238	0.02921
2239	0.02922
2240	0.02923
2241	0.02923
2242	0.02923
2243	0.02923
2244	0.02923
2245	0.02923
2246	0.02923
2247	0.02923
2248	0.02923
2249	0.02923
2250	0.02923
2251	0.02923
2252	0.02923
2253	0.02923
2254	0.02923
2255	0.02923
2256	0.02923
2257	0.02923
2258	0.02923
2259	0.02923
2260	0.02923
2261	0.02923
2262	0.02923
2263	0.02923
2264	0.02923
2265	0.02923
2266	0.02923
2267	0.02923
2268	0.02923
2269	0.02923
2270	0.02923
2271	0.02923
2272	0.02923
2273	0.02923
2274	0.02923
2275	0.02923
2276	0.02923
2277	0.02923
2278	0.02923
2279	0.02923
2280	0.02923
2281	0.02923
2282	0.02923
2283	0.02923
2284	0.02923
2285	0.02923
2286	0.02923
2287	0.02923
2288	0.02923
2289	0.02923
2290	0.02923
2291	0.02923
2292	0.02923
2293	0.02923
2294	0.02923
2295	0.02923
2296	0.02923
2297	0.02923
2298	0.02923
2299	0.02923
2300	0.02923
2301	0.02923
2302	0.02923
2303	0.02923
2304	0.02923
2305	0.02923
2306	0.02923
2307	0.02923
2308	0.02923
2309	0.02923
2310	0.02923
2311	0.02923
2312	0.02923
2313	0.02923
2314	0.02923
2315	0.02923
2316	0.02923
2317	0.02923
2318	0.02923
2319	0.02923
2320	0.02923
2321	0.02923
2322	0.02923
2323	0.02923
2324	0.02923
2325	0.02923
2326	0.02923
2327	0.02923
2328	0.02923
2329	0.02923
2330	0.02923
2331	0.02923
2332	0.02923
2333	0.02923
2334	0.02923
2335	0.02923
2336	0.02923
2337	0.02923
2338	0.02923
2339	0.02923
2340	0.02923
2341	0.02923
2342	0.02923
2343	0.02923
2344	0.02923
2345	0.02923
2346	0.02923
2347	0.02923
2348	0.02923
2349	0.02923
2350	0.02923
2351	0.02923
2352	0.02923
2353	0.02923
2354	0.02923
2355	0.02923
2356	0.02923
2357	0.02923
2358	0.02923
2359	0.02923
2360	0.02923
2361	0.02923
2362	0.02923
2363	0.02923
2364	0.02923
2365	0.02923
2366	0.02923
2367	0.02923
2368	0.02923
2369	0.02923
2370	0.02923
2371	0.02923
2372	0.02923
2373	0.02923
2374	0.02923
2375	0.02923
2376	0.02923
2377	0.02923
2378	0.02923
2379	0.02923
2380	0.02923
2381	0.02923
2382	0.02923
2383	0.02923
2384	0.02923
2385	0.02923
2386	0.02923
2387	0.02923
2388	0.02923
2389	0.02923
2390	0.02923
2391	0.02923
2392	0.02923
2393	0.02923
2394	0.02923
2395	0.02923
2396	0.02923
2397	0.02923
2398	0.02923
2399	0.02923
2400	0.02923
2401	0.02923
2402	0.02923
2403	0.02923
2404	0.02923
2405	0.02923
2406	0.02923
2407	0.02921
2408	0.02918
2409	0.02916
2410	0.02913
2411	0.02911
2412	0.0291
2413	0.02909
2414	0.02908
2415	0.02908
2416	0.02909
2417	0.0291
2418	0.02911
2419	0.02913
2420	0.02916
2421	0.0292
2422	0.02925
2423	0.0293
2424	0.02937
2425	0.02944
2426	0.02952
2427	0.02961
2428	0.02971
2429	0.02981
2430	0.02992
2431	0.03004
2432	0.03017
2433	0.0303
2434	0.03045
2435	0.0306
2436	0.03076
2437	0.03093
2438	0.0311
2439	0.03128
2440	0.03147
2441	0.03166
2442	0.03185
2443	0.03204
2444	0.03223
2445	0.03243
2446	0.03262
2447	0.03282
2448	0.03302
2449	0.03322
2450	0.03341
2451	0.03361
2452	0.0338
2453	0.03398
2454	0.03416
2455	0.03434
2456	0.0345
2457	0.03465
2458	0.03481
2459	0.03497
2460	0.03514
2461	0.0353
2462	0.03547
2463	0.03563
2464	0.03579
2465	0.03595
2466	0.0361
2467	0.03626
2468	0.03641
2469	0.03657
2470	0.03673
2471	0.03689
2472	0.03704
2473	0.03719
2474	0.03733
2475	0.03748
2476	0.03763
2477	0.03778
2478	0.03792
2479	0.03807
2480	0.03822
2481	0.03838
2482	0.03854
2483	0.03869
2484	0.03886
2485	0.03902
2486	0.03919
2487	0.03935
2488	0.03951
2489	0.03967
2490	0.03983
2491	0.04
2492	0.04016
2493	0.04031
2494	0.04047
2495	0.04063
2496	0.04079
2497	0.04095
2498	0.04112
2499	0.04128
2500	0.04144
2501	0.0416
2502	0.04176
2503	0.04191
2504	0.04206
2505	0.04222
2506	0.04237
2507	0.04251
2508	0.04266
2509	0.04281
2510	0.04297
2511	0.04312
2512	0.04326
2513	0.04341
2514	0.04356
2515	0.04371
2516	0.04386
2517	0.04401
2518	0.04416
2519	0.04431
2520	0.04447
2521	0.04463
2522	0.04478
2523	0.04494
2524	0.04511
2525	0.04529
2526	0.04547
2527	0.04565
2528	0.04583
2529	0.04602
2530	0.04621
2531	0.04641
2532	0.04661
2533	0.04681
2534	0.04702
2535	0.04724
2536	0.04745
2537	0.04766
2538	0.04788
2539	0.04811
2540	0.04834
2541	0.04856
2542	0.04878
2543	0.04901
2544	0.04925
2545	0.04949
2546	0.04974
2547	0.04999
2548	0.05024
2549	0.0505
2550	0.05076
2551	0.05101
2552	0.05128
2553	0.05154
2554	0.05182
2555	0.0521
2556	0.05238
2557	0.05267
2558	0.05296
2559	0.05326
2560	0.05356
2561	0.05386
2562	0.05416
2563	0.05448
2564	0.05481
2565	0.05514
2566	0.05548
2567	0.05582
2568	0.05616
2569	0.05651
2570	0.05687
2571	0.05722
2572	0.05759
2573	0.05795
2574	0.05833
2575	0.05871
2576	0.05909
2577	0.05947
2578	0.05985
2579	0.06024
2580	0.06064
2581	0.06104
2582	0.06144
2583	0.06185
2584	0.06227
2585	0.06269
2586	0.06311
2587	0.06353
2588	0.06395
2589	0.06437
2590	0.0648
2591	0.06523
2592	0.06567
2593	0.06611
2594	0.06655
2595	0.06699
2596	0.06744
2597	0.0679
2598	0.06835
2599	0.06881
2600	0.06927
2601	0.06974
2602	0.0702
2603	0.07067
2604	0.07114
2605	0.07162
2606	0.07209
2607	0.07257
2608	0.07305
2609	0.07352
2610	0.074
2611	0.07447
2612	0.07494
2613	0.07542
2614	0.07589
2615	0.07636
2616	0.07682
2617	0.07728
2618	0.07773
2619	0.07818
2620	0.07863
2621	0.07908
2622	0.07951
2623	0.07994
2624	0.08036
2625	0.08078
2626	0.08119
2627	0.08158
2628	0.08196
2629	0.08235
2630	0.08273
2631	0.08309
2632	0.08345
2633	0.08379
2634	0.08413
2635	0.08445
2636	0.08475
2637	0.08505
2638	0.08533
2639	0.08561
2640	0.08588
2641	0.08613
2642	0.08636
2643	0.08659
2644	0.08682
2645	0.08704
2646	0.08725
2647	0.08743
2648	0.08761
2649	0.08778
2650	0.08794
2651	0.08809
2652	0.08823
2653	0.08836
2654	0.08849
2655	0.0886
2656	0.08871
2657	0.0888
2658	0.08889
2659	0.08897
2660	0.08905
2661	0.08911
2662	0.08916
2663	0.08921
2664	0.08925
2665	0.08928
2666	0.0893
2667	0.08932
2668	0.08934
2669	0.08936
2670	0.08937
2671	0.08938
2672	0.08938
2673	0.08937
2674	0.08937
2675	0.08935
2676	0.08934
2677	0.08933
2678	0.08933
2679	0.08932
2680	0.08931
2681	0.0893
2682	0.0893
2683	0.08929
2684	0.08928
2685	0.08928
2686	0.08928
2687	0.08928
2688	0.08929
2689	0.08931
2690	0.08933
2691	0.08937
2692	0.08942
2693	0.08947
2694	0.08954
2695	0.0896
2696	0.08968
2697	0.08978
2698	0.08988
2699	0.09001
2700	0.09014
2701	0.09029
2702	0.09046
2703	0.09064
2704	0.09083
2705	0.09104
2706	0.09127
2707	0.09151
2708	0.09177
2709	0.09202
2710	0.09229
2711	0.09256
2712	0.09285
2713	0.09314
2714	0.09344
2715	0.09375
2716	0.09407
2717	0.0944
2718	0.09473
2719	0.09506
2720	0.09539
2721	0.09571
2722	0.09602
2723	0.09634
2724	0.09666
2725	0.09698
2726	0.0973
2727	0.09763
2728	0.09794
2729	0.09825
2730	0.09856
2731	0.09886
2732	0.09916
2733	0.09945
2734	0.09974
2735	0.10002
2736	0.10031
2737	0.10059
2738	0.10087
2739	0.10114
2740	0.1014
2741	0.10166
2742	0.10191
2743	0.10216
2744	0.1024
2745	0.10265
2746	0.1029
2747	0.10314
2748	0.10339
2749	0.10364
2750	0.10389
2751	0.10416
2752	0.10442
2753	0.10469
2754	0.10497
2755	0.10526
2756	0.10554
2757	0.10583
2758	0.10612
2759	0.10641
2760	0.1067
2761	0.107
2762	0.1073
2763	0.10762
2764	0.10795
2765	0.10828
2766	0.10861
2767	0.10894
2768	0.10929
2769	0.10965
2770	0.11001
2771	0.11038
2772	0.11076
2773	0.11116
2774	0.11158
2775	0.11201
2776	0.11245
2777	0.11291
2778	0.11337
2779	0.11385
2780	0.11433
2781	0.11484
2782	0.11536
2783	0.11591
2784	0.11645
2785	0.11701
2786	0.11759
2787	0.11818
2788	0.11879
2789	0.11942
2790	0.12006
2791	0.12072
2792	0.1214
2793	0.1221
2794	0.12282
2795	0.12355
2796	0.1243
2797	0.12507
2798	0.12586
2799	0.12667
2800	0.12749
2801	0.12833
2802	0.12919
2803	0.13005
2804	0.13093
2805	0.13181
2806	0.1327
2807	0.1336
2808	0.13452
2809	0.13544
2810	0.13638
2811	0.13732
2812	0.13828
2813	0.13923
2814	0.14019
2815	0.14115
2816	0.14213
2817	0.14313
2818	0.14413
2819	0.14514
2820	0.14615
2821	0.14718
2822	0.14822
2823	0.14927
2824	0.15032
2825	0.15134
2826	0.15232
2827	0.15323
2828	0.15407
2829	0.15483
2830	0.15552
2831	0.15614
2832	0.15671
2833	0.15724
2834	0.15774
2835	0.15823
2836	0.15874
2837	0.15928
2838	0.15987
2839	0.16051
2840	0.16123
2841	0.16204
2842	0.16295
2843	0.16398
2844	0.16512
2845	0.1664
2846	0.16782
2847	0.16939
2848	0.17114
2849	0.17305
2850	0.17514
2851	0.17742
2852	0.1799
2853	0.18256
2854	0.18541
2855	0.18844
2856	0.19165
2857	0.19502
2858	0.19853
2859	0.20218
2860	0.20593
2861	0.20979
2862	0.21373
2863	0.21773
2864	0.22178
2865	0.22586
2866	0.22993
2867	0.23399
2868	0.23801
2869	0.24195
2870	0.2458
2871	0.24952
2872	0.2531
2873	0.25651
2874	0.25972
2875	0.26271
2876	0.26547
2877	0.26802
2878	0.27037
2879	0.27254
2880	0.27453
2881	0.27637
2882	0.27809
2883	0.27968
2884	0.28118
2885	0.28259
2886	0.28394
2887	0.28524
2888	0.28651
2889	0.28776
2890	0.289
2891	0.29023
2892	0.29143
2893	0.29261
2894	0.29374
2895	0.29482
2896	0.29586
2897	0.29687
2898	0.29787
2899	0.29886
2900	0.29988
2901	0.30093
2902	0.30204
2903	0.30323
2904	0.3045
2905	0.30586
2906	0.30732
2907	0.3089
2908	0.31059
2909	0.3124
2910	0.31436
2911	0.31645
2912	0.31867
2913	0.321
2914	0.32344
2915	0.32596
2916	0.32857
2917	0.33122
2918	0.33389
2919	0.33655
2920	0.33918
2921	0.34176
2922	0.34425
2923	0.34663
2924	0.34884
2925	0.35088
2926	0.35271
2927	0.35431
2928	0.35566
2929	0.35673
2930	0.35751
2931	0.35797
2932	0.35811
2933	0.35791
2934	0.35738
2935	0.35651
2936	0.35531
2937	0.3538
2938	0.35198
2939	0.34987
2940	0.34749
2941	0.34484
2942	0.34195
2943	0.33886
2944	0.33563
2945	0.33231
2946	0.32896
2947	0.32565
2948	0.32244
2949	0.31936
2950	0.31645
2951	0.31374
2952	0.31128
2953	0.30908
2954	0.30715
2955	0.3055
2956	0.30414
2957	0.30308
2958	0.30231
2959	0.30182
2960	0.3016
2961	0.3016
2962	0.3018
2963	0.30218
2964	0.30268
2965	0.30327
2966	0.3039
2967	0.30453
2968	0.30512
2969	0.30561
2970	0.30597
2971	0.30615
2972	0.30609
2973	0.30578
2974	0.30518
2975	0.30427
2976	0.30301
2977	0.3014
2978	0.29943
2979	0.2971
2980	0.2944
2981	0.29134
2982	0.28796
2983	0.28428
2984	0.28033
2985	0.27616
2986	0.27181
2987	0.2673
2988	0.26268
2989	0.25799
2990	0.25325
2991	0.24852
2992	0.24382
2993	0.23918
2994	0.23464
2995	0.23022
2996	0.22594
2997	0.22182
2998	0.21787
2999	0.2141
3000	0.21052
3001	0.20714
3002	0.20397
3003	0.20101
3004	0.19826
3005	0.19572
3006	0.19339
3007	0.19127
3008	0.18935
3009	0.18761
3010	0.18608
3011	0.18472
3012	0.18355
3013	0.18255
3014	0.18172
3015	0.18103
3016	0.18047
3017	0.18005
3018	0.17974
3019	0.17953
3020	0.17941
3021	0.17936
3022	0.17939
3023	0.17949
3024	0.17965
3025	0.17985
3026	0.18008
3027	0.18034
3028	0.18065
3029	0.18098
3030	0.18134
3031	0.18174
3032	0.18214
3033	0.18256
3034	0.18298
3035	0.18342
3036	0.18387
3037	0.18432
3038	0.18478
3039	0.18524
3040	0.18572
3041	0.1862
3042	0.18667
3043	0.18713
3044	0.18758
3045	0.18803
3046	0.18848
3047	0.18892
3048	0.18935
3049	0.18976
3050	0.19016
3051	0.19053
3052	0.19088
3053	0.19122
3054	0.19155
3055	0.19185
3056	0.19212
3057	0.19235
3058	0.19256
3059	0.19277
3060	0.19298
3061	0.19317
3062	0.19334
3063	0.1935
3064	0.19366
3065	0.1938
3066	0.19394
3067	0.19406
3068	0.19418
3069	0.1943
3070	0.19441
3071	0.19453
3072	0.19463
3073	0.19471
3074	0.19479
3075	0.19487
3076	0.19497
3077	0.19506
3078	0.19516
3079	0.19526
3080	0.19537
3081	0.19548
3082	0.19558
3083	0.1957
3084	0.19585
3085	0.19604
3086	0.19625
3087	0.19648
3088	0.19676
3089	0.19707
3090	0.19741
3091	0.19778
3092	0.19818
3093	0.19863
3094	0.19912
3095	0.19965
3096	0.20021
3097	0.2008
3098	0.20143
3099	0.20208
3100	0.20276
3101	0.20347
3102	0.20421
3103	0.20497
3104	0.20575
3105	0.20655
3106	0.20736
3107	0.20822
3108	0.20911
3109	0.21003
3110	0.21096
3111	0.21192
3112	0.2129
3113	0.21392
3114	0.21497
3115	0.21606
3116	0.21717
3117	0.21831
3118	0.21949
3119	0.2207
3120	0.22193
3121	0.22317
3122	0.22442
3123	0.22571
3124	0.22702
3125	0.22835
3126	0.22969
3127	0.23105
3128	0.23243
3129	0.23382
3130	0.23523
3131	0.23666
3132	0.2381
3133	0.23956
3134	0.24104
3135	0.24253
3136	0.24404
3137	0.24555
3138	0.24707
3139	0.2486
3140	0.25015
3141	0.2517
3142	0.25326
3143	0.25483
3144	0.2564
3145	0.25796
3146	0.25955
3147	0.26114
3148	0.26273
3149	0.26432
3150	0.26591
3151	0.2675
3152	0.26911
3153	0.27072
3154	0.27232
3155	0.27393
3156	0.27552
3157	0.27712
3158	0.2787
3159	0.28027
3160	0.28184
3161	0.28343
3162	0.28501
3163	0.28659
3164	0.28818
3165	0.28977
3166	0.29136
3167	0.29295
3168	0.29453
3169	0.29611
3170	0.29769
3171	0.29928
3172	0.30087
3173	0.30246
3174	0.30403
3175	0.3056
3176	0.30716
3177	0.3087
3178	0.31023
3179	0.31176
3180	0.31328
3181	0.3148
3182	0.31631
3183	0.31781
3184	0.31932
3185	0.32082
3186	0.3223
3187	0.32376
3188	0.32523
3189	0.3267
3190	0.32817
3191	0.32961
3192	0.33104
3193	0.33247
3194	0.3339
3195	0.33533
3196	0.33673
3197	0.33811
3198	0.33947
3199	0.34082
3200	0.34218
3201	0.34354
3202	0.34488
3203	0.34621
3204	0.34751
3205	0.34881
3206	0.3501
3207	0.35139
3208	0.35267
3209	0.35394
3210	0.3552
3211	0.35643
3212	0.35764
3213	0.35884
3214	0.36004
3215	0.36123
3216	0.36239
3217	0.36354
3218	0.36468
3219	0.36583
3220	0.36697
3221	0.36808
3222	0.36915
3223	0.3702
3224	0.37123
3225	0.37225
3226	0.37325
3227	0.37425
3228	0.37525
3229	0.37624
3230	0.37723
3231	0.37818
3232	0.37913
3233	0.38006
3234	0.38098
3235	0.38187
3236	0.38275
3237	0.38362
3238	0.38449
3239	0.38535
3240	0.38619
3241	0.38702
3242	0.38786
3243	0.3887
3244	0.38954
3245	0.39037
3246	0.39119
3247	0.39202
3248	0.39286
3249	0.39371
3250	0.39457
3251	0.39542
3252	0.39624
3253	0.39706
3254	0.39788
3255	0.39871
3256	0.39954
3257	0.40038
3258	0.4012
3259	0.40202
3260	0.40283
3261	0.40366
3262	0.40449
3263	0.40533
3264	0.40618
3265	0.40704
3266	0.40789
3267	0.40875
3268	0.4096
3269	0.41044
3270	0.41125
3271	0.41205
3272	0.41284
3273	0.41363
3274	0.41441
3275	0.41518
3276	0.41596
3277	0.41673
3278	0.41748
3279	0.4182
3280	0.4189
3281	0.41958
3282	0.42025
3283	0.42092
3284	0.42156
3285	0.42216
3286	0.42274
3287	0.42329
3288	0.42383
3289	0.42434
3290	0.42483
3291	0.42529
3292	0.42574
3293	0.42618
3294	0.42659
3295	0.42697
3296	0.42731
3297	0.42761
3298	0.42789
3299	0.42814
3300	0.42836
3301	0.42856
3302	0.42872
3303	0.42886
3304	0.42898
3305	0.42906
3306	0.4291
3307	0.42912
3308	0.42911
3309	0.42907
3310	0.42902
3311	0.42895
3312	0.42885
3313	0.42869
3314	0.42849
3315	0.42826
3316	0.42797
3317	0.42764
3318	0.42724
3319	0.42681
3320	0.42634
3321	0.42585
3322	0.42531
3323	0.42474
3324	0.42413
3325	0.4235
3326	0.42282
3327	0.42211
3328	0.42134
3329	0.42055
3330	0.41973
3331	0.41887
3332	0.41795
3333	0.41697
3334	0.41593
3335	0.41485
3336	0.41373
3337	0.41256
3338	0.41135
3339	0.41011
3340	0.40883
3341	0.40752
3342	0.40616
3343	0.40476
3344	0.40331
3345	0.4018
3346	0.40025
3347	0.39865
3348	0.39701
3349	0.39533
3350	0.39361
3351	0.39184
3352	0.39002
3353	0.38816
3354	0.38626
3355	0.38434
3356	0.38239
3357	0.38041
3358	0.3784
3359	0.37637
3360	0.37431
3361	0.3722
3362	0.37004
3363	0.36783
3364	0.36561
3365	0.36337
3366	0.36113
3367	0.35888
3368	0.35663
3369	0.35436
3370	0.35209
3371	0.34982
3372	0.34755
3373	0.3453
3374	0.34303
3375	0.34078
3376	0.33853
3377	0.33628
3378	0.33405
3379	0.33184
3380	0.32964
3381	0.32744
3382	0.32526
3383	0.32309
3384	0.32096
3385	0.31884
3386	0.31674
3387	0.31466
3388	0.31261
3389	0.31059
3390	0.30858
3391	0.30657
3392	0.30456
3393	0.30257
3394	0.30061
3395	0.29868
3396	0.29675
3397	0.2948
3398	0.29283
3399	0.29086
3400	0.2889
3401	0.28695
3402	0.28501
3403	0.28308
3404	0.28116
3405	0.27926
3406	0.27738
3407	0.27552
3408	0.27367
3409	0.27182
3410	0.26997
3411	0.26813
3412	0.26631
3413	0.26451
3414	0.26274
3415	0.26101
3416	0.25933
3417	0.25767
3418	0.256
3419	0.25434
3420	0.25272
3421	0.25117
3422	0.24966
3423	0.24815
3424	0.24662
3425	0.2451
3426	0.24364
3427	0.24223
3428	0.24088
3429	0.23959
3430	0.23835
3431	0.23716
3432	0.23601
3433	0.23491
3434	0.23386
3435	0.23287
3436	0.23194
3437	0.23106
3438	0.23022
3439	0.22939
3440	0.22861
3441	0.22787
3442	0.22719
3443	0.22654
3444	0.2259
3445	0.22527
3446	0.22466
3447	0.22408
3448	0.22356
3449	0.22309
3450	0.22266
3451	0.22226
3452	0.22188
3453	0.22152
3454	0.22121
3455	0.22094
3456	0.22071
3457	0.22051
3458	0.22028
3459	0.22002
3460	0.21977
3461	0.21954
3462	0.21934
3463	0.21915
3464	0.21897
3465	0.21878
3466	0.21858
3467	0.21836
3468	0.21812
3469	0.21788
3470	0.21767
3471	0.21746
3472	0.21721
3473	0.21689
3474	0.21657
3475	0.21631
3476	0.2161
3477	0.21594
3478	0.21578
3479	0.21557
3480	0.21529
3481	0.21495
3482	0.21459
3483	0.21426
3484	0.21396
3485	0.21363
3486	0.21325
3487	0.2128
3488	0.21231
3489	0.21181
3490	0.21132
3491	0.21084
3492	0.21037
3493	0.2099
3494	0.20944
3495	0.20899
3496	0.20853
3497	0.2081
3498	0.2077
3499	0.20727
3500	0.20679
3501	0.20629
3502	0.2058
3503	0.20531
3504	0.20479
3505	0.20421
3506	0.20355
3507	0.20281
3508	0.20202
3509	0.20126
3510	0.20056
3511	0.19992
3512	0.19927
3513	0.19858
3514	0.19786
3515	0.19715
3516	0.19645
3517	0.1958
3518	0.1952
3519	0.19467
3520	0.19418
3521	0.19368
3522	0.19312
3523	0.19251
3524	0.19185
3525	0.19121
3526	0.1906
3527	0.19001
3528	0.18938
3529	0.18864
3530	0.18786
3531	0.18711
3532	0.18643
3533	0.18578
3534	0.18515
3535	0.18451
3536	0.18388
3537	0.18331
3538	0.1828
3539	0.18237
3540	0.18208
3541	0.18193
3542	0.18178
3543	0.18142
3544	0.18082
3545	0.18011
3546	0.1794
3547	0.1787
3548	0.17798
3549	0.17725
3550	0.17653
3551	0.17585
3552	0.17519
3553	0.17451
3554	0.17383
3555	0.1732
3556	0.1726
3557	0.17206
3558	0.1716
3559	0.17123
3560	0.17097
3561	0.17081
3562	0.17072
3563	0.17058
3564	0.17032
3565	0.16995
3566	0.16958
3567	0.16929
3568	0.16909
3569	0.1689
3570	0.16865
3571	0.16829
3572	0.16783
3573	0.16739
3574	0.16703
3575	0.16676
3576	0.16652
3577	0.1662
3578	0.16577
3579	0.16533
3580	0.16497
3581	0.16477
3582	0.1647
3583	0.16467
3584	0.16458
3585	0.16442
3586	0.16423
3587	0.16412
3588	0.16407
3589	0.164
3590	0.16383
3591	0.16347
3592	0.16292
3593	0.16229
3594	0.16172
3595	0.16123
3596	0.16076
3597	0.16029
3598	0.15984
3599	0.15943
3600	0.15907
3601	0.1588
3602	0.15862
3603	0.15858
3604	0.15859
3605	0.15837
3606	0.15794
3607	0.15746
3608	0.15703
3609	0.15659
3610	0.15607
3611	0.15545
3612	0.15472
3613	0.15387
3614	0.15297
3615	0.15219
3616	0.15158
3617	0.15107
3618	0.15054
3619	0.14995
3620	0.14936
3621	0.14889
3622	0.14859
3623	0.14838
3624	0.14811
3625	0.14773
3626	0.14706
3627	0.1461
3628	0.14506
3629	0.14411
3630	0.14331
3631	0.14259
3632	0.14177
3633	0.14078
3634	0.13974
3635	0.13877
3636	0.13792
3637	0.13713
3638	0.13631
3639	0.13545
3640	0.1346
3641	0.13381
3642	0.13312
3643	0.13251
3644	0.13193
3645	0.13131
3646	0.13055
3647	0.12968
3648	0.12887
3649	0.12823
3650	0.12776
3651	0.12709
3652	0.12605
3653	0.12476
3654	0.1232
3655	0.12141
3656	0.11965
3657	0.11801
3658	0.11646
3659	0.11494
3660	0.11348
3661	0.11216
3662	0.11101
3663	0.10996
3664	0.10895
3665	0.10797
3666	0.10699
3667	0.10588
3668	0.10464
3669	0.10338
3670	0.10218
3671	0.10096
3672	0.09959
3673	0.09799
3674	0.09625
3675	0.09444
3676	0.0926
3677	0.09088
3678	0.08933
3679	0.08789
3680	0.08651
3681	0.0851
3682	0.08366
3683	0.08236
3684	0.0813
3685	0.08038
3686	0.07953
3687	0.07866
3688	0.07762
3689	0.07651
3690	0.07543
3691	0.07441
3692	0.0735
3693	0.07269
3694	0.07188
3695	0.07097
3696	0.07003
3697	0.06929
3698	0.0687
3699	0.06808
3700	0.0673
3701	0.06625
3702	0.06514
3703	0.0641
3704	0.06309
3705	0.06215
3706	0.06135
3707	0.0607
3708	0.06016
3709	0.05979
3710	0.05953
3711	0.05911
3712	0.05837
3713	0.05739
3714	0.05624
3715	0.05502
3716	0.05375
3717	0.05246
3718	0.05134
3719	0.05044
3720	0.04959
3721	0.04867
3722	0.0478
3723	0.04704
3724	0.0464
3725	0.04582
3726	0.04524
3727	0.04454
3728	0.04364
3729	0.04271
3730	0.04187
3731	0.04115
3732	0.04052
3733	0.04001
3734	0.03955
3735	0.03897
3736	0.0382
3737	0.03735
3738	0.03658
3739	0.03612
3740	0.03596
3741	0.03598
3742	0.03608
3743	0.03627
3744	0.03657
3745	0.03689
3746	0.03716
3747	0.03736
3748	0.03748
3749	0.03759
3750	0.03776
3751	0.03793
3752	0.03811
3753	0.0384
3754	0.03886
3755	0.03938
3756	0.03981
3757	0.04015
3758	0.04045
3759	0.04074
3760	0.04085
3761	0.04065
3762	0.04038
3763	0.04024
3764	0.04023
3765	0.04028
3766	0.04036
3767	0.04046
3768	0.04059
3769	0.04069
3770	0.04073
3771	0.04083
3772	0.041
3773	0.0411
3774	0.04107
3775	0.04097
3776	0.04082
3777	0.04046
3778	0.03988
3779	0.03931
3780	0.03884
3781	0.03848
3782	0.0381
3783	0.03757
3784	0.03691
3785	0.03614
3786	0.03539
3787	0.0348
3788	0.03431
3789	0.03392
3790	0.03363
3791	0.03332
3792	0.0329
3793	0.03246
3794	0.03208
3795	0.03174
3796	0.03139
3797	0.03091
3798	0.03032
3799	0.02971
3800	0.02915
3801	0.02866
3802	0.02817
3803	0.02761
3804	0.02697
3805	0.0263
3806	0.02573
3807	0.02526
3808	0.02483
3809	0.02443
3810	0.02404
3811	0.02362
3812	0.02328
3813	0.02306
3814	0.02289
3815	0.02273
3816	0.02249
3817	0.02217
3818	0.02188
3819	0.02161
3820	0.02127
3821	0.02085
3822	0.02037
3823	0.01992
3824	0.01958
3825	0.01933
3826	0.01908
3827	0.0188
3828	0.01859
3829	0.01834
3830	0.01791
3831	0.01741
3832	0.01682
3833	0.01615
3834	0.01553
3835	0.01507
3836	0.01478
3837	0.01462
3838	0.01457
3839	0.0146
3840	0.01459
3841	0.01431
3842	0.01387
3843	0.01357
3844	0.01349
3845	0.01342
3846	0.01302
3847	0.01236
3848	0.01182
3849	0.01149
3850	0.01114
3851	0.0107
3852	0.01025
3853	0.00988
3854	0.0097
3855	0.00972
3856	0.00975
3857	0.00966
3858	0.00955
3859	0.00953
3860	0.00953
3861	0.00945
3862	0.00924
3863	0.00891
3864	0.00853
3865	0.0082
3866	0.00793
3867	0.00774
3868	0.00759
3869	0.00739
3870	0.00719
3871	0.00709
3872	0.00717
3873	0.00743
3874	0.00778
3875	0.00807
3876	0.0083
3877	0.00844
3878	0.00837
3879	0.00802
3880	0.00764
3881	0.00734
3882	0.007
3883	0.00662
3884	0.0063
3885	0.00612
3886	0.00599
3887	0.00587
3888	0.00572
3889	0.00557
3890	0.00538
3891	0.00527
3892	0.00532
3893	0.00543
3894	0.00548
3895	0.00536
3896	0.00503
3897	0.00479
3898	0.00469
3899	0.00465
3900	0.00454
3901	0.00441
3902	0.00435
3903	0.00437
3904	0.00445
3905	0.0045
3906	0.00445
3907	0.00438
3908	0.00434
3909	0.00427
3910	0.00411
3911	0.00387
3912	0.00366
3913	0.00359
3914	0.00363
3915	0.00372
3916	0.00379
3917	0.00383
3918	0.00386
3919	0.0039
3920	0.00393
3921	0.00403
3922	0.00422
3923	0.00442
3924	0.00453
3925	0.00451
3926	0.00441
3927	0.00424
3928	0.00397
3929	0.00363
3930	0.00324
3931	0.00286
3932	0.00255
3933	0.00236
3934	0.00226
3935	0.00222
3936	0.00224
3937	0.0023
3938	0.00235
3939	0.00239
3940	0.00244
3941	0.00247
3942	0.00242
3943	0.00233
3944	0.00229
3945	0.00226
3946	0.00223
3947	0.00224
3948	0.00229
3949	0.00231
3950	0.00222
3951	0.00211
3952	0.00204
3953	0.00204
3954	0.00206
3955	0.00205
3956	0.00199
3957	0.0019
3958	0.00177
3959	0.00163
3960	0.00153
3961	0.00149
3962	0.00149
3963	0.00153
3964	0.00158
3965	0.00164
3966	0.00171
3967	0.00174
3968	0.00169
3969	0.0016
3970	0.00154
3971	0.00153
3972	0.00152
3973	0.00147
3974	0.00136
3975	0.00122
3976	0.00118
3977	0.00113
3978	0.00108
3979	0.00104
3980	9.91777E-4
3981	9.45012E-4
3982	8.9795E-4
3983	8.5059E-4
3984	8.02933E-4
3985	7.54979E-4
3986	7.06728E-4
3987	6.58179E-4
3988	6.09334E-4
3989	5.60191E-4
3990	5.1075E-4
3991	4.61013E-4
3992	4.10978E-4
3993	3.60646E-4
3994	3.10017E-4
3995	2.59091E-4
3996	2.07867E-4
3997	1.56346E-4
3998	1.04528E-4
3999	5.24126E-5
4000	0