4000.18193	0.01737
3999.21756	0.01765
3998.2532	0.01791
3997.28884	0.01815
3996.32447	0.01838
3995.36011	0.01859
3994.39574	0.01879
3993.43138	0.01896
3992.46702	0.01913
3991.50265	0.01927
3990.53829	0.0194
3989.57392	0.01951
3988.60956	0.0196
3987.6452	0.01958
3986.68083	0.01948
3985.71647	0.01938
3984.7521	0.01934
3983.78774	0.01933
3982.82338	0.01944
3981.85901	0.01969
3980.89465	0.01997
3979.93028	0.02019
3978.96592	0.02045
3978.00156	0.02085
3977.03719	0.02132
3976.07283	0.0217
3975.10846	0.0219
3974.1441	0.02195
3973.17974	0.02186
3972.21537	0.02178
3971.25101	0.02183
3970.28664	0.02198
3969.32228	0.02216
3968.35792	0.0223
3967.39355	0.02242
3966.42919	0.02255
3965.46482	0.02263
3964.50046	0.02261
3963.5361	0.0226
3962.57173	0.02267
3961.60737	0.02266
3960.643	0.0226
3959.67864	0.02268
3958.71428	0.02298
3957.74991	0.02354
3956.78555	0.02435
3955.82118	0.02516
3954.85682	0.02567
3953.89246	0.02586
3952.92809	0.02615
3951.96373	0.02679
3950.99936	0.02757
3950.035	0.02831
3949.07064	0.02906
3948.10627	0.0298
3947.14191	0.03035
3946.17754	0.03058
3945.21318	0.03048
3944.24882	0.03009
3943.28445	0.02949
3942.32009	0.02892
3941.35572	0.02855
3940.39136	0.0284
3939.427	0.02848
3938.46263	0.02868
3937.49827	0.02894
3936.5339	0.02908
3935.56954	0.02909
3934.60518	0.02944
3933.64081	0.03021
3932.67645	0.03095
3931.71208	0.03142
3930.74772	0.03193
3929.78336	0.03285
3928.81899	0.03376
3927.85463	0.03423
3926.89026	0.0347
3925.9259	0.03546
3924.96154	0.03621
3923.99717	0.03663
3923.03281	0.03661
3922.06844	0.03625
3921.10408	0.03571
3920.13972	0.03523
3919.17535	0.03492
3918.21099	0.03449
3917.24662	0.03361
3916.28226	0.03228
3915.3179	0.0308
3914.35353	0.02953
3913.38917	0.02873
3912.4248	0.02892
3911.46044	0.03024
3910.49608	0.03195
3909.53171	0.0336
3908.56735	0.03556
3907.60298	0.03798
3906.63862	0.0405
3905.67426	0.04264
3904.70989	0.04447
3903.74553	0.04627
3902.78116	0.04767
3901.8168	0.04875
3900.85244	0.04997
3899.88807	0.05111
3898.92371	0.05173
3897.95934	0.05148
3896.99498	0.05021
3896.03062	0.0483
3895.06625	0.04632
3894.10189	0.04445
3893.13752	0.04289
3892.17316	0.04171
3891.2088	0.04101
3890.24443	0.04136
3889.28007	0.04263
3888.3157	0.04412
3887.35134	0.04535
3886.38698	0.04633
3885.42261	0.04685
3884.45825	0.04695
3883.49388	0.0469
3882.52952	0.0465
3881.56516	0.04555
3880.60079	0.0446
3879.63643	0.04509
3878.67206	0.04702
3877.7077	0.04924
3876.74333	0.05045
3875.77897	0.05048
3874.81461	0.05036
3873.85024	0.05077
3872.88588	0.05192
3871.92151	0.05376
3870.95715	0.05565
3869.99279	0.05708
3869.02842	0.05784
3868.06406	0.05829
3867.09969	0.05895
3866.13533	0.05912
3865.17097	0.05797
3864.2066	0.05552
3863.24224	0.05398
3862.27787	0.05419
3861.31351	0.05576
3860.34915	0.05788
3859.38478	0.05976
3858.42042	0.06143
3857.45605	0.06337
3856.49169	0.06556
3855.52733	0.06653
3854.56296	0.0661
3853.5986	0.06514
3852.63423	0.06427
3851.66987	0.06369
3850.70551	0.0631
3849.74114	0.06262
3848.77678	0.06244
3847.81241	0.06245
3846.84805	0.06216
3845.88369	0.06149
3844.91932	0.06086
3843.95496	0.06043
3842.99059	0.05984
3842.02623	0.05927
3841.06187	0.05993
3840.0975	0.06264
3839.13314	0.06548
3838.16877	0.06717
3837.20441	0.0681
3836.24005	0.06864
3835.27568	0.06853
3834.31132	0.0675
3833.34695	0.06545
3832.38259	0.06236
3831.41823	0.05953
3830.45386	0.05829
3829.4895	0.05781
3828.52513	0.05748
3827.56077	0.05746
3826.59641	0.05822
3825.63204	0.06018
3824.66768	0.06288
3823.70331	0.06549
3822.73895	0.06771
3821.77459	0.06946
3820.81022	0.07047
3819.84586	0.07067
3818.88149	0.07024
3817.91713	0.06918
3816.95277	0.06787
3815.9884	0.06661
3815.02404	0.06523
3814.05967	0.06353
3813.09531	0.06122
3812.13095	0.05865
3811.16658	0.05707
3810.20222	0.05643
3809.23785	0.05655
3808.27349	0.05787
3807.30913	0.0602
3806.34476	0.06258
3805.3804	0.06481
3804.41603	0.0669
3803.45167	0.06918
3802.48731	0.07156
3801.52294	0.07316
3800.55858	0.07376
3799.59421	0.07347
3798.62985	0.07239
3797.66549	0.07054
3796.70112	0.06794
3795.73676	0.06498
3794.77239	0.06249
3793.80803	0.06093
3792.84367	0.05945
3791.8793	0.05731
3790.91494	0.05467
3789.95057	0.05248
3788.98621	0.05204
3788.02185	0.05326
3787.05748	0.05459
3786.09312	0.05553
3785.12875	0.05635
3784.16439	0.05744
3783.20003	0.05869
3782.23566	0.05947
3781.2713	0.05956
3780.30693	0.05951
3779.34257	0.05992
3778.37821	0.06053
3777.41384	0.06093
3776.44948	0.0611
3775.48511	0.06146
3774.52075	0.06206
3773.55639	0.06279
3772.59202	0.06367
3771.62766	0.0645
3770.66329	0.06479
3769.69893	0.06492
3768.73457	0.06541
3767.7702	0.06626
3766.80584	0.06772
3765.84147	0.06968
3764.87711	0.07135
3763.91275	0.07215
3762.94838	0.07195
3761.98402	0.07171
3761.01965	0.07224
3760.05529	0.07371
3759.09093	0.0761
3758.12656	0.07917
3757.1622	0.08282
3756.19783	0.08649
3755.23347	0.0897
3754.26911	0.09325
3753.30474	0.09703
3752.34038	0.10072
3751.37601	0.10381
3750.41165	0.10604
3749.44729	0.10717
3748.48292	0.10718
3747.51856	0.10638
3746.55419	0.10536
3745.58983	0.10493
3744.62547	0.10521
3743.6611	0.10558
3742.69674	0.10566
3741.73237	0.10545
3740.76801	0.10495
3739.80365	0.10441
3738.83928	0.10434
3737.87492	0.10443
3736.91055	0.10441
3735.94619	0.10436
3734.98182	0.10402
3734.01746	0.1032
3733.0531	0.10225
3732.08873	0.10203
3731.12437	0.10237
3730.16	0.10199
3729.19564	0.10099
3728.23128	0.09976
3727.26691	0.09804
3726.30255	0.09559
3725.33818	0.09267
3724.37382	0.08978
3723.40946	0.08731
3722.44509	0.08623
3721.48073	0.08678
3720.51636	0.08816
3719.552	0.09039
3718.58764	0.09309
3717.62327	0.09537
3716.65891	0.09686
3715.69454	0.09767
3714.73018	0.09811
3713.76582	0.09838
3712.80145	0.09856
3711.83709	0.0989
3710.87272	0.09951
3709.90836	0.10037
3708.944	0.10124
3707.97963	0.1015
3707.01527	0.10117
3706.0509	0.10061
3705.08654	0.09968
3704.12218	0.09806
3703.15781	0.09571
3702.19345	0.09274
3701.22908	0.0898
3700.26472	0.08781
3699.30036	0.08766
3698.33599	0.08992
3697.37163	0.09353
3696.40726	0.09748
3695.4429	0.10103
3694.47854	0.10395
3693.51417	0.10636
3692.54981	0.1082
3691.58544	0.1093
3690.62108	0.10975
3689.65672	0.11019
3688.69235	0.11103
3687.72799	0.11155
3686.76362	0.11095
3685.79926	0.11056
3684.8349	0.11196
3683.87053	0.11412
3682.90617	0.11602
3681.9418	0.11696
3680.97744	0.11705
3680.01308	0.11766
3679.04871	0.1196
3678.08435	0.12295
3677.11998	0.1272
3676.15562	0.13165
3675.19126	0.1359
3674.22689	0.13926
3673.26253	0.14143
3672.29816	0.1425
3671.3338	0.14264
3670.36944	0.14191
3669.40507	0.14028
3668.44071	0.13774
3667.47634	0.13449
3666.51198	0.13141
3665.54762	0.12894
3664.58325	0.1268
3663.61889	0.12514
3662.65452	0.12472
3661.69016	0.12461
3660.7258	0.12361
3659.76143	0.12323
3658.79707	0.12422
3657.8327	0.12758
3656.86834	0.13387
3655.90398	0.1414
3654.93961	0.14846
3653.97525	0.1544
3653.01088	0.15935
3652.04652	0.16363
3651.08216	0.16727
3650.11779	0.17006
3649.15343	0.17193
3648.18906	0.17309
3647.2247	0.17364
3646.26034	0.17338
3645.29597	0.17215
3644.33161	0.17048
3643.36724	0.16912
3642.40288	0.16756
3641.43852	0.16481
3640.47415	0.16066
3639.50979	0.15647
3638.54542	0.15449
3637.58106	0.15524
3636.6167	0.15838
3635.65233	0.16273
3634.68797	0.16773
3633.7236	0.17264
3632.75924	0.17653
3631.79488	0.1792
3630.83051	0.18102
3629.86615	0.18277
3628.90178	0.18507
3627.93742	0.18785
3626.97306	0.19054
3626.00869	0.19275
3625.04433	0.19456
3624.07996	0.19613
3623.1156	0.19765
3622.15124	0.19934
3621.18687	0.20104
3620.22251	0.20234
3619.25814	0.20307
3618.29378	0.20374
3617.32942	0.20524
3616.36505	0.20854
3615.40069	0.213
3614.43632	0.21662
3613.47196	0.21912
3612.5076	0.22062
3611.54323	0.22124
3610.57887	0.22131
3609.6145	0.22113
3608.65014	0.22095
3607.68578	0.221
3606.72141	0.22149
3605.75705	0.2226
3604.79268	0.22403
3603.82832	0.22532
3602.86396	0.22661
3601.89959	0.2282
3600.93523	0.22999
3599.97086	0.23161
3599.0065	0.23267
3598.04214	0.23358
3597.07777	0.23544
3596.11341	0.23866
3595.14904	0.24269
3594.18468	0.24689
3593.22031	0.25075
3592.25595	0.25386
3591.29159	0.25619
3590.32722	0.25808
3589.36286	0.25985
3588.39849	0.26161
3587.43413	0.2634
3586.46977	0.26514
3585.5054	0.26666
3584.54104	0.26798
3583.57667	0.26925
3582.61231	0.27064
3581.64795	0.27197
3580.68358	0.27298
3579.71922	0.27342
3578.75485	0.27301
3577.79049	0.27223
3576.82613	0.27243
3575.86176	0.27458
3574.8974	0.27872
3573.93303	0.28411
3572.96867	0.28958
3572.00431	0.29447
3571.03994	0.29888
3570.07558	0.30305
3569.11121	0.30694
3568.14685	0.31042
3567.18249	0.31361
3566.21812	0.31645
3565.25376	0.31871
3564.28939	0.3204
3563.32503	0.32171
3562.36067	0.32295
3561.3963	0.32427
3560.43194	0.32531
3559.46757	0.32571
3558.50321	0.32543
3557.53885	0.32481
3556.57448	0.32431
3555.61012	0.32457
3554.64575	0.3264
3553.68139	0.32994
3552.71703	0.33421
3551.75266	0.33816
3550.7883	0.34164
3549.82393	0.34477
3548.85957	0.34752
3547.89521	0.34994
3546.93084	0.35225
3545.96648	0.35457
3545.00211	0.35675
3544.03775	0.35864
3543.07339	0.36013
3542.10902	0.36125
3541.14466	0.36223
3540.18029	0.36334
3539.21593	0.36468
3538.25157	0.36613
3537.2872	0.36757
3536.32284	0.369
3535.35847	0.37054
3534.39411	0.37244
3533.42975	0.37504
3532.46538	0.37843
3531.50102	0.38223
3530.53665	0.38591
3529.57229	0.3892
3528.60793	0.3921
3527.64356	0.39468
3526.6792	0.397
3525.71483	0.39905
3524.75047	0.40089
3523.78611	0.4027
3522.82174	0.40445
3521.85738	0.40582
3520.89301	0.4067
3519.92865	0.40741
3518.96429	0.40831
3517.99992	0.40945
3517.03556	0.41062
3516.07119	0.4118
3515.10683	0.41307
3514.14247	0.41448
3513.1781	0.41617
3512.21374	0.41827
3511.24937	0.42087
3510.28501	0.42391
3509.32065	0.42701
3508.35628	0.42977
3507.39192	0.43215
3506.42755	0.43441
3505.46319	0.43672
3504.49883	0.43896
3503.53446	0.44099
3502.5701	0.44276
3501.60573	0.44428
3500.64137	0.4456
3499.67701	0.4467
3498.71264	0.44772
3497.74828	0.44889
3496.78391	0.45036
3495.81955	0.45198
3494.85519	0.45336
3493.89082	0.45435
3492.92646	0.45518
3491.96209	0.45625
3490.99773	0.45787
3490.03337	0.46005
3489.069	0.46245
3488.10464	0.46472
3487.14027	0.46669
3486.17591	0.46841
3485.21155	0.47002
3484.24718	0.47168
3483.28282	0.47346
3482.31845	0.47524
3481.35409	0.47687
3480.38973	0.47832
3479.42536	0.47963
3478.461	0.48077
3477.49663	0.48179
3476.53227	0.48279
3475.56791	0.48387
3474.60354	0.48497
3473.63918	0.48598
3472.67481	0.48692
3471.71045	0.48791
3470.74609	0.48898
3469.78172	0.49022
3468.81736	0.49166
3467.85299	0.49318
3466.88863	0.49463
3465.92427	0.49596
3464.9599	0.49718
3463.99554	0.49834
3463.03117	0.49949
3462.06681	0.50069
3461.10245	0.5019
3460.13808	0.50299
3459.17372	0.50385
3458.20935	0.50453
3457.24499	0.50532
3456.28062	0.50635
3455.31626	0.50749
3454.3519	0.50863
3453.38753	0.50976
3452.42317	0.51091
3451.4588	0.51208
3450.49444	0.51327
3449.53008	0.51451
3448.56571	0.51572
3447.60135	0.51681
3446.63698	0.51775
3445.67262	0.51856
3444.70826	0.51926
3443.74389	0.51984
3442.77953	0.52031
3441.81516	0.52068
3440.8508	0.52099
3439.88644	0.52123
3438.92207	0.52137
3437.95771	0.52143
3436.99334	0.5214
3436.02898	0.52135
3435.06462	0.52146
3434.10025	0.52188
3433.13589	0.52241
3432.17152	0.52287
3431.20716	0.52333
3430.2428	0.52401
3429.27843	0.52496
3428.31407	0.52598
3427.3497	0.52693
3426.38534	0.5278
3425.42098	0.5286
3424.45661	0.5293
3423.49225	0.52992
3422.52788	0.53043
3421.56352	0.53086
3420.59916	0.53122
3419.63479	0.53154
3418.67043	0.53183
3417.70606	0.53206
3416.7417	0.53222
3415.77734	0.5323
3414.81297	0.53233
3413.84861	0.53233
3412.88424	0.53232
3411.91988	0.5323
3410.95552	0.5323
3409.99115	0.53234
3409.02679	0.53245
3408.06242	0.53268
3407.09806	0.53311
3406.1337	0.53364
3405.16933	0.53411
3404.20497	0.53445
3403.2406	0.53479
3402.27624	0.53522
3401.31188	0.53572
3400.34751	0.5362
3399.38315	0.53662
3398.41878	0.53697
3397.45442	0.53723
3396.49006	0.53739
3395.52569	0.5375
3394.56133	0.53763
3393.59696	0.53782
3392.6326	0.53801
3391.66824	0.53816
3390.70387	0.53829
3389.73951	0.53838
3388.77514	0.53842
3387.81078	0.53841
3386.84642	0.53832
3385.88205	0.53819
3384.91769	0.5381
3383.95332	0.53808
3382.98896	0.53803
3382.0246	0.53791
3381.06023	0.53779
3380.09587	0.53774
3379.1315	0.53775
3378.16714	0.53768
3377.20278	0.5375
3376.23841	0.53728
3375.27405	0.53707
3374.30968	0.53689
3373.34532	0.53674
3372.38096	0.53669
3371.41659	0.53673
3370.45223	0.53681
3369.48786	0.53683
3368.5235	0.53679
3367.55914	0.53668
3366.59477	0.53656
3365.63041	0.53645
3364.66604	0.53634
3363.70168	0.53622
3362.73732	0.53607
3361.77295	0.53588
3360.80859	0.53562
3359.84422	0.5353
3358.87986	0.53491
3357.9155	0.53446
3356.95113	0.53396
3355.98677	0.53343
3355.0224	0.53289
3354.05804	0.53235
3353.09368	0.53179
3352.12931	0.53124
3351.16495	0.53071
3350.20058	0.53019
3349.23622	0.52967
3348.27186	0.52911
3347.30749	0.52852
3346.34313	0.52791
3345.37876	0.52731
3344.4144	0.52678
3343.45004	0.52632
3342.48567	0.52591
3341.52131	0.52548
3340.55694	0.52502
3339.59258	0.5245
3338.62822	0.52393
3337.66385	0.52333
3336.69949	0.52271
3335.73512	0.52205
3334.77076	0.52135
3333.8064	0.52063
3332.84203	0.51989
3331.87767	0.51912
3330.9133	0.5183
3329.94894	0.51744
3328.98458	0.51656
3328.02021	0.51569
3327.05585	0.5148
3326.09148	0.51386
3325.12712	0.51287
3324.16276	0.51191
3323.19839	0.51102
3322.23403	0.51018
3321.26966	0.50935
3320.3053	0.50849
3319.34094	0.50762
3318.37657	0.50678
3317.41221	0.50595
3316.44784	0.5051
3315.48348	0.50421
3314.51911	0.50328
3313.55475	0.50232
3312.59039	0.5013
3311.62602	0.50025
3310.66166	0.49918
3309.69729	0.4981
3308.73293	0.49702
3307.76857	0.49594
3306.8042	0.49486
3305.83984	0.49376
3304.87547	0.49262
3303.91111	0.49145
3302.94675	0.49027
3301.98238	0.4891
3301.01802	0.48798
3300.05365	0.48689
3299.08929	0.48582
3298.12493	0.48476
3297.16056	0.48374
3296.1962	0.48274
3295.23183	0.48175
3294.26747	0.48073
3293.30311	0.47969
3292.33874	0.47864
3291.37438	0.47757
3290.41001	0.4765
3289.44565	0.47543
3288.48129	0.47433
3287.51692	0.47321
3286.55256	0.47214
3285.58819	0.4711
3284.62383	0.47008
3283.65947	0.46907
3282.6951	0.46809
3281.73074	0.4671
3280.76637	0.4661
3279.80201	0.4651
3278.83765	0.46409
3277.87328	0.46304
3276.90892	0.46194
3275.94455	0.46084
3274.98019	0.45976
3274.01583	0.45866
3273.05146	0.45752
3272.0871	0.45635
3271.12273	0.45518
3270.15837	0.45403
3269.19401	0.45284
3268.22964	0.4516
3267.26528	0.45034
3266.30091	0.44905
3265.33655	0.44771
3264.37219	0.44638
3263.40782	0.44513
3262.44346	0.44391
3261.47909	0.4427
3260.51473	0.44153
3259.55037	0.44036
3258.586	0.43914
3257.62164	0.43785
3256.65727	0.43649
3255.69291	0.43511
3254.72855	0.4338
3253.76418	0.43259
3252.79982	0.43144
3251.83545	0.43032
3250.87109	0.42922
3249.90673	0.42814
3248.94236	0.42707
3247.978	0.42601
3247.01363	0.42497
3246.04927	0.42396
3245.08491	0.42294
3244.12054	0.42189
3243.15618	0.42079
3242.19181	0.41967
3241.22745	0.41854
3240.26309	0.41742
3239.29872	0.41625
3238.33436	0.41504
3237.36999	0.41382
3236.40563	0.41256
3235.44127	0.41125
3234.4769	0.40985
3233.51254	0.4084
3232.54817	0.40696
3231.58381	0.40553
3230.61945	0.40407
3229.65508	0.40256
3228.69072	0.40105
3227.72635	0.39953
3226.76199	0.39798
3225.79763	0.39636
3224.83326	0.3947
3223.8689	0.39307
3222.90453	0.39145
3221.94017	0.38977
3220.97581	0.388
3220.01144	0.38622
3219.04708	0.38447
3218.08271	0.38274
3217.11835	0.381
3216.15399	0.37924
3215.18962	0.37745
3214.22526	0.37566
3213.26089	0.37384
3212.29653	0.37195
3211.33217	0.37001
3210.3678	0.36801
3209.40344	0.36597
3208.43907	0.36395
3207.47471	0.36201
3206.51035	0.36016
3205.54598	0.35833
3204.58162	0.35647
3203.61725	0.35458
3202.65289	0.35268
3201.68853	0.3508
3200.72416	0.34897
3199.7598	0.34715
3198.79543	0.3453
3197.83107	0.34345
3196.86671	0.34162
3195.90234	0.33981
3194.93798	0.338
3193.97361	0.33619
3193.00925	0.33439
3192.04489	0.33256
3191.08052	0.3307
3190.11616	0.3288
3189.15179	0.32686
3188.18743	0.32495
3187.22307	0.32311
3186.2587	0.32132
3185.29434	0.31959
3184.32997	0.31791
3183.36561	0.31622
3182.40125	0.3145
3181.43688	0.31272
3180.47252	0.31091
3179.50815	0.30912
3178.54379	0.30733
3177.57943	0.30555
3176.61506	0.30376
3175.6507	0.30196
3174.68633	0.30017
3173.72197	0.29838
3172.7576	0.29663
3171.79324	0.29492
3170.82888	0.29322
3169.86451	0.29151
3168.90015	0.28977
3167.93578	0.28801
3166.97142	0.28623
3166.00706	0.28446
3165.04269	0.28274
3164.07833	0.28098
3163.11396	0.27912
3162.1496	0.27718
3161.18524	0.27517
3160.22087	0.2731
3159.25651	0.27094
3158.29214	0.26871
3157.32778	0.26642
3156.36342	0.26408
3155.39905	0.2617
3154.43469	0.25926
3153.47032	0.25679
3152.50596	0.25429
3151.5416	0.2518
3150.57723	0.24932
3149.61287	0.24686
3148.6485	0.24442
3147.68414	0.242
3146.71978	0.23961
3145.75541	0.23725
3144.79105	0.23491
3143.82668	0.23261
3142.86232	0.23041
3141.89796	0.22833
3140.93359	0.22632
3139.96923	0.22435
3139.00486	0.22241
3138.0405	0.22048
3137.07614	0.21861
3136.11177	0.2168
3135.14741	0.21504
3134.18304	0.21329
3133.21868	0.21157
3132.25432	0.20995
3131.28995	0.20842
3130.32559	0.20691
3129.36122	0.20541
3128.39686	0.20395
3127.4325	0.20251
3126.46813	0.2011
3125.50377	0.19973
3124.5394	0.1984
3123.57504	0.19709
3122.61068	0.19579
3121.64631	0.19449
3120.68195	0.19324
3119.71758	0.19202
3118.75322	0.19078
3117.78886	0.1895
3116.82449	0.18818
3115.86013	0.18684
3114.89576	0.18548
3113.9314	0.18411
3112.96704	0.18275
3112.00267	0.18141
3111.03831	0.1801
3110.07394	0.1789
3109.10958	0.17781
3108.14522	0.17673
3107.18085	0.1756
3106.21649	0.17453
3105.25212	0.17356
3104.28776	0.17267
3103.3234	0.17184
3102.35903	0.17109
3101.39467	0.17035
3100.4303	0.1696
3099.46594	0.16883
3098.50158	0.16808
3097.53721	0.16734
3096.57285	0.16662
3095.60848	0.1659
3094.64412	0.16517
3093.67976	0.16444
3092.71539	0.16372
3091.75103	0.16301
3090.78666	0.16234
3089.8223	0.16175
3088.85794	0.16129
3087.89357	0.16094
3086.92921	0.16065
3085.96484	0.16038
3085.00048	0.1601
3084.03612	0.15986
3083.07175	0.15971
3082.10739	0.15962
3081.14302	0.15956
3080.17866	0.15952
3079.2143	0.15948
3078.24993	0.15947
3077.28557	0.15948
3076.3212	0.15954
3075.35684	0.15965
3074.39248	0.15983
3073.42811	0.16009
3072.46375	0.16035
3071.49938	0.16059
3070.53502	0.16083
3069.57066	0.1611
3068.60629	0.16137
3067.64193	0.16162
3066.67756	0.16188
3065.7132	0.16216
3064.74884	0.16242
3063.78447	0.1626
3062.82011	0.16267
3061.85574	0.16264
3060.89138	0.16254
3059.92702	0.16241
3058.96265	0.16228
3057.99829	0.16218
3057.03392	0.16209
3056.06956	0.16201
3055.1052	0.16196
3054.14083	0.16194
3053.17647	0.16194
3052.2121	0.16192
3051.24774	0.16189
3050.28338	0.1618
3049.31901	0.16162
3048.35465	0.16134
3047.39028	0.161
3046.42592	0.16061
3045.46156	0.16017
3044.49719	0.15974
3043.53283	0.15932
3042.56846	0.15889
3041.6041	0.15847
3040.63974	0.15811
3039.67537	0.15782
3038.71101	0.15753
3037.74664	0.15726
3036.78228	0.15704
3035.81792	0.15692
3034.85355	0.15686
3033.88919	0.15681
3032.92482	0.15675
3031.96046	0.15669
3030.99609	0.15663
3030.03173	0.15654
3029.06737	0.15639
3028.103	0.1562
3027.13864	0.15596
3026.17427	0.15571
3025.20991	0.15548
3024.24555	0.15526
3023.28118	0.1551
3022.31682	0.15509
3021.35245	0.15523
3020.38809	0.15551
3019.42373	0.15595
3018.45936	0.15656
3017.495	0.15728
3016.53063	0.15802
3015.56627	0.15875
3014.60191	0.15952
3013.63754	0.16037
3012.67318	0.16131
3011.70881	0.1623
3010.74445	0.16332
3009.78009	0.16437
3008.81572	0.16549
3007.85136	0.16666
3006.88699	0.16791
3005.92263	0.16924
3004.95827	0.17069
3003.9939	0.1723
3003.02954	0.17412
3002.06517	0.17616
3001.10081	0.17844
3000.13645	0.18099
2999.17208	0.18383
2998.20772	0.18695
2997.24335	0.19039
2996.27899	0.19413
2995.31463	0.19814
2994.35026	0.20241
2993.3859	0.20695
2992.42153	0.21177
2991.45717	0.21686
2990.49281	0.22218
2989.52844	0.2277
2988.56408	0.23337
2987.59971	0.23918
2986.63535	0.24509
2985.67099	0.25108
2984.70662	0.25713
2983.74226	0.26323
2982.77789	0.26936
2981.81353	0.27549
2980.84917	0.28153
2979.8848	0.28741
2978.92044	0.29308
2977.95607	0.2985
2976.99171	0.30359
2976.02735	0.30833
2975.06298	0.3127
2974.09862	0.31665
2973.13425	0.32016
2972.16989	0.32317
2971.20553	0.32566
2970.24116	0.32764
2969.2768	0.32911
2968.31243	0.3301
2967.34807	0.33061
2966.38371	0.33069
2965.41934	0.3304
2964.45498	0.32983
2963.49061	0.32905
2962.52625	0.32817
2961.56189	0.32726
2960.59752	0.32642
2959.63316	0.32573
2958.66879	0.32525
2957.70443	0.32506
2956.74007	0.32523
2955.7757	0.32583
2954.81134	0.32694
2953.84697	0.32859
2952.88261	0.33082
2951.91825	0.33364
2950.95388	0.33706
2949.98952	0.34106
2949.02515	0.34561
2948.06079	0.35068
2947.09643	0.35619
2946.13206	0.36211
2945.1677	0.36836
2944.20333	0.37489
2943.23897	0.3816
2942.27461	0.38841
2941.31024	0.39521
2940.34588	0.4019
2939.38151	0.40838
2938.41715	0.41455
2937.45279	0.42034
2936.48842	0.42567
2935.52406	0.4305
2934.55969	0.4348
2933.59533	0.43853
2932.63097	0.44167
2931.6666	0.44422
2930.70224	0.44617
2929.73787	0.44751
2928.77351	0.44823
2927.80915	0.44834
2926.84478	0.44784
2925.88042	0.44677
2924.91605	0.44516
2923.95169	0.44304
2922.98733	0.44042
2922.02296	0.43735
2921.0586	0.43387
2920.09423	0.43
2919.12987	0.42581
2918.16551	0.42135
2917.20114	0.41669
2916.23678	0.41186
2915.27241	0.40695
2914.30805	0.402
2913.34369	0.39708
2912.37932	0.39224
2911.41496	0.38753
2910.45059	0.38298
2909.48623	0.37861
2908.52187	0.37442
2907.5575	0.37041
2906.59314	0.36658
2905.62877	0.36294
2904.66441	0.35945
2903.70005	0.35608
2902.73568	0.35282
2901.77132	0.34965
2900.80695	0.34655
2899.84259	0.3435
2898.87823	0.34048
2897.91386	0.3375
2896.9495	0.33459
2895.98513	0.33175
2895.02077	0.32901
2894.05641	0.32636
2893.09204	0.32382
2892.12768	0.3214
2891.16331	0.31912
2890.19895	0.31697
2889.23458	0.31493
2888.27022	0.31301
2887.30586	0.31122
2886.34149	0.30957
2885.37713	0.30803
2884.41276	0.3066
2883.4484	0.30526
2882.48404	0.30398
2881.51967	0.30273
2880.55531	0.30144
2879.59094	0.30008
2878.62658	0.29859
2877.66222	0.29693
2876.69785	0.29507
2875.73349	0.29296
2874.76912	0.29055
2873.80476	0.28787
2872.8404	0.28491
2871.87603	0.28169
2870.91167	0.27821
2869.9473	0.2745
2868.98294	0.2706
2868.01858	0.26656
2867.05421	0.26244
2866.08985	0.2583
2865.12548	0.2542
2864.16112	0.25022
2863.19676	0.2464
2862.23239	0.24279
2861.26803	0.23939
2860.30366	0.2362
2859.3393	0.23321
2858.37494	0.23035
2857.41057	0.22757
2856.44621	0.22479
2855.48184	0.22195
2854.51748	0.219
2853.55312	0.21592
2852.58875	0.21267
2851.62439	0.20924
2850.66002	0.20563
2849.69566	0.20187
2848.7313	0.19797
2847.76693	0.19398
2846.80257	0.18993
2845.8382	0.18588
2844.87384	0.18188
2843.90948	0.178
2842.94511	0.17427
2841.98075	0.17074
2841.01638	0.16745
2840.05202	0.16442
2839.08766	0.16167
2838.12329	0.15919
2837.15893	0.15696
2836.19456	0.15493
2835.2302	0.15308
2834.26584	0.15137
2833.30147	0.14976
2832.33711	0.14824
2831.37274	0.14678
2830.40838	0.14538
2829.44402	0.14403
2828.47965	0.14272
2827.51529	0.14143
2826.55092	0.14018
2825.58656	0.13896
2824.6222	0.13778
2823.65783	0.13663
2822.69347	0.13552
2821.7291	0.13443
2820.76474	0.13338
2819.80038	0.13236
2818.83601	0.13139
2817.87165	0.13045
2816.90728	0.12952
2815.94292	0.12862
2814.97856	0.12774
2814.01419	0.12688
2813.04983	0.12602
2812.08546	0.12517
2811.1211	0.12432
2810.15674	0.12349
2809.19237	0.12265
2808.22801	0.12181
2807.26364	0.12097
2806.29928	0.12013
2805.33492	0.1193
2804.37055	0.11846
2803.40619	0.11761
2802.44182	0.11676
2801.47746	0.11591
2800.5131	0.11506
2799.54873	0.11423
2798.58437	0.11341
2797.62	0.1126
2796.65564	0.1118
2795.69128	0.111
2794.72691	0.11021
2793.76255	0.10941
2792.79818	0.10859
2791.83382	0.10777
2790.86946	0.10694
2789.90509	0.1061
2788.94073	0.10527
2787.97636	0.10442
2787.012	0.10357
2786.04764	0.10271
2785.08327	0.10186
2784.11891	0.101
2783.15454	0.10014
2782.19018	0.09929
2781.22582	0.09844
2780.26145	0.09759
2779.29709	0.09674
2778.33272	0.09591
2777.36836	0.0951
2776.404	0.09432
2775.43963	0.09355
2774.47527	0.09278
2773.5109	0.09203
2772.54654	0.0913
2771.58218	0.09058
2770.61781	0.08988
2769.65345	0.0892
2768.68908	0.08852
2767.72472	0.08787
2766.76036	0.08725
2765.79599	0.08666
2764.83163	0.08609
2763.86726	0.08554
2762.9029	0.08501
2761.93854	0.08452
2760.97417	0.08406
2760.00981	0.08362
2759.04544	0.08321
2758.08108	0.08283
2757.11672	0.08248
2756.15235	0.08217
2755.18799	0.08188
2754.22362	0.0816
2753.25926	0.08133
2752.2949	0.08107
2751.33053	0.08081
2750.36617	0.08055
2749.4018	0.08028
2748.43744	0.08
2747.47307	0.07971
2746.50871	0.07941
2745.54435	0.07911
2744.57998	0.0788
2743.61562	0.07849
2742.65125	0.07817
2741.68689	0.07783
2740.72253	0.07747
2739.75816	0.07711
2738.7938	0.07674
2737.82943	0.07638
2736.86507	0.07604
2735.90071	0.07571
2734.93634	0.0754
2733.97198	0.07511
2733.00761	0.07483
2732.04325	0.07456
2731.07889	0.07429
2730.11452	0.07402
2729.15016	0.07377
2728.18579	0.07353
2727.22143	0.07329
2726.25707	0.07305
2725.2927	0.07282
2724.32834	0.07259
2723.36397	0.07238
2722.39961	0.07216
2721.43525	0.07195
2720.47088	0.07172
2719.50652	0.0715
2718.54215	0.07129
2717.57779	0.07108
2716.61343	0.07086
2715.64906	0.07063
2714.6847	0.0704
2713.72033	0.07018
2712.75597	0.06997
2711.79161	0.06975
2710.82724	0.06951
2709.86288	0.06927
2708.89851	0.06904
2707.93415	0.0688
2706.96979	0.06857
2706.00542	0.06833
2705.04106	0.06809
2704.07669	0.06786
2703.11233	0.06762
2702.14797	0.06738
2701.1836	0.06714
2700.21924	0.0669
2699.25487	0.06667
2698.29051	0.06643
2697.32615	0.06619
2696.36178	0.06595
2695.39742	0.0657
2694.43305	0.06545
2693.46869	0.06519
2692.50433	0.06491
2691.53996	0.06462
2690.5756	0.06433
2689.61123	0.06402
2688.64687	0.0637
2687.68251	0.06337
2686.71814	0.06303
2685.75378	0.06269
2684.78941	0.06234
2683.82505	0.06197
2682.86069	0.0616
2681.89632	0.06122
2680.93196	0.06085
2679.96759	0.06048
2679.00323	0.06012
2678.03887	0.05975
2677.0745	0.05939
2676.11014	0.05903
2675.14577	0.05868
2674.18141	0.05834
2673.21705	0.05801
2672.25268	0.0577
2671.28832	0.0574
2670.32395	0.05712
2669.35959	0.05684
2668.39523	0.05659
2667.43086	0.05636
2666.4665	0.05616
2665.50213	0.05597
2664.53777	0.05582
2663.57341	0.0557
2662.60904	0.05561
2661.64468	0.05555
2660.68031	0.05553
2659.71595	0.05555
2658.75159	0.05561
2657.78722	0.0557
2656.82286	0.05584
2655.85849	0.056
2654.89413	0.05619
2653.92977	0.0564
2652.9654	0.05663
2652.00104	0.05688
2651.03667	0.05712
2650.07231	0.05735
2649.10795	0.05754
2648.14358	0.0577
2647.17922	0.05782
2646.21485	0.05788
2645.25049	0.05788
2644.28613	0.0578
2643.32176	0.05765
2642.3574	0.05745
2641.39303	0.05719
2640.42867	0.05686
2639.46431	0.05647
2638.49994	0.05602
2637.53558	0.05554
2636.57121	0.05503
2635.60685	0.0545
2634.64249	0.05396
2633.67812	0.05344
2632.71376	0.05293
2631.74939	0.05244
2630.78503	0.05199
2629.82067	0.05158
2628.8563	0.05121
2627.89194	0.05088
2626.92757	0.05061
2625.96321	0.05038
2624.99885	0.0502
2624.03448	0.05005
2623.07012	0.04994
2622.10575	0.04985
2621.14139	0.0498
2620.17703	0.04977
2619.21266	0.04976
2618.2483	0.04976
2617.28393	0.04976
2616.31957	0.04976
2615.35521	0.04976
2614.39084	0.04975
2613.42648	0.04974
2612.46211	0.04972
2611.49775	0.04968
2610.53339	0.04962
2609.56902	0.04955
2608.60466	0.04946
2607.64029	0.04935
2606.67593	0.04921
2605.71156	0.04904
2604.7472	0.04886
2603.78284	0.04867
2602.81847	0.04846
2601.85411	0.04822
2600.88974	0.04796
2599.92538	0.04768
2598.96102	0.04738
2597.99665	0.04706
2597.03229	0.04672
2596.06792	0.04637
2595.10356	0.046
2594.1392	0.04564
2593.17483	0.04529
2592.21047	0.04493
2591.2461	0.04458
2590.28174	0.04425
2589.31738	0.04394
2588.35301	0.04364
2587.38865	0.04334
2586.42428	0.04305
2585.45992	0.04276
2584.49556	0.04246
2583.53119	0.04217
2582.56683	0.04187
2581.60246	0.04157
2580.6381	0.04127
2579.67374	0.04096
2578.70937	0.04064
2577.74501	0.04029
2576.78064	0.03993
2575.81628	0.03955
2574.85192	0.03916
2573.88755	0.03877
2572.92319	0.03838
2571.95882	0.03798
2570.99446	0.0376
2570.0301	0.03722
2569.06573	0.03685
2568.10137	0.03649
2567.137	0.03615
2566.17264	0.03581
2565.20828	0.03549
2564.24391	0.03516
2563.27955	0.03485
2562.31518	0.03455
2561.35082	0.03426
2560.38646	0.03398
2559.42209	0.03371
2558.45773	0.03344
2557.49336	0.03317
2556.529	0.03291
2555.56464	0.03264
2554.60027	0.03237
2553.63591	0.03209
2552.67154	0.03182
2551.70718	0.03156
2550.74282	0.0313
2549.77845	0.03104
2548.81409	0.03079
2547.84972	0.03054
2546.88536	0.03029
2545.921	0.03004
2544.95663	0.0298
2543.99227	0.02956
2543.0279	0.02932
2542.06354	0.02908
2541.09918	0.02885
2540.13481	0.02863
2539.17045	0.02841
2538.20608	0.02818
2537.24172	0.02796
2536.27736	0.02775
2535.31299	0.02754
2534.34863	0.02732
2533.38426	0.0271
2532.4199	0.02689
2531.45554	0.02667
2530.49117	0.02646
2529.52681	0.02626
2528.56244	0.02606
2527.59808	0.02586
2526.63372	0.02566
2525.66935	0.02546
2524.70499	0.02527
2523.74062	0.02508
2522.77626	0.0249
2521.8119	0.02472
2520.84753	0.02455
2519.88317	0.02439
2518.9188	0.02423
2517.95444	0.02409
2516.99008	0.02395
2516.02571	0.02381
2515.06135	0.02367
2514.09698	0.02353
2513.13262	0.0234
2512.16826	0.02328
2511.20389	0.02315
2510.23953	0.02303
2509.27516	0.02292
2508.3108	0.0228
2507.34644	0.0227
2506.38207	0.02259
2505.41771	0.02249
2504.45334	0.02239
2503.48898	0.02229
2502.52462	0.0222
2501.56025	0.0221
2500.59589	0.022
2499.63152	0.0219
2498.66716	0.02181
2497.7028	0.02172
2496.73843	0.02164
2495.77407	0.02155
2494.8097	0.02147
2493.84534	0.02138
2492.88098	0.02128
2491.91661	0.02117
2490.95225	0.02106
2489.98788	0.02095
2489.02352	0.02085
2488.05916	0.02074
2487.09479	0.02064
2486.13043	0.02053
2485.16606	0.02042
2484.2017	0.02031
2483.23734	0.0202
2482.27297	0.02009
2481.30861	0.01997
2480.34424	0.01985
2479.37988	0.01973
2478.41552	0.01961
2477.45115	0.01948
2476.48679	0.01936
2475.52242	0.01924
2474.55806	0.01916
2473.5937	0.01908
2472.62933	0.01899
2471.66497	0.01889
2470.7006	0.01879
2469.73624	0.01869
2468.77187	0.01859
2467.80751	0.0185
2466.84315	0.01842
2465.87878	0.01833
2464.91442	0.01825
2463.95005	0.01817
2462.98569	0.01809
2462.02133	0.018
2461.05696	0.0179
2460.0926	0.01781
2459.12823	0.01773
2458.16387	0.01764
2457.19951	0.01755
2456.23514	0.01747
2455.27078	0.01739
2454.30641	0.01732
2453.34205	0.01724
2452.37769	0.01717
2451.41332	0.0171
2450.44896	0.01704
2449.48459	0.01698
2448.52023	0.01693
2447.55587	0.0169
2446.5915	0.01687
2445.62714	0.01685
2444.66277	0.01683
2443.69841	0.01682
2442.73405	0.01681
2441.76968	0.0168
2440.80532	0.01679
2439.84095	0.01677
2438.87659	0.01673
2437.91223	0.01669
2436.94786	0.01665
2435.9835	0.01659
2435.01913	0.01653
2434.05477	0.01646
2433.09041	0.01639
2432.12604	0.01633
2431.16168	0.01626
2430.19731	0.01618
2429.23295	0.01611
2428.26859	0.01605
2427.30422	0.016
2426.33986	0.01596
2425.37549	0.01592
2424.41113	0.01589
2423.44677	0.01588
2422.4824	0.01587
2421.51804	0.01587
2420.55367	0.01586
2419.58931	0.01587
2418.62495	0.01588
2417.66058	0.01589
2416.69622	0.01589
2415.73185	0.01589
2414.76749	0.01589
2413.80313	0.01589
2412.83876	0.01589
2411.8744	0.01589
2410.91003	0.01589
2409.94567	0.01589
2408.98131	0.01588
2408.01694	0.01588
2407.05258	0.01588
2406.08821	0.01588
2405.12385	0.01588
2404.15949	0.01588
2403.19512	0.01588
2402.23076	0.01588
2401.26639	0.01588
2400.30203	0.01588
2399.33767	0.01588
2398.3733	0.01588
2397.40894	0.01588
2396.44457	0.01587
2395.48021	0.01587
2394.51585	0.01587
2393.55148	0.01587
2392.58712	0.01587
2391.62275	0.01587
2390.65839	0.01587
2389.69403	0.01587
2388.72966	0.01587
2387.7653	0.01587
2386.80093	0.01587
2385.83657	0.01587
2384.87221	0.01586
2383.90784	0.01586
2382.94348	0.01586
2381.97911	0.01586
2381.01475	0.01586
2380.05039	0.01586
2379.08602	0.01586
2378.12166	0.01586
2377.15729	0.01586
2376.19293	0.01586
2375.22857	0.01586
2374.2642	0.01586
2373.29984	0.01585
2372.33547	0.01585
2371.37111	0.01585
2370.40675	0.01585
2369.44238	0.01585
2368.47802	0.01585
2367.51365	0.01585
2366.54929	0.01585
2365.58493	0.01585
2364.62056	0.01585
2363.6562	0.01585
2362.69183	0.01585
2361.72747	0.01585
2360.76311	0.01584
2359.79874	0.01584
2358.83438	0.01584
2357.87001	0.01584
2356.90565	0.01584
2355.94129	0.01584
2354.97692	0.01584
2354.01256	0.01584
2353.04819	0.01584
2352.08383	0.01584
2351.11947	0.01584
2350.1551	0.01584
2349.19074	0.01583
2348.22637	0.01583
2347.26201	0.01583
2346.29765	0.01583
2345.33328	0.01583
2344.36892	0.01583
2343.40455	0.01583
2342.44019	0.01583
2341.47583	0.01583
2340.51146	0.01583
2339.5471	0.01583
2338.58273	0.01583
2337.61837	0.01582
2336.65401	0.01582
2335.68964	0.01582
2334.72528	0.01582
2333.76091	0.01582
2332.79655	0.01582
2331.83219	0.01582
2330.86782	0.01582
2329.90346	0.01582
2328.93909	0.01582
2327.97473	0.01582
2327.01036	0.01582
2326.046	0.01582
2325.08164	0.01581
2324.11727	0.01581
2323.15291	0.01581
2322.18854	0.01581
2321.22418	0.01581
2320.25982	0.01581
2319.29545	0.01581
2318.33109	0.01581
2317.36672	0.01581
2316.40236	0.01579
2315.438	0.01578
2314.47363	0.01579
2313.50927	0.01581
2312.5449	0.01581
2311.58054	0.01582
2310.61618	0.01583
2309.65181	0.01585
2308.68745	0.01587
2307.72308	0.01588
2306.75872	0.01588
2305.79436	0.01588
2304.82999	0.01589
2303.86563	0.01589
2302.90126	0.01587
2301.9369	0.01582
2300.97254	0.01577
2300.00817	0.01572
2299.04381	0.01567
2298.07944	0.0156
2297.11508	0.01551
2296.15072	0.01541
2295.18635	0.01534
2294.22199	0.01526
2293.25762	0.01519
2292.29326	0.01513
2291.3289	0.01509
2290.36453	0.01506
2289.40017	0.01503
2288.4358	0.015
2287.47144	0.01497
2286.50708	0.01494
2285.54271	0.0149
2284.57835	0.01484
2283.61398	0.01477
2282.64962	0.01469
2281.68526	0.0146
2280.72089	0.01451
2279.75653	0.0144
2278.79216	0.01428
2277.8278	0.01415
2276.86344	0.01403
2275.89907	0.01391
2274.93471	0.01379
2273.97034	0.01367
2273.00598	0.01357
2272.04162	0.01349
2271.07725	0.01343
2270.11289	0.01339
2269.14852	0.01336
2268.18416	0.01335
2267.2198	0.01335
2266.25543	0.01337
2265.29107	0.01338
2264.3267	0.01339
2263.36234	0.0134
2262.39798	0.01342
2261.43361	0.01345
2260.46925	0.01346
2259.50488	0.01348
2258.54052	0.0135
2257.57616	0.01352
2256.61179	0.01354
2255.64743	0.01356
2254.68306	0.01356
2253.7187	0.01357
2252.75434	0.01359
2251.78997	0.0136
2250.82561	0.0136
2249.86124	0.01359
2248.89688	0.01359
2247.93252	0.0136
2246.96815	0.01361
2246.00379	0.01362
2245.03942	0.01362
2244.07506	0.01364
2243.1107	0.01366
2242.14633	0.01368
2241.18197	0.0137
2240.2176	0.01372
2239.25324	0.01374
2238.28888	0.01377
2237.32451	0.0138
2236.36015	0.01382
2235.39578	0.01385
2234.43142	0.01389
2233.46706	0.01393
2232.50269	0.01398
2231.53833	0.01402
2230.57396	0.01406
2229.6096	0.01409
2228.64524	0.01412
2227.68087	0.01416
2226.71651	0.01419
2225.75214	0.01421
2224.78778	0.01423
2223.82342	0.01426
2222.85905	0.01429
2221.89469	0.01431
2220.93032	0.01433
2219.96596	0.01435
2219.0016	0.01437
2218.03723	0.01438
2217.07287	0.01438
2216.1085	0.01438
2215.14414	0.01438
2214.17978	0.01439
2213.21541	0.01441
2212.25105	0.01442
2211.28668	0.01443
2210.32232	0.01445
2209.35796	0.01447
2208.39359	0.0145
2207.42923	0.01452
2206.46486	0.01455
2205.5005	0.01458
2204.53614	0.01462
2203.57177	0.01467
2202.60741	0.01473
2201.64304	0.01479
2200.67868	0.01486
2199.71432	0.01493
2198.74995	0.01501
2197.78559	0.01509
2196.82122	0.01517
2195.85686	0.01525
2194.8925	0.01534
2193.92813	0.01543
2192.96377	0.01552
2191.9994	0.01561
2191.03504	0.0157
2190.07068	0.01578
2189.10631	0.01586
2188.14195	0.01594
2187.17758	0.016
2186.21322	0.01607
2185.24885	0.01613
2184.28449	0.01619
2183.32013	0.01624
2182.35576	0.01628
2181.3914	0.01632
2180.42703	0.01636
2179.46267	0.0164
2178.49831	0.01643
2177.53394	0.01646
2176.56958	0.01649
2175.60521	0.01652
2174.64085	0.01655
2173.67649	0.01658
2172.71212	0.0166
2171.74776	0.01662
2170.78339	0.01666
2169.81903	0.0167
2168.85467	0.01674
2167.8903	0.01677
2166.92594	0.0168
2165.96157	0.01683
2164.99721	0.01687
2164.03285	0.01689
2163.06848	0.0169
2162.10412	0.01691
2161.13975	0.01692
2160.17539	0.01692
2159.21103	0.0169
2158.24666	0.01689
2157.2823	0.01687
2156.31793	0.01686
2155.35357	0.01685
2154.38921	0.01684
2153.42484	0.01682
2152.46048	0.01679
2151.49611	0.01677
2150.53175	0.01674
2149.56739	0.01671
2148.60302	0.01669
2147.63866	0.01667
2146.67429	0.01666
2145.70993	0.01666
2144.74557	0.01667
2143.7812	0.01669
2142.81684	0.01671
2141.85247	0.01673
2140.88811	0.01674
2139.92375	0.01674
2138.95938	0.01673
2137.99502	0.01671
2137.03065	0.01668
2136.06629	0.01665
2135.10193	0.01662
2134.13756	0.01658
2133.1732	0.01654
2132.20883	0.0165
2131.24447	0.01646
2130.28011	0.01641
2129.31574	0.01634
2128.35138	0.01626
2127.38701	0.01617
2126.42265	0.01608
2125.45829	0.01599
2124.49392	0.01593
2123.52956	0.01591
2122.56519	0.01591
2121.60083	0.0159
2120.63647	0.01589
2119.6721	0.01586
2118.70774	0.01583
2117.74337	0.01581
2116.77901	0.01579
2115.81465	0.01576
2114.85028	0.01573
2113.88592	0.01571
2112.92155	0.01569
2111.95719	0.01568
2110.99283	0.01566
2110.02846	0.01564
2109.0641	0.01563
2108.09973	0.01562
2107.13537	0.0156
2106.17101	0.01557
2105.20664	0.01554
2104.24228	0.01552
2103.27791	0.01551
2102.31355	0.0155
2101.34919	0.01549
2100.38482	0.01549
2099.42046	0.01552
2098.45609	0.01559
2097.49173	0.01567
2096.52737	0.01577
2095.563	0.01586
2094.59864	0.01595
2093.63427	0.01603
2092.66991	0.0161
2091.70555	0.01615
2090.74118	0.01619
2089.77682	0.01623
2088.81245	0.01626
2087.84809	0.01629
2086.88373	0.0163
2085.91936	0.01629
2084.955	0.01627
2083.99063	0.01625
2083.02627	0.01623
2082.06191	0.01619
2081.09754	0.01615
2080.13318	0.0161
2079.16881	0.01605
2078.20445	0.01599
2077.24009	0.01594
2076.27572	0.01589
2075.31136	0.01588
2074.34699	0.016
2073.38263	0.01619
2072.41827	0.01637
2071.4539	0.01652
2070.48954	0.01667
2069.52517	0.01681
2068.56081	0.01694
2067.59645	0.01705
2066.63208	0.01714
2065.66772	0.01721
2064.70335	0.01726
2063.73899	0.01727
2062.77463	0.01725
2061.81026	0.01722
2060.8459	0.01717
2059.88153	0.01711
2058.91717	0.01702
2057.95281	0.01689
2056.98844	0.01674
2056.02408	0.01658
2055.05971	0.01639
2054.09535	0.01619
2053.13099	0.01602
2052.16662	0.01595
2051.20226	0.01605
2050.23789	0.01622
2049.27353	0.01636
2048.30917	0.01648
2047.3448	0.0166
2046.38044	0.01672
2045.41607	0.0168
2044.45171	0.01685
2043.48734	0.01687
2042.52298	0.01686
2041.55862	0.01682
2040.59425	0.01676
2039.62989	0.01666
2038.66552	0.01654
2037.70116	0.0164
2036.7368	0.01625
2035.77243	0.01608
2034.80807	0.01588
2033.8437	0.01565
2032.87934	0.01544
2031.91498	0.01523
2030.95061	0.01501
2029.98625	0.01475
2029.02188	0.01452
2028.05752	0.01441
2027.09316	0.01446
2026.12879	0.01467
2025.16443	0.01496
2024.20006	0.01523
2023.2357	0.01547
2022.27134	0.01567
2021.30697	0.01582
2020.34261	0.01592
2019.37824	0.01597
2018.41388	0.01599
2017.44952	0.01601
2016.48515	0.01601
2015.52079	0.01598
2014.55642	0.0159
2013.59206	0.01578
2012.6277	0.01563
2011.66333	0.01544
2010.69897	0.0152
2009.7346	0.01493
2008.77024	0.01464
2007.80588	0.01434
2006.84151	0.01404
2005.87715	0.01381
2004.91278	0.01365
2003.94842	0.01352
2002.98406	0.01339
2002.01969	0.01345
2001.05533	0.01374
2000.09096	0.01406
1999.1266	0.01436
1998.16224	0.01475
1997.19787	0.01522
1996.23351	0.0157
1995.26914	0.01615
1994.30478	0.01655
1993.34042	0.01688
1992.37605	0.01713
1991.41169	0.01731
1990.44732	0.01741
1989.48296	0.01744
1988.5186	0.01739
1987.55423	0.01727
1986.58987	0.01709
1985.6255	0.01686
1984.66114	0.01656
1983.69678	0.01619
1982.73241	0.01574
1981.76805	0.01521
1980.80368	0.0147
1979.83932	0.01437
1978.87496	0.01425
1977.91059	0.01415
1976.94623	0.01416
1975.98186	0.01447
1975.0175	0.01505
1974.05314	0.01564
1973.08877	0.0161
1972.12441	0.01645
1971.16004	0.01675
1970.19568	0.01703
1969.23132	0.01728
1968.26695	0.01746
1967.30259	0.01755
1966.33822	0.01754
1965.37386	0.01752
1964.4095	0.01753
1963.44513	0.01755
1962.48077	0.01752
1961.5164	0.01742
1960.55204	0.01727
1959.58768	0.01706
1958.62331	0.01674
1957.65895	0.01628
1956.69458	0.01573
1955.73022	0.0153
1954.76586	0.01509
1953.80149	0.01503
1952.83713	0.01514
1951.87276	0.01559
1950.9084	0.01624
1949.94404	0.01686
1948.97967	0.0174
1948.01531	0.01786
1947.05094	0.0182
1946.08658	0.01841
1945.12222	0.01851
1944.15785	0.01849
1943.19349	0.01843
1942.22912	0.01839
1941.26476	0.01833
1940.3004	0.01818
1939.33603	0.01791
1938.37167	0.01752
1937.4073	0.01703
1936.44294	0.01644
1935.47858	0.01568
1934.51421	0.01464
1933.54985	0.01361
1932.58548	0.01308
1931.62112	0.01306
1930.65676	0.01329
1929.69239	0.01378
1928.72803	0.01448
1927.76366	0.01535
1926.7993	0.01635
1925.83494	0.01733
1924.87057	0.0182
1923.90621	0.01894
1922.94184	0.01951
1921.97748	0.01986
1921.01312	0.01998
1920.04875	0.02008
1919.08439	0.02026
1918.12002	0.0205
1917.15566	0.02078
1916.1913	0.02096
1915.22693	0.02096
1914.26257	0.02077
1913.2982	0.02041
1912.33384	0.0199
1911.36948	0.01939
1910.40511	0.01917
1909.44075	0.0193
1908.47638	0.01937
1907.51202	0.01906
1906.54766	0.01853
1905.58329	0.01828
1904.61893	0.01864
1903.65456	0.01916
1902.6902	0.01946
1901.72583	0.01946
1900.76147	0.01915
1899.79711	0.01888
1898.83274	0.01901
1897.86838	0.0195
1896.90401	0.02022
1895.93965	0.02101
1894.97529	0.02178
1894.01092	0.02253
1893.04656	0.02315
1892.08219	0.02363
1891.11783	0.02397
1890.15347	0.02416
1889.1891	0.02424
1888.22474	0.02423
1887.26037	0.02409
1886.29601	0.0238
1885.33165	0.02338
1884.36728	0.02285
1883.40292	0.02232
1882.43855	0.02186
1881.47419	0.02132
1880.50983	0.02042
1879.54546	0.01936
1878.5811	0.01887
1877.61673	0.01936
1876.65237	0.02087
1875.68801	0.02294
1874.72364	0.02487
1873.75928	0.02647
1872.79491	0.02784
1871.83055	0.02909
1870.86619	0.03023
1869.90182	0.03115
1868.93746	0.03185
1867.97309	0.03242
1867.00873	0.03284
1866.04437	0.03306
1865.08	0.03306
1864.11564	0.0328
1863.15127	0.03229
1862.18691	0.03152
1861.22255	0.03049
1860.25818	0.02915
1859.29382	0.02749
1858.32945	0.02582
1857.36509	0.02462
1856.40073	0.02415
1855.43636	0.0244
1854.472	0.02536
1853.50763	0.0271
1852.54327	0.02919
1851.57891	0.03128
1850.61454	0.03324
1849.65018	0.03498
1848.68581	0.03649
1847.72145	0.03785
1846.75709	0.03927
1845.79272	0.04074
1844.82836	0.0421
1843.86399	0.0432
1842.89963	0.04398
1841.93527	0.0443
1840.9709	0.04401
1840.00654	0.04376
1839.04217	0.04428
1838.07781	0.04511
1837.11345	0.04567
1836.14908	0.04591
1835.18472	0.0465
1834.22035	0.04762
1833.25599	0.04894
1832.29163	0.05053
1831.32726	0.05277
1830.3629	0.05537
1829.39853	0.05761
1828.43417	0.05938
1827.46981	0.06083
1826.50544	0.06215
1825.54108	0.06343
1824.57671	0.06474
1823.61235	0.066
1822.64799	0.06703
1821.68362	0.06794
1820.71926	0.06924
1819.75489	0.07117
1818.79053	0.07369
1817.82617	0.07719
1816.8618	0.08237
1815.89744	0.08884
1814.93307	0.09548
1813.96871	0.10197
1813.00435	0.10858
1812.03998	0.11572
1811.07562	0.12302
1810.11125	0.13006
1809.14689	0.13681
1808.18253	0.14289
1807.21816	0.14793
1806.2538	0.15208
1805.28943	0.15561
1804.32507	0.15828
1803.36071	0.15973
1802.39634	0.16042
1801.43198	0.1611
1800.46761	0.16187
1799.50325	0.16261
1798.53889	0.16339
1797.57452	0.1643
1796.61016	0.16521
1795.64579	0.1661
1794.68143	0.16748
1793.71707	0.1694
1792.7527	0.17142
1791.78834	0.17328
1790.82397	0.17519
1789.85961	0.17759
1788.89525	0.18047
1787.93088	0.18345
1786.96652	0.18617
1786.00215	0.18854
1785.03779	0.19049
1784.07343	0.19193
1783.10906	0.19303
1782.1447	0.19488
1781.18033	0.19775
1780.21597	0.20121
1779.25161	0.20537
1778.28724	0.21021
1777.32288	0.21498
1776.35851	0.21894
1775.39415	0.22177
1774.42979	0.22338
1773.46542	0.22374
1772.50106	0.22325
1771.53669	0.22271
1770.57233	0.22188
1769.60797	0.22021
1768.6436	0.21773
1767.67924	0.21488
1766.71487	0.21207
1765.75051	0.20911
1764.78615	0.20565
1763.82178	0.20176
1762.85742	0.19786
1761.89305	0.19447
1760.92869	0.19238
1759.96432	0.19236
1758.99996	0.19523
1758.0356	0.2003
1757.07123	0.20618
1756.10687	0.21227
1755.1425	0.21812
1754.17814	0.22326
1753.21378	0.22757
1752.24941	0.23063
1751.28505	0.23192
1750.32068	0.23171
1749.35632	0.23095
1748.39196	0.22963
1747.42759	0.22672
1746.46323	0.22166
1745.49886	0.2144
1744.5345	0.20606
1743.57014	0.19892
1742.60577	0.19215
1741.64141	0.18481
1740.67704	0.1773
1739.71268	0.17061
1738.74832	0.16514
1737.78395	0.16076
1736.81959	0.15698
1735.85522	0.15353
1734.89086	0.15009
1733.9265	0.14623
1732.96213	0.14186
1731.99777	0.1371
1731.0334	0.13217
1730.06904	0.12688
1729.10468	0.12032
1728.14031	0.11346
1727.17595	0.10827
1726.21158	0.10449
1725.24722	0.1014
1724.28286	0.09917
1723.31849	0.09774
1722.35413	0.09711
1721.38976	0.09804
1720.4254	0.10096
1719.46104	0.1041
1718.49667	0.10722
1717.53231	0.1106
1716.56794	0.11464
1715.60358	0.11936
1714.63922	0.12465
1713.67485	0.1302
1712.71049	0.13552
1711.74612	0.14013
1710.78176	0.1438
1709.8174	0.14796
1708.85303	0.15218
1707.88867	0.15582
1706.9243	0.15885
1705.95994	0.16271
1704.99558	0.16888
1704.03121	0.17665
1703.06685	0.18429
1702.10248	0.19156
1701.13812	0.19829
1700.17376	0.20407
1699.20939	0.20911
1698.24503	0.21382
1697.28066	0.21818
1696.3163	0.22157
1695.35194	0.22322
1694.38757	0.22558
1693.42321	0.22985
1692.45884	0.23413
1691.49448	0.23698
1690.53012	0.23805
1689.56575	0.23751
1688.60139	0.23517
1687.63702	0.23128
1686.67266	0.22672
1685.7083	0.22098
1684.74393	0.21466
1683.77957	0.20801
1682.8152	0.20137
1681.85084	0.19421
1680.88648	0.18616
1679.92211	0.1777
1678.95775	0.17001
1677.99338	0.16348
1677.02902	0.15788
1676.06466	0.15285
1675.10029	0.14779
1674.13593	0.14223
1673.17156	0.13675
1672.2072	0.13293
1671.24284	0.13203
1670.27847	0.13178
1669.31411	0.13016
1668.34974	0.12787
1667.38538	0.12542
1666.42102	0.12248
1665.45665	0.11827
1664.49229	0.1126
1663.52792	0.10823
1662.56356	0.10723
1661.5992	0.1075
1660.63483	0.10746
1659.67047	0.10668
1658.7061	0.10526
1657.74174	0.10407
1656.77738	0.10491
1655.81301	0.10788
1654.84865	0.111
1653.88428	0.11306
1652.91992	0.11394
1651.95556	0.11385
1650.99119	0.11312
1650.02683	0.11212
1649.06246	0.11067
1648.0981	0.10795
1647.13374	0.10398
1646.16937	0.09966
1645.20501	0.09615
1644.24064	0.09304
1643.27628	0.08987
1642.31192	0.08669
1641.34755	0.08417
1640.38319	0.08367
1639.41882	0.08359
1638.45446	0.0818
1637.4901	0.07952
1636.52573	0.07705
1635.56137	0.07467
1634.597	0.07318
1633.63264	0.07345
1632.66828	0.07468
1631.70391	0.07553
1630.73955	0.07574
1629.77518	0.07529
1628.81082	0.07412
1627.84646	0.07215
1626.88209	0.07027
1625.91773	0.06933
1624.95336	0.06927
1623.989	0.07022
1623.02464	0.0723
1622.06027	0.07494
1621.09591	0.0767
1620.13154	0.07754
1619.16718	0.07793
1618.20281	0.07805
1617.23845	0.07805
1616.27409	0.07812
1615.30972	0.07844
1614.34536	0.07889
1613.38099	0.0791
1612.41663	0.07908
1611.45227	0.07928
1610.4879	0.08026
1609.52354	0.0817
1608.55917	0.08255
1607.59481	0.0826
1606.63045	0.08209
1605.66608	0.08139
1604.70172	0.08114
1603.73735	0.08197
1602.77299	0.08323
1601.80863	0.08387
1600.84426	0.08393
1599.8799	0.08366
1598.91553	0.0832
1597.95117	0.08264
1596.98681	0.08222
1596.02244	0.08209
1595.05808	0.08216
1594.09371	0.08235
1593.12935	0.08257
1592.16499	0.08273
1591.20062	0.08295
1590.23626	0.08338
1589.27189	0.08384
1588.30753	0.08403
1587.34317	0.08388
1586.3788	0.08441
1585.41444	0.08633
1584.45007	0.08905
1583.48571	0.0921
1582.52135	0.09523
1581.55698	0.09818
1580.59262	0.10054
1579.62825	0.10308
1578.66389	0.10667
1577.69953	0.11082
1576.73516	0.11491
1575.7708	0.11873
1574.80643	0.12268
1573.84207	0.12687
1572.87771	0.13092
1571.91334	0.13441
1570.94898	0.13675
1569.98461	0.13693
1569.02025	0.13874
1568.05589	0.14394
1567.09152	0.15002
1566.12716	0.1559
1565.16279	0.16155
1564.19843	0.16791
1563.23407	0.17534
1562.2697	0.18239
1561.30534	0.18746
1560.34097	0.19099
1559.37661	0.19378
1558.41225	0.1956
1557.44788	0.19626
1556.48352	0.19612
1555.51915	0.19483
1554.55479	0.19219
1553.59043	0.18864
1552.62606	0.18459
1551.6617	0.1804
1550.69733	0.17579
1549.73297	0.17233
1548.76861	0.17053
1547.80424	0.16926
1546.83988	0.16886
1545.87551	0.17163
1544.91115	0.17473
1543.94679	0.17578
1542.98242	0.17681
1542.01806	0.17839
1541.05369	0.18017
1540.08933	0.18083
1539.12497	0.17978
1538.1606	0.17781
1537.19624	0.17594
1536.23187	0.17396
1535.26751	0.17119
1534.30315	0.16757
1533.33878	0.1631
1532.37442	0.15835
1531.41005	0.15564
1530.44569	0.15534
1529.48133	0.15619
1528.51696	0.15758
1527.5526	0.15985
1526.58823	0.16489
1525.62387	0.17084
1524.65951	0.17552
1523.69514	0.17881
1522.73078	0.18097
1521.76641	0.18267
1520.80205	0.18446
1519.83769	0.18607
1518.87332	0.18656
1517.90896	0.18577
1516.94459	0.18601
1515.98023	0.18912
1515.01587	0.1938
1514.0515	0.19894
1513.08714	0.20372
1512.12277	0.20802
1511.15841	0.21166
1510.19405	0.21453
1509.22968	0.21742
1508.26532	0.22173
1507.30095	0.22614
1506.33659	0.22965
1505.37223	0.23331
1504.40786	0.23788
1503.4435	0.24352
1502.47913	0.24854
1501.51477	0.25177
1500.55041	0.25389
1499.58604	0.25636
1498.62168	0.25905
1497.65731	0.26141
1496.69295	0.26361
1495.72859	0.2662
1494.76422	0.2697
1493.79986	0.27484
1492.83549	0.27981
1491.87113	0.2824
1490.90677	0.28351
1489.9424	0.28364
1488.97804	0.28287
1488.01367	0.28105
1487.04931	0.27818
1486.08495	0.27511
1485.12058	0.27239
1484.15622	0.26967
1483.19185	0.26757
1482.22749	0.26752
1481.26312	0.26881
1480.29876	0.27052
1479.3344	0.27233
1478.37003	0.27448
1477.40567	0.27765
1476.4413	0.28162
1475.47694	0.28538
1474.51258	0.28946
1473.54821	0.29386
1472.58385	0.29788
1471.61948	0.30116
1470.65512	0.30361
1469.69076	0.30527
1468.72639	0.30668
1467.76203	0.30909
1466.79766	0.31315
1465.8333	0.31813
1464.86894	0.32325
1463.90457	0.32802
1462.94021	0.33224
1461.97584	0.3357
1461.01148	0.33835
1460.04712	0.34068
1459.08275	0.34283
1458.11839	0.34374
1457.15402	0.34314
1456.18966	0.34103
1455.2253	0.33749
1454.26093	0.33266
1453.29657	0.32682
1452.3322	0.32051
1451.36784	0.31401
1450.40348	0.30663
1449.43911	0.29807
1448.47475	0.28848
1447.51038	0.27836
1446.54602	0.26947
1445.58166	0.26316
1444.61729	0.25973
1443.65293	0.25831
1442.68856	0.25743
1441.7242	0.25651
1440.75984	0.2554
1439.79547	0.25464
1438.83111	0.25453
1437.86674	0.25474
1436.90238	0.25493
1435.93802	0.25514
1434.97365	0.25559
1434.00929	0.25652
1433.04492	0.25781
1432.08056	0.25902
1431.1162	0.25969
1430.15183	0.25967
1429.18747	0.25973
1428.2231	0.2605
1427.25874	0.26177
1426.29438	0.26331
1425.33001	0.26499
1424.36565	0.26694
1423.40128	0.26951
1422.43692	0.27194
1421.47256	0.27377
1420.50819	0.2752
1419.54383	0.2764
1418.57946	0.27734
1417.6151	0.27803
1416.65074	0.27844
1415.68637	0.27838
1414.72201	0.27803
1413.75764	0.27744
1412.79328	0.27644
1411.82892	0.27511
1410.86455	0.27361
1409.90019	0.27164
1408.93582	0.26932
1407.97146	0.2673
1407.0071	0.26595
1406.04273	0.26578
1405.07837	0.26702
1404.114	0.26939
1403.14964	0.27222
1402.18528	0.27487
1401.22091	0.27711
1400.25655	0.27901
1399.29218	0.28057
1398.32782	0.2818
1397.36346	0.28312
1396.39909	0.28475
1395.43473	0.28629
1394.47036	0.28738
1393.506	0.28798
1392.54164	0.28838
1391.57727	0.28864
1390.61291	0.28834
1389.64854	0.2873
1388.68418	0.28577
1387.71982	0.28405
1386.75545	0.2824
1385.79109	0.28117
1384.82672	0.28061
1383.86236	0.28107
1382.898	0.28282
1381.93363	0.28588
1380.96927	0.28952
1380.0049	0.29296
1379.04054	0.29635
1378.07618	0.30007
1377.11181	0.30397
1376.14745	0.30779
1375.18308	0.31154
1374.21872	0.31534
1373.25436	0.31916
1372.28999	0.3228
1371.32563	0.32611
1370.36126	0.32887
1369.3969	0.3308
1368.43254	0.33175
1367.46817	0.33169
1366.50381	0.33069
1365.53944	0.32888
1364.57508	0.32641
1363.61072	0.32333
1362.64635	0.3199
1361.68199	0.31662
1360.71762	0.31363
1359.75326	0.31045
1358.7889	0.30694
1357.82453	0.30325
1356.86017	0.2997
1355.8958	0.29656
1354.93144	0.29372
1353.96708	0.29085
1353.00271	0.28782
1352.03835	0.28466
1351.07398	0.28174
1350.10962	0.27998
1349.14526	0.27977
1348.18089	0.28045
1347.21653	0.28148
1346.25216	0.28276
1345.2878	0.28423
1344.32344	0.28579
1343.35907	0.28736
1342.39471	0.28908
1341.43034	0.29097
1340.46598	0.29283
1339.50161	0.29453
1338.53725	0.29605
1337.57289	0.29746
1336.60852	0.2988
1335.64416	0.29997
1334.67979	0.30078
1333.71543	0.30118
1332.75107	0.30121
1331.7867	0.30081
1330.82234	0.29994
1329.85797	0.29865
1328.89361	0.29726
1327.92925	0.29624
1326.96488	0.29607
1326.00052	0.29652
1325.03615	0.29689
1324.07179	0.29694
1323.10743	0.29685
1322.14306	0.29667
1321.1787	0.29624
1320.21433	0.29547
1319.24997	0.29437
1318.28561	0.29307
1317.32124	0.29165
1316.35688	0.29007
1315.39251	0.28828
1314.42815	0.2863
1313.46379	0.28418
1312.49942	0.28196
1311.53506	0.27966
1310.57069	0.27732
1309.60633	0.27498
1308.64197	0.27275
1307.6776	0.2708
1306.71324	0.26934
1305.74887	0.26841
1304.78451	0.2679
1303.82015	0.26775
1302.85578	0.26791
1301.89142	0.26832
1300.92705	0.26904
1299.96269	0.27011
1298.99833	0.27142
1298.03396	0.27285
1297.0696	0.27432
1296.10523	0.2758
1295.14087	0.27722
1294.17651	0.27851
1293.21214	0.27957
1292.24778	0.2803
1291.28341	0.28065
1290.31905	0.28063
1289.35469	0.28029
1288.39032	0.27963
1287.42596	0.27856
1286.46159	0.27705
1285.49723	0.27513
1284.53287	0.27287
1283.5685	0.27028
1282.60414	0.26735
1281.63977	0.26411
1280.67541	0.26068
1279.71105	0.25717
1278.74668	0.25365
1277.78232	0.25013
1276.81795	0.24664
1275.85359	0.2433
1274.88923	0.24025
1273.92486	0.23751
1272.9605	0.23495
1271.99613	0.23257
1271.03177	0.23049
1270.06741	0.2289
1269.10304	0.22784
1268.13868	0.22723
1267.17431	0.22704
1266.20995	0.22729
1265.24559	0.22798
1264.28122	0.22914
1263.31686	0.23073
1262.35249	0.23275
1261.38813	0.23523
1260.42377	0.23824
1259.4594	0.24183
1258.49504	0.24593
1257.53067	0.25041
1256.56631	0.25517
1255.60195	0.26013
1254.63758	0.26516
1253.67322	0.27015
1252.70885	0.27497
1251.74449	0.27954
1250.78013	0.28383
1249.81576	0.28771
1248.8514	0.29107
1247.88703	0.29383
1246.92267	0.29594
1245.95831	0.29731
1244.99394	0.29783
1244.02958	0.29746
1243.06521	0.29623
1242.10085	0.29424
1241.13649	0.29164
1240.17212	0.28853
1239.20776	0.28494
1238.24339	0.28091
1237.27903	0.27656
1236.31467	0.272
1235.3503	0.26727
1234.38594	0.26239
1233.42157	0.25737
1232.45721	0.25234
1231.49285	0.24749
1230.52848	0.24291
1229.56412	0.23861
1228.59975	0.23466
1227.63539	0.2312
1226.67103	0.22832
1225.70666	0.22601
1224.7423	0.22419
1223.77793	0.22286
1222.81357	0.22213
1221.84921	0.22208
1220.88484	0.22272
1219.92048	0.22397
1218.95611	0.22581
1217.99175	0.22831
1217.02739	0.23146
1216.06302	0.23517
1215.09866	0.23932
1214.13429	0.24381
1213.16993	0.24871
1212.20557	0.25404
1211.2412	0.25975
1210.27684	0.26571
1209.31247	0.27184
1208.34811	0.27812
1207.38375	0.28443
1206.41938	0.29053
1205.45502	0.29615
1204.49065	0.30112
1203.52629	0.30535
1202.56193	0.30883
1201.59756	0.31151
1200.6332	0.31337
1199.66883	0.31451
1198.70447	0.31507
1197.7401	0.31521
1196.77574	0.31504
1195.81138	0.31468
1194.84701	0.31431
1193.88265	0.31416
1192.91828	0.31442
1191.95392	0.31524
1190.98956	0.31674
1190.02519	0.31911
1189.06083	0.32254
1188.09646	0.32711
1187.1321	0.33277
1186.16774	0.33937
1185.20337	0.34681
1184.23901	0.35506
1183.27464	0.36403
1182.31028	0.37361
1181.34592	0.3837
1180.38155	0.39432
1179.41719	0.40555
1178.45282	0.41745
1177.48846	0.43
1176.5241	0.44315
1175.55973	0.45694
1174.59537	0.47144
1173.631	0.48669
1172.66664	0.50262
1171.70228	0.51918
1170.73791	0.53636
1169.77355	0.55417
1168.80918	0.5725
1167.84482	0.59111
1166.88046	0.60975
1165.91609	0.62817
1164.95173	0.64617
1163.98736	0.66349
1163.023	0.67983
1162.05864	0.69497
1161.09427	0.70872
1160.12991	0.72089
1159.16554	0.73126
1158.20118	0.73959
1157.23682	0.74571
1156.27245	0.74952
1155.30809	0.75101
1154.34372	0.75021
1153.37936	0.74711
1152.415	0.74175
1151.45063	0.73434
1150.48627	0.72515
1149.5219	0.71448
1148.55754	0.70262
1147.59318	0.68987
1146.62881	0.67658
1145.66445	0.66321
1144.70008	0.65018
1143.73572	0.63788
1142.77136	0.62663
1141.80699	0.61675
1140.84263	0.60849
1139.87826	0.60198
1138.9139	0.59726
1137.94954	0.59427
1136.98517	0.59301
1136.02081	0.59344
1135.05644	0.5954
1134.09208	0.59865
1133.12772	0.60289
1132.16335	0.60788
1131.19899	0.6134
1130.23462	0.61922
1129.27026	0.62511
1128.3059	0.63096
1127.34153	0.63682
1126.37717	0.64278
1125.4128	0.64898
1124.44844	0.65553
1123.48408	0.66255
1122.51971	0.67016
1121.55535	0.6784
1120.59098	0.68714
1119.62662	0.6961
1118.66226	0.70493
1117.69789	0.71337
1116.73353	0.72121
1115.76916	0.72824
1114.8048	0.73425
1113.84044	0.73907
1112.87607	0.74256
1111.91171	0.74464
1110.94734	0.74517
1109.98298	0.74406
1109.01862	0.74132
1108.05425	0.73713
1107.08989	0.73174
1106.12552	0.72545
1105.16116	0.71857
1104.1968	0.71147
1103.23243	0.70455
1102.26807	0.6982
1101.3037	0.69265
1100.33934	0.68802
1099.37498	0.68438
1098.41061	0.68183
1097.44625	0.68039
1096.48188	0.68005
1095.51752	0.68074
1094.55316	0.68246
1093.58879	0.68521
1092.62443	0.68901
1091.66006	0.69379
1090.6957	0.6994
1089.73134	0.70566
1088.76697	0.71243
1087.80261	0.71949
1086.83824	0.72655
1085.87388	0.73326
1084.90952	0.73932
1083.94515	0.74447
1082.98079	0.74848
1082.01642	0.75111
1081.05206	0.75223
1080.0877	0.75182
1079.12333	0.75001
1078.15897	0.74702
1077.1946	0.74309
1076.23024	0.73856
1075.26588	0.73382
1074.30151	0.72932
1073.33715	0.72544
1072.37278	0.72245
1071.40842	0.72062
1070.44406	0.7202
1069.47969	0.7214
1068.51533	0.72432
1067.55096	0.72888
1066.5866	0.73494
1065.62224	0.74231
1064.65787	0.75082
1063.69351	0.76017
1062.72914	0.77003
1061.76478	0.78004
1060.80042	0.78992
1059.83605	0.79953
1058.87169	0.80875
1057.90732	0.81744
1056.94296	0.82554
1055.97859	0.83313
1055.01423	0.84033
1054.04987	0.84727
1053.0855	0.854
1052.12114	0.86058
1051.15677	0.86709
1050.19241	0.87359
1049.22805	0.88011
1048.26368	0.88664
1047.29932	0.89318
1046.33495	0.89974
1045.37059	0.90633
1044.40623	0.91294
1043.44186	0.91955
1042.4775	0.92617
1041.51313	0.93285
1040.54877	0.93965
1039.58441	0.94654
1038.62004	0.95343
1037.65568	0.96023
1036.69131	0.96689
1035.72695	0.97332
1034.76259	0.97936
1033.79822	0.98487
1032.83386	0.98977
1031.86949	0.99394
1030.90513	0.99719
1029.94077	0.9993
1028.9764	1
1028.01204	0.9991
1027.04767	0.99652
1026.08331	0.99222
1025.11895	0.98614
1024.15458	0.97829
1023.19022	0.96878
1022.22585	0.95785
1021.26149	0.94584
1020.29713	0.933
1019.33276	0.91955
1018.3684	0.90577
1017.40403	0.89195
1016.43967	0.87835
1015.47531	0.86512
1014.51094	0.85237
1013.54658	0.84019
1012.58221	0.82877
1011.61785	0.81819
1010.65349	0.80849
1009.68912	0.79958
1008.72476	0.79135
1007.76039	0.78373
1006.79603	0.77663
1005.83167	0.76993
1004.8673	0.76345
1003.90294	0.75713
1002.93857	0.75093
1001.97421	0.7448
1001.00985	0.73865
1000.04548	0.73238
999.08112	0.72593
998.11675	0.71931
997.15239	0.71244
996.18803	0.7052
995.22366	0.69749
994.2593	0.68933
993.29493	0.6808
992.33057	0.67199
991.36621	0.66296
990.40184	0.65373
989.43748	0.6444
988.47311	0.63504
987.50875	0.62561
986.54439	0.61597
985.58002	0.60596
984.61566	0.5955
983.65129	0.58458
982.68693	0.57315
981.72257	0.56113
980.7582	0.54847
979.79384	0.5352
978.82947	0.52142
977.86511	0.50717
976.90075	0.49242
975.93638	0.4771
974.97202	0.4612
974.00765	0.44479
973.04329	0.42796
972.07893	0.41077
971.11456	0.39336
970.1502	0.37599
969.18583	0.35896
968.22147	0.34255
967.25711	0.32691
966.29274	0.31212
965.32838	0.29834
964.36401	0.28578
963.39965	0.27461
962.43529	0.26495
961.47092	0.25691
960.50656	0.2506
959.54219	0.24615
958.57783	0.24348
957.61347	0.24239
956.6491	0.24263
955.68474	0.24397
954.72037	0.2462
953.75601	0.24901
952.79165	0.25202
951.82728	0.25491
950.86292	0.25747
949.89855	0.25957
948.93419	0.26105
947.96983	0.26169
947.00546	0.26135
946.0411	0.26002
945.07673	0.25782
944.11237	0.25484
943.14801	0.25116
942.18364	0.2469
941.21928	0.24233
940.25491	0.23776
939.29055	0.2334
938.32619	0.22933
937.36182	0.22555
936.39746	0.22208
935.43309	0.21897
934.46873	0.21615
933.50437	0.21345
932.54	0.21077
931.57564	0.20813
930.61127	0.20559
929.64691	0.20312
928.68255	0.20054
927.71818	0.19776
926.75382	0.19475
925.78945	0.19155
924.82509	0.18809
923.86073	0.18422
922.89636	0.17986
921.932	0.17507
920.96763	0.16997
920.00327	0.16456
919.03891	0.15882
918.07454	0.15275
917.11018	0.14654
916.14581	0.14039
915.18145	0.1344
914.21708	0.12857
913.25272	0.12291
912.28836	0.11753
911.32399	0.11255
910.35963	0.10797
909.39526	0.1037
908.4309	0.09969
907.46654	0.09594
906.50217	0.09249
905.53781	0.0893
904.57344	0.08626
903.60908	0.08329
902.64472	0.08046
901.68035	0.07785
900.71599	0.07543
899.75162	0.0731
898.78726	0.07083
897.8229	0.06869
896.85853	0.0667
895.89417	0.06481
894.9298	0.06287
893.96544	0.06085
893.00108	0.05885
892.03671	0.05693
891.07235	0.05507
890.10798	0.05317
889.14362	0.05122
888.17926	0.04932
887.21489	0.04758
886.25053	0.04597
885.28616	0.04441
884.3218	0.04292
883.35744	0.04163
882.39307	0.04063
881.42871	0.03993
880.46434	0.03947
879.49998	0.03929
878.53562	0.03956
877.57125	0.04045
876.60689	0.04199
875.64252	0.04414
874.67816	0.04691
873.7138	0.05034
872.74943	0.05443
871.78507	0.05901
870.8207	0.06385
869.85634	0.06882
868.89198	0.07393
867.92761	0.07917
866.96325	0.08444
865.99888	0.08959
865.03452	0.09453
864.07016	0.09928
863.10579	0.10378
862.14143	0.1079
861.17706	0.11147
860.2127	0.11444
859.24834	0.11684
858.28397	0.11876
857.31961	0.12017
856.35524	0.12105
855.39088	0.12147
854.42652	0.12164
853.46215	0.12174
852.49779	0.12181
851.53342	0.12178
850.56906	0.12164
849.6047	0.12144
848.64033	0.12118
847.67597	0.12078
846.7116	0.12012
845.74724	0.11923
844.78288	0.1182
843.81851	0.11705
842.85415	0.11562
841.88978	0.11373
840.92542	0.11129
839.96106	0.10837
838.99669	0.10499
838.03233	0.10113
837.06796	0.0967
836.1036	0.09175
835.13924	0.08642
834.17487	0.08086
833.21051	0.07509
832.24614	0.06918
831.28178	0.06326
830.31742	0.05755
829.35305	0.05218
828.38869	0.04717
827.42432	0.04251
826.45996	0.03828
825.4956	0.03455
824.53123	0.03135
823.56687	0.02855
822.6025	0.02607
821.63814	0.0239
820.67378	0.02209
819.70941	0.02061
818.74505	0.01935
817.78068	0.01824
816.81632	0.01729
815.85196	0.01658
814.88759	0.01608
813.92323	0.01569
812.95886	0.01533
811.9945	0.01505
811.03014	0.01496
810.06577	0.01508
809.10141	0.01534
808.13704	0.01567
807.17268	0.01611
806.20832	0.0167
805.24395	0.01742
804.27959	0.01819
803.31522	0.01892
802.35086	0.01955
801.3865	0.02014
800.42213	0.02068
799.45777	0.02115
798.4934	0.0215
797.52904	0.0218
796.56468	0.02213
795.60031	0.02252
794.63595	0.02289
793.67158	0.02325
792.70722	0.02365
791.74286	0.02413
790.77849	0.02469
789.81413	0.02527
788.84976	0.02588
787.8854	0.02657
786.92104	0.02739
785.95667	0.0283
784.99231	0.02918
784.02794	0.02995
783.06358	0.03064
782.09922	0.03133
781.13485	0.03205
780.17049	0.03284
779.20612	0.03377
778.24176	0.03495
777.2774	0.03643
776.31303	0.03816
775.34867	0.04009
774.3843	0.04223
773.41994	0.04467
772.45557	0.04748
771.49121	0.05069
770.52685	0.05426
769.56248	0.05815
768.59812	0.06234
767.63375	0.06675
766.66939	0.07125
765.70503	0.07574
764.74066	0.0801
763.7763	0.08427
762.81193	0.08822
761.84757	0.09184
760.88321	0.09506
759.91884	0.09792
758.95448	0.1005
757.99011	0.10284
757.02575	0.10491
756.06139	0.10659
755.09702	0.10783
754.13266	0.10857
753.16829	0.10879
752.20393	0.10844
751.23957	0.10755
750.2752	0.10622
749.31084	0.10454
748.34647	0.10257
747.38211	0.10032
746.41775	0.09783
745.45338	0.09514
744.48902	0.09235
743.52465	0.08956
742.56029	0.08684
741.59593	0.08425
740.63156	0.0819
739.6672	0.07985
738.70283	0.07813
737.73847	0.07675
736.77411	0.07579
735.80974	0.07535
734.84538	0.07548
733.88101	0.07613
732.91665	0.07721
731.95229	0.07864
730.98792	0.08027
730.02356	0.08193
729.05919	0.08349
728.09483	0.08491
727.13047	0.08627
726.1661	0.08761
725.20174	0.08896
724.23737	0.09033
723.27301	0.09177
722.30865	0.09335
721.34428	0.09515
720.37992	0.09714
719.41555	0.09927
718.45119	0.10151
717.48683	0.10393
716.52246	0.10654
715.5581	0.10934
714.59373	0.1123
713.62937	0.11542
712.66501	0.1187
711.70064	0.12208
710.73628	0.1254
709.77191	0.12841
708.80755	0.13097
707.84319	0.13309
706.87882	0.13484
705.91446	0.13628
704.95009	0.13763
703.98573	0.1391
703.02137	0.14079
702.057	0.14252
701.09264	0.14399
700.12827	0.14494
699.16391	0.14529
698.19955	0.14512
697.23518	0.14444
696.27082	0.14313
695.30645	0.14118
694.34209	0.13871
693.37773	0.13584
692.41336	0.13267
691.449	0.12914
690.48463	0.12522
689.52027	0.12102
688.55591	0.11671
687.59154	0.11242
686.62718	0.10818
685.66281	0.10414
684.69845	0.10052
683.73409	0.09759
682.76972	0.09553
681.80536	0.09441
680.84099	0.09418
679.87663	0.09464
678.91227	0.09554
677.9479	0.09634
676.98354	0.09692
676.01917	0.09748
675.05481	0.09817
674.09045	0.099
673.12608	0.0999
672.16172	0.10076
671.19735	0.10153
670.23299	0.1023
669.26863	0.10319
668.30426	0.10419
667.3399	0.10512
666.37553	0.10594
665.41117	0.10675
664.44681	0.10762
663.48244	0.10851
662.51808	0.10924
661.55371	0.10979
660.58935	0.11031
659.62499	0.11096
658.66062	0.11162
657.69626	0.1121
656.73189	0.11223
655.76753	0.11203
654.80317	0.11153
653.8388	0.11102
652.87444	0.11047
651.91007	0.10974
650.94571	0.10893
649.98135	0.10818
649.01698	0.10741
648.05262	0.10648
647.08825	0.10541
646.12389	0.10446
645.15953	0.10377
644.19516	0.10321
643.2308	0.10261
642.26643	0.10204
641.30207	0.10167
640.33771	0.10155
639.37334	0.10153
638.40898	0.10148
637.44461	0.10141
636.48025	0.10148
635.51589	0.10182
634.55152	0.10239
633.58716	0.10304
632.62279	0.10379
631.65843	0.1048
630.69406	0.1061
629.7297	0.10752
628.76534	0.10886
627.80097	0.11024
626.83661	0.11203
625.87224	0.11441
624.90788	0.11709
623.94352	0.11985
622.97915	0.12284
622.01479	0.12627
621.05042	0.13003
620.08606	0.13389
619.1217	0.13771
618.15733	0.14158
617.19297	0.14558
616.2286	0.14958
615.26424	0.15329
614.29988	0.15655
613.33551	0.15949
612.37115	0.16227
611.40678	0.16471
610.44242	0.16654
609.47806	0.16771
608.51369	0.16835
607.54933	0.16863
606.58496	0.16851
605.6206	0.16789
604.65624	0.16682
603.69187	0.16562
602.72751	0.16449
601.76314	0.16346
600.79878	0.16249
599.83442	0.16157
598.87005	0.1609
597.90569	0.16073
596.94132	0.16101
595.97696	0.16155
595.0126	0.16237
594.04823	0.16367
593.08387	0.16551
592.1195	0.16764
591.15514	0.16991
590.19078	0.17246
589.22641	0.17545
588.26205	0.17885
587.29768	0.18249
586.33332	0.1862
585.36896	0.18993
584.40459	0.19371
583.44023	0.19748
582.47586	0.20093
581.5115	0.20377
580.54714	0.20598
579.58277	0.20789
578.61841	0.20969
577.65404	0.21099
576.68968	0.21139
575.72532	0.2109
574.76095	0.20971
573.79659	0.20788
572.83222	0.20524
571.86786	0.2017
570.9035	0.19737
569.93913	0.19256
568.97477	0.18748
568.0104	0.18223
567.04604	0.17676
566.08168	0.17112
565.11731	0.16564
564.15295	0.16062
563.18858	0.156
562.22422	0.1515
561.25986	0.14708
560.29549	0.14304
559.33113	0.13956
558.36676	0.13642
557.4024	0.1335
556.43804	0.131
555.47367	0.12919
554.50931	0.12793
553.54494	0.12678
552.58058	0.12541
551.61622	0.12393
550.65185	0.12267
549.68749	0.12161
548.72312	0.12047
547.75876	0.11917
546.7944	0.11792
545.83003	0.11697
544.86567	0.11624
543.9013	0.11551
542.93694	0.11466
541.97258	0.11389
541.00821	0.11333
540.04385	0.11289
539.07948	0.11234
538.11512	0.11165
537.15076	0.11107
536.18639	0.11105
535.22203	0.11166
534.25766	0.11252
533.2933	0.11343
532.32894	0.11445
531.36457	0.11547
530.40021	0.11631
529.43584	0.11687
528.47148	0.11724
527.50712	0.11784
526.54275	0.11889
525.57839	0.11992
524.61402	0.12039
523.64966	0.12027
522.6853	0.11982
521.72093	0.11908
520.75657	0.1179
519.7922	0.11609
518.82784	0.11366
517.86348	0.11093
516.89911	0.10826
515.93475	0.10554
514.97038	0.10252
514.00602	0.09934
513.04166	0.09656
512.07729	0.09448
511.11293	0.09263
510.14856	0.09056
509.1842	0.08839
508.21984	0.08648
507.25547	0.08502
506.29111	0.08384
505.32674	0.08274
504.36238	0.08194
503.39802	0.08155
502.43365	0.08126
501.46929	0.08093
500.50492	0.08054
499.54056	0.08023
498.5762	0.08016
497.61183	0.08015
496.64747	0.07984
495.6831	0.0791
494.71874	0.07832
493.75437	0.07796
492.79001	0.07777
491.82565	0.07722
490.86128	0.07632
489.89692	0.07554
488.93255	0.0751
487.96819	0.07442
487.00383	0.07309
486.03946	0.07139
485.0751	0.06959
484.11073	0.06754
483.14637	0.06534
482.18201	0.06359
481.21764	0.06234
480.25328	0.0614
479.28891	0.06073
478.32455	0.06029
477.36019	0.05985
476.39582	0.05937
475.43146	0.05893
474.46709	0.05847
473.50273	0.05775
472.53837	0.05667
471.574	0.05556
470.60964	0.05473
469.64527	0.05378
468.68091	0.05226
467.71655	0.05079
466.75218	0.05001
465.78782	0.04966
464.82345	0.04925
463.85909	0.04854
462.89473	0.04778
461.93036	0.04724
460.966	0.04699
460.00163	0.04713
459.03727	0.04741
458.07291	0.0471
457.10854	0.04648
456.14418	0.04614
455.17981	0.04593
454.21545	0.04533
453.25109	0.04445
452.28672	0.04386
451.32236	0.04366
450.35799	0.04343
449.39363	0.04287
448.42927	0.04199
447.4649	0.04092
446.50054	0.0399
445.53617	0.03937
444.57181	0.03966
443.60745	0.04017
442.64308	0.04019
441.67872	0.03992
440.71435	0.03982
439.74999	0.03991
438.78563	0.03981
437.82126	0.03921
436.8569	0.03812
435.89253	0.03675
434.92817	0.03534
433.96381	0.03414
432.99944	0.03311
432.03508	0.03194
431.07071	0.03048
430.10635	0.02881
429.14199	0.02845
428.17762	0.03047
427.21326	0.03342
426.24889	0.03621
425.28453	0.0384
424.32017	0.04015
423.3558	0.04186
422.39144	0.04336
421.42707	0.04408
420.46271	0.0438
419.49835	0.04283
418.53398	0.04154
417.56962	0.03993
416.60525	0.03787
415.64089	0.03545
414.67653	0.03287
413.71216	0.0301
412.7478	0.02674
411.78343	0.02241
410.81907	0.02022
409.85471	0.0181
408.89034	0.01603
407.92598	0.01402
406.96161	0.01207
405.99725	0.01018
405.03289	0.00834
404.06852	0.00656
403.10416	0.00483
402.13979	0.00316
401.17543	0.00155
400.21107	0