401	0.07659
402	0.07659
403	0.07659
404	0.07659
405	0.07659
406	0.07659
407	0.07659
408	0.07659
409	0.07659
410	0.07659
411	0.07659
412	0.07659
413	0.07659
414	0.07659
415	0.07659
416	0.07659
417	0.07659
418	0.07659
419	0.07659
420	0.07659
421	0.07659
422	0.07659
423	0.07659
424	0.07659
425	0.07659
426	0.07659
427	0.07417
428	0.07385
429	0.07527
430	0.07767
431	0.07994
432	0.08163
433	0.08349
434	0.08554
435	0.08693
436	0.08735
437	0.08704
438	0.08629
439	0.08561
440	0.08541
441	0.08542
442	0.08492
443	0.0835
444	0.08174
445	0.08071
446	0.08021
447	0.079
448	0.07693
449	0.0748
450	0.07328
451	0.07233
452	0.07141
453	0.0704
454	0.06962
455	0.06923
456	0.06895
457	0.06857
458	0.06849
459	0.06916
460	0.07046
461	0.07174
462	0.07283
463	0.07419
464	0.07605
465	0.07795
466	0.07955
467	0.08124
468	0.08364
469	0.08663
470	0.08924
471	0.09105
472	0.09293
473	0.09524
474	0.09746
475	0.09905
476	0.1002
477	0.10152
478	0.10309
479	0.10437
480	0.10486
481	0.10495
482	0.10538
483	0.10616
484	0.10652
485	0.10595
486	0.10504
487	0.1046
488	0.10455
489	0.10449
490	0.10445
491	0.10479
492	0.10558
493	0.10644
494	0.1071
495	0.10783
496	0.10894
497	0.11024
498	0.11127
499	0.11193
500	0.11277
501	0.11412
502	0.11541
503	0.11607
504	0.11646
505	0.11721
506	0.11836
507	0.11949
508	0.1204
509	0.12138
510	0.12287
511	0.1249
512	0.12708
513	0.12927
514	0.13166
515	0.1344
516	0.13734
517	0.14028
518	0.1433
519	0.1467
520	0.15039
521	0.15385
522	0.15674
523	0.15923
524	0.16165
525	0.16381
526	0.16514
527	0.16558
528	0.16551
529	0.165
530	0.16374
531	0.16159
532	0.15883
533	0.15584
534	0.15272
535	0.14931
536	0.14557
537	0.14181
538	0.13832
539	0.13503
540	0.1318
541	0.12871
542	0.12605
543	0.12392
544	0.12214
545	0.12057
546	0.11932
547	0.11857
548	0.11832
549	0.11839
550	0.11873
551	0.1194
552	0.12043
553	0.12173
554	0.12321
555	0.12496
556	0.12707
557	0.12935
558	0.13163
559	0.134
560	0.13674
561	0.13993
562	0.1434
563	0.14701
564	0.15083
565	0.1549
566	0.15914
567	0.16345
568	0.16786
569	0.17252
570	0.17749
571	0.18255
572	0.18753
573	0.19248
574	0.19752
575	0.20242
576	0.2068
577	0.21054
578	0.21387
579	0.21695
580	0.21943
581	0.22078
582	0.2211
583	0.22095
584	0.22059
585	0.21971
586	0.21804
587	0.21579
588	0.21335
589	0.2108
590	0.20793
591	0.20466
592	0.20139
593	0.19856
594	0.1962
595	0.19397
596	0.19189
597	0.19038
598	0.18972
599	0.18971
600	0.18987
601	0.19015
602	0.19088
603	0.19222
604	0.19372
605	0.19488
606	0.19555
607	0.1959
608	0.19601
609	0.19559
610	0.19437
611	0.19254
612	0.1905
613	0.18814
614	0.18498
615	0.18096
616	0.17662
617	0.17235
618	0.16805
619	0.16348
620	0.15879
621	0.15444
622	0.15065
623	0.14723
624	0.14393
625	0.14089
626	0.13849
627	0.13679
628	0.13542
629	0.13392
630	0.13226
631	0.13093
632	0.13022
633	0.12988
634	0.12965
635	0.12966
636	0.13007
637	0.13057
638	0.13076
639	0.13075
640	0.13085
641	0.13104
642	0.13117
643	0.13117
644	0.13114
645	0.13112
646	0.13107
647	0.13093
648	0.13071
649	0.13046
650	0.1302
651	0.12987
652	0.12947
653	0.1292
654	0.12946
655	0.131
656	0.13439
657	0.13648
658	0.13554
659	0.13274
660	0.12933
661	0.12591
662	0.12284
663	0.12029
664	0.11808
665	0.11601
666	0.11417
667	0.11279
668	0.11184
669	0.11111
670	0.1105
671	0.1102
672	0.11046
673	0.11129
674	0.11252
675	0.11415
676	0.11657
677	0.12006
678	0.12437
679	0.12877
680	0.13192
681	0.13181
682	0.1305
683	0.13026
684	0.13109
685	0.13274
686	0.13522
687	0.13841
688	0.14202
689	0.14597
690	0.15059
691	0.15618
692	0.16259
693	0.16931
694	0.17616
695	0.18344
696	0.19126
697	0.19919
698	0.20659
699	0.21332
700	0.21949
701	0.22492
702	0.22909
703	0.23168
704	0.23282
705	0.23283
706	0.23177
707	0.22948
708	0.22589
709	0.22113
710	0.2155
711	0.20926
712	0.20249
713	0.19544
714	0.18862
715	0.1824
716	0.17668
717	0.17122
718	0.16616
719	0.16186
720	0.15839
721	0.15541
722	0.15271
723	0.15039
724	0.14862
725	0.14726
726	0.146
727	0.14474
728	0.1437
729	0.14306
730	0.1426
731	0.14197
732	0.14097
733	0.13971
734	0.13852
735	0.13753
736	0.13661
737	0.13583
738	0.13539
739	0.13532
740	0.1355
741	0.13597
742	0.13697
743	0.13875
744	0.14128
745	0.14446
746	0.14833
747	0.15308
748	0.15865
749	0.16471
750	0.17098
751	0.1774
752	0.18394
753	0.19033
754	0.19616
755	0.20117
756	0.20532
757	0.20853
758	0.21057
759	0.21122
760	0.21048
761	0.20857
762	0.20562
763	0.20164
764	0.19673
765	0.19124
766	0.18549
767	0.17957
768	0.17344
769	0.16724
770	0.1613
771	0.15575
772	0.15043
773	0.14515
774	0.14009
775	0.1356
776	0.1317
777	0.12813
778	0.12471
779	0.12163
780	0.11909
781	0.11693
782	0.11486
783	0.11279
784	0.11097
785	0.10956
786	0.10833
787	0.10706
788	0.10582
789	0.10483
790	0.10405
791	0.10311
792	0.10174
793	0.10012
794	0.09856
795	0.09703
796	0.09521
797	0.09305
798	0.09095
799	0.08922
800	0.08769
801	0.08603
802	0.0843
803	0.08289
804	0.08189
805	0.08095
806	0.07979
807	0.07853
808	0.07753
809	0.07684
810	0.07615
811	0.07526
812	0.07437
813	0.07374
814	0.07328
815	0.07262
816	0.07173
817	0.07095
818	0.07054
819	0.07035
820	0.07008
821	0.06984
822	0.07004
823	0.07083
824	0.07194
825	0.07311
826	0.07453
827	0.07655
828	0.07917
829	0.08202
830	0.08494
831	0.08814
832	0.09188
833	0.09605
834	0.10028
835	0.10442
836	0.10862
837	0.113
838	0.11729
839	0.12117
840	0.12461
841	0.12783
842	0.13092
843	0.13369
844	0.13602
845	0.13804
846	0.13998
847	0.14183
848	0.14339
849	0.14461
850	0.14573
851	0.14695
852	0.14813
853	0.14905
854	0.14979
855	0.15054
856	0.15128
857	0.15178
858	0.15182
859	0.15145
860	0.15078
861	0.14971
862	0.14797
863	0.14547
864	0.14237
865	0.13886
866	0.13489
867	0.13036
868	0.12535
869	0.12018
870	0.11501
871	0.10978
872	0.10452
873	0.0995
874	0.09503
875	0.09115
876	0.0877
877	0.0847
878	0.0824
879	0.08093
880	0.08008
881	0.07959
882	0.07955
883	0.08018
884	0.08145
885	0.08297
886	0.08447
887	0.08604
888	0.08783
889	0.08975
890	0.09143
891	0.09273
892	0.09389
893	0.09519
894	0.09654
895	0.09771
896	0.09877
897	0.10009
898	0.1019
899	0.10401
900	0.1062
901	0.10859
902	0.11151
903	0.11502
904	0.11881
905	0.12265
906	0.12676
907	0.13141
908	0.13653
909	0.14173
910	0.14682
911	0.15203
912	0.15758
913	0.16334
914	0.16899
915	0.17448
916	0.18013
917	0.18616
918	0.19241
919	0.19869
920	0.20512
921	0.21205
922	0.21958
923	0.22743
924	0.2353
925	0.24324
926	0.25139
927	0.25964
928	0.2676
929	0.27505
930	0.28212
931	0.28905
932	0.29576
933	0.30191
934	0.30732
935	0.31197
936	0.31572
937	0.31811
938	0.31864
939	0.31718
940	0.31396
941	0.3092
942	0.30295
943	0.29539
944	0.28696
945	0.27821
946	0.26948
947	0.26091
948	0.25274
949	0.24539
950	0.2393
951	0.23467
952	0.23162
953	0.23037
954	0.23124
955	0.23441
956	0.23975
957	0.24695
958	0.25569
959	0.26571
960	0.27666
961	0.2881
962	0.29974
963	0.31157
964	0.32363
965	0.3358
966	0.34795
967	0.36009
968	0.3723
969	0.38452
970	0.39658
971	0.40836
972	0.41989
973	0.43126
974	0.44244
975	0.45334
976	0.46399
977	0.4746
978	0.48537
979	0.49636
980	0.50765
981	0.51943
982	0.53194
983	0.5453
984	0.55945
985	0.57428
986	0.58977
987	0.60594
988	0.62257
989	0.63922
990	0.65557
991	0.67148
992	0.68676
993	0.70098
994	0.71368
995	0.72457
996	0.73354
997	0.7405
998	0.74527
999	0.74784
1000	0.74852
1001	0.74792
1002	0.74656
1003	0.74486
1004	0.7433
1005	0.74252
1006	0.7432
1007	0.74573
1008	0.75028
1009	0.75698
1010	0.76608
1011	0.77778
1012	0.79188
1013	0.80797
1014	0.82576
1015	0.84507
1016	0.8655
1017	0.88636
1018	0.90681
1019	0.92622
1020	0.94418
1021	0.96025
1022	0.97393
1023	0.98479
1024	0.9927
1025	0.99776
1026	1
1027	0.99937
1028	0.99596
1029	0.99012
1030	0.98232
1031	0.97285
1032	0.96195
1033	0.94994
1034	0.93729
1035	0.92445
1036	0.9116
1037	0.89883
1038	0.88634
1039	0.87442
1040	0.8633
1041	0.85294
1042	0.84319
1043	0.83407
1044	0.82574
1045	0.81822
1046	0.81134
1047	0.80482
1048	0.79854
1049	0.79249
1050	0.78653
1051	0.7804
1052	0.77387
1053	0.76683
1054	0.75918
1055	0.75067
1056	0.74099
1057	0.72982
1058	0.71699
1059	0.70237
1060	0.6859
1061	0.66775
1062	0.64844
1063	0.62885
1064	0.60992
1065	0.59258
1066	0.57772
1067	0.56616
1068	0.5586
1069	0.55533
1070	0.55634
1071	0.56146
1072	0.57034
1073	0.58248
1074	0.59719
1075	0.6136
1076	0.6308
1077	0.64788
1078	0.6639
1079	0.67787
1080	0.68889
1081	0.69626
1082	0.69956
1083	0.69855
1084	0.69333
1085	0.68439
1086	0.67249
1087	0.65852
1088	0.64331
1089	0.62765
1090	0.61229
1091	0.59788
1092	0.58484
1093	0.57338
1094	0.56365
1095	0.5558
1096	0.54988
1097	0.54573
1098	0.54314
1099	0.5419
1100	0.54192
1101	0.543
1102	0.54479
1103	0.54691
1104	0.54914
1105	0.55136
1106	0.55338
1107	0.55488
1108	0.55563
1109	0.55562
1110	0.55494
1111	0.5536
1112	0.55152
1113	0.54876
1114	0.54557
1115	0.54218
1116	0.53867
1117	0.53498
1118	0.5311
1119	0.52724
1120	0.52357
1121	0.52007
1122	0.51662
1123	0.51322
1124	0.50999
1125	0.50692
1126	0.50378
1127	0.50037
1128	0.49669
1129	0.49293
1130	0.48914
1131	0.48522
1132	0.48116
1133	0.47722
1134	0.47369
1135	0.47074
1136	0.46841
1137	0.46688
1138	0.46647
1139	0.46742
1140	0.46981
1141	0.47357
1142	0.47874
1143	0.48552
1144	0.49398
1145	0.50392
1146	0.51501
1147	0.52704
1148	0.53987
1149	0.55323
1150	0.56666
1151	0.57971
1152	0.59213
1153	0.60377
1154	0.6143
1155	0.62327
1156	0.63036
1157	0.63544
1158	0.63844
1159	0.6392
1160	0.63758
1161	0.63352
1162	0.62717
1163	0.61869
1164	0.60818
1165	0.59576
1166	0.58171
1167	0.5664
1168	0.55014
1169	0.53316
1170	0.5157
1171	0.49809
1172	0.48069
1173	0.46375
1174	0.44742
1175	0.43186
1176	0.41727
1177	0.40377
1178	0.39134
1179	0.37994
1180	0.36955
1181	0.3602
1182	0.35183
1183	0.34433
1184	0.33754
1185	0.33143
1186	0.326
1187	0.32116
1188	0.31683
1189	0.31301
1190	0.30979
1191	0.3072
1192	0.30515
1193	0.30358
1194	0.30247
1195	0.30189
1196	0.30177
1197	0.30198
1198	0.30241
1199	0.30306
1200	0.30384
1201	0.30458
1202	0.30506
1203	0.30516
1204	0.30488
1205	0.30419
1206	0.30293
1207	0.30095
1208	0.29826
1209	0.29502
1210	0.29129
1211	0.28708
1212	0.28242
1213	0.2775
1214	0.27254
1215	0.26762
1216	0.26277
1217	0.25805
1218	0.25365
1219	0.24976
1220	0.24637
1221	0.24344
1222	0.241
1223	0.23916
1224	0.23796
1225	0.23728
1226	0.237
1227	0.23711
1228	0.2377
1229	0.23877
1230	0.24014
1231	0.24169
1232	0.24342
1233	0.24541
1234	0.24764
1235	0.24994
1236	0.2522
1237	0.25443
1238	0.25669
1239	0.25893
1240	0.261
1241	0.26284
1242	0.26454
1243	0.26613
1244	0.26753
1245	0.26862
1246	0.2694
1247	0.26995
1248	0.2703
1249	0.27031
1250	0.26992
1251	0.2692
1252	0.26831
1253	0.26727
1254	0.26598
1255	0.26439
1256	0.26258
1257	0.26067
1258	0.25869
1259	0.25653
1260	0.25413
1261	0.25158
1262	0.24902
1263	0.24644
1264	0.24384
1265	0.24126
1266	0.23886
1267	0.23673
1268	0.23488
1269	0.23327
1270	0.23197
1271	0.23106
1272	0.23055
1273	0.23037
1274	0.23053
1275	0.23109
1276	0.23202
1277	0.23322
1278	0.23457
1279	0.23602
1280	0.2376
1281	0.23931
1282	0.24107
1283	0.24279
1284	0.24446
1285	0.24615
1286	0.24793
1287	0.24977
1288	0.25164
1289	0.25361
1290	0.25574
1291	0.25804
1292	0.26041
1293	0.2628
1294	0.26525
1295	0.26774
1296	0.27018
1297	0.27246
1298	0.27451
1299	0.27634
1300	0.2779
1301	0.27909
1302	0.27983
1303	0.28013
1304	0.2801
1305	0.27976
1306	0.27911
1307	0.27815
1308	0.27692
1309	0.27551
1310	0.27402
1311	0.27257
1312	0.27126
1313	0.27025
1314	0.26963
1315	0.26938
1316	0.26949
1317	0.27002
1318	0.27105
1319	0.27256
1320	0.27446
1321	0.2767
1322	0.2793
1323	0.2823
1324	0.28561
1325	0.28901
1326	0.29241
1327	0.29578
1328	0.2989
1329	0.30142
1330	0.30323
1331	0.30447
1332	0.30532
1333	0.30584
1334	0.30605
1335	0.30592
1336	0.3055
1337	0.30489
1338	0.30408
1339	0.30303
1340	0.30177
1341	0.30046
1342	0.29925
1343	0.29812
1344	0.29698
1345	0.29584
1346	0.29485
1347	0.29406
1348	0.29346
1349	0.29295
1350	0.29243
1351	0.29168
1352	0.29044
1353	0.28886
1354	0.28745
1355	0.28656
1356	0.28623
1357	0.28636
1358	0.28679
1359	0.28757
1360	0.28886
1361	0.29079
1362	0.29325
1363	0.29586
1364	0.29837
1365	0.30084
1366	0.30332
1367	0.30556
1368	0.30736
1369	0.30873
1370	0.30977
1371	0.31037
1372	0.31008
1373	0.30826
1374	0.30462
1375	0.29923
1376	0.29247
1377	0.28509
1378	0.27777
1379	0.27079
1380	0.26431
1381	0.25847
1382	0.25351
1383	0.24951
1384	0.24635
1385	0.24399
1386	0.24239
1387	0.24132
1388	0.2407
1389	0.24078
1390	0.24165
1391	0.24321
1392	0.24537
1393	0.2479
1394	0.25034
1395	0.2523
1396	0.25349
1397	0.25393
1398	0.25398
1399	0.254
1400	0.25422
1401	0.25488
1402	0.25614
1403	0.258
1404	0.26043
1405	0.2633
1406	0.26637
1407	0.26923
1408	0.27156
1409	0.27348
1410	0.27527
1411	0.27698
1412	0.2785
1413	0.27977
1414	0.2808
1415	0.28165
1416	0.28232
1417	0.28274
1418	0.28284
1419	0.28267
1420	0.28234
1421	0.2819
1422	0.28137
1423	0.28082
1424	0.28034
1425	0.27969
1426	0.27868
1427	0.27756
1428	0.27643
1429	0.27519
1430	0.2737
1431	0.27195
1432	0.27
1433	0.26817
1434	0.26669
1435	0.26546
1436	0.26421
1437	0.26275
1438	0.26136
1439	0.26034
1440	0.25965
1441	0.2592
1442	0.25894
1443	0.25895
1444	0.25933
1445	0.25988
1446	0.26025
1447	0.26027
1448	0.25998
1449	0.2595
1450	0.25932
1451	0.26004
1452	0.26165
1453	0.26382
1454	0.26605
1455	0.26823
1456	0.27046
1457	0.27271
1458	0.27488
1459	0.27695
1460	0.27882
1461	0.28003
1462	0.28017
1463	0.27932
1464	0.27764
1465	0.27508
1466	0.27168
1467	0.26753
1468	0.26263
1469	0.25694
1470	0.25068
1471	0.24444
1472	0.23895
1473	0.23465
1474	0.23158
1475	0.22957
1476	0.22821
1477	0.22708
1478	0.22585
1479	0.22426
1480	0.22248
1481	0.22078
1482	0.21932
1483	0.21809
1484	0.21681
1485	0.21483
1486	0.21204
1487	0.20891
1488	0.20555
1489	0.20199
1490	0.1985
1491	0.19534
1492	0.19271
1493	0.1909
1494	0.19033
1495	0.19049
1496	0.19031
1497	0.18958
1498	0.18851
1499	0.18724
1500	0.18576
1501	0.18404
1502	0.1821
1503	0.18015
1504	0.17887
1505	0.17819
1506	0.17744
1507	0.17679
1508	0.17658
1509	0.17675
1510	0.17679
1511	0.17648
1512	0.17629
1513	0.1766
1514	0.17737
1515	0.17851
1516	0.18002
1517	0.18173
1518	0.18324
1519	0.18384
1520	0.18357
1521	0.18333
1522	0.18326
1523	0.18315
1524	0.18306
1525	0.18326
1526	0.1841
1527	0.18581
1528	0.18742
1529	0.18765
1530	0.18683
1531	0.18589
1532	0.18493
1533	0.18336
1534	0.18063
1535	0.17743
1536	0.17475
1537	0.1727
1538	0.17093
1539	0.16899
1540	0.16703
1541	0.16548
1542	0.16463
1543	0.16426
1544	0.16398
1545	0.16379
1546	0.16406
1547	0.16453
1548	0.16405
1549	0.16277
1550	0.16141
1551	0.16
1552	0.15794
1553	0.15516
1554	0.15228
1555	0.14943
1556	0.14682
1557	0.14452
1558	0.14218
1559	0.13979
1560	0.13778
1561	0.13614
1562	0.13458
1563	0.1331
1564	0.13215
1565	0.1315
1566	0.13049
1567	0.12902
1568	0.12742
1569	0.12598
1570	0.12448
1571	0.12188
1572	0.11785
1573	0.11387
1574	0.11059
1575	0.10778
1576	0.1052
1577	0.10262
1578	0.10006
1579	0.09772
1580	0.09548
1581	0.09309
1582	0.09021
1583	0.08719
1584	0.0846
1585	0.08242
1586	0.0805
1587	0.07873
1588	0.07694
1589	0.07487
1590	0.07271
1591	0.07092
1592	0.06956
1593	0.06854
1594	0.0678
1595	0.06725
1596	0.06686
1597	0.06666
1598	0.06664
1599	0.06676
1600	0.06698
1601	0.06722
1602	0.06743
1603	0.06756
1604	0.06756
1605	0.06756
1606	0.06756
1607	0.06756
1608	0.06756
1609	0.06756
1610	0.06756
1611	0.06756
1612	0.06756
1613	0.06756
1614	0.06756
1615	0.06756
1616	0.06756
1617	0.06756
1618	0.06756
1619	0.06756
1620	0.06756
1621	0.06756
1622	0.06756
1623	0.06756
1624	0.06756
1625	0.06756
1626	0.06756
1627	0.06756
1628	0.06756
1629	0.06756
1630	0.06756
1631	0.06756
1632	0.06756
1633	0.06756
1634	0.06756
1635	0.06756
1636	0.06756
1637	0.06756
1638	0.06756
1639	0.06756
1640	0.06756
1641	0.06756
1642	0.06756
1643	0.06702
1644	0.06624
1645	0.06564
1646	0.06539
1647	0.06558
1648	0.06628
1649	0.06755
1650	0.06936
1651	0.07144
1652	0.0735
1653	0.07559
1654	0.07787
1655	0.08049
1656	0.08352
1657	0.08671
1658	0.08964
1659	0.09229
1660	0.09469
1661	0.09694
1662	0.09926
1663	0.10167
1664	0.10373
1665	0.10542
1666	0.10696
1667	0.10848
1668	0.1107
1669	0.11348
1670	0.11675
1671	0.12078
1672	0.12541
1673	0.12946
1674	0.13278
1675	0.13597
1676	0.1393
1677	0.14298
1678	0.14698
1679	0.1512
1680	0.1555
1681	0.15967
1682	0.16379
1683	0.16826
1684	0.17306
1685	0.17778
1686	0.18227
1687	0.18653
1688	0.19062
1689	0.19429
1690	0.19751
1691	0.20049
1692	0.20324
1693	0.20568
1694	0.20781
1695	0.20928
1696	0.20943
1697	0.20817
1698	0.20673
1699	0.20551
1700	0.20404
1701	0.20229
1702	0.20044
1703	0.19852
1704	0.19649
1705	0.19444
1706	0.19222
1707	0.18934
1708	0.18563
1709	0.18137
1710	0.17718
1711	0.17336
1712	0.16963
1713	0.16554
1714	0.16168
1715	0.15857
1716	0.15618
1717	0.15436
1718	0.15285
1719	0.15137
1720	0.15026
1721	0.15007
1722	0.15054
1723	0.15069
1724	0.15088
1725	0.15161
1726	0.15291
1727	0.15455
1728	0.15623
1729	0.15787
1730	0.15951
1731	0.16127
1732	0.1634
1733	0.16598
1734	0.16898
1735	0.17235
1736	0.17585
1737	0.17937
1738	0.18301
1739	0.18681
1740	0.19064
1741	0.1946
1742	0.19874
1743	0.20323
1744	0.20845
1745	0.21422
1746	0.21985
1747	0.22526
1748	0.23151
1749	0.23881
1750	0.2467
1751	0.2546
1752	0.26232
1753	0.27007
1754	0.27805
1755	0.28604
1756	0.29362
1757	0.30062
1758	0.3071
1759	0.31309
1760	0.31821
1761	0.32201
1762	0.32454
1763	0.32615
1764	0.32705
1765	0.32753
1766	0.32782
1767	0.32802
1768	0.32808
1769	0.3277
1770	0.32681
1771	0.32575
1772	0.32479
1773	0.32384
1774	0.32257
1775	0.32101
1776	0.3196
1777	0.31855
1778	0.31787
1779	0.31751
1780	0.31715
1781	0.31646
1782	0.3155
1783	0.31451
1784	0.31329
1785	0.31159
1786	0.30975
1787	0.30815
1788	0.30665
1789	0.30507
1790	0.30337
1791	0.30141
1792	0.299
1793	0.29611
1794	0.29286
1795	0.28943
1796	0.28575
1797	0.28167
1798	0.27718
1799	0.27241
1800	0.26726
1801	0.2617
1802	0.25581
1803	0.24958
1804	0.24299
1805	0.2361
1806	0.22917
1807	0.22244
1808	0.21591
1809	0.20958
1810	0.20361
1811	0.19808
1812	0.19288
1813	0.18791
1814	0.18301
1815	0.17821
1816	0.17379
1817	0.16997
1818	0.16645
1819	0.16288
1820	0.15929
1821	0.15586
1822	0.15265
1823	0.14957
1824	0.14659
1825	0.14385
1826	0.14134
1827	0.13903
1828	0.13696
1829	0.13513
1830	0.13354
1831	0.13223
1832	0.13118
1833	0.1301
1834	0.12888
1835	0.12766
1836	0.12646
1837	0.12514
1838	0.12366
1839	0.12228
1840	0.12114
1841	0.12004
1842	0.11871
1843	0.11726
1844	0.11604
1845	0.11512
1846	0.1144
1847	0.11381
1848	0.11333
1849	0.11289
1850	0.11243
1851	0.11205
1852	0.11184
1853	0.11184
1854	0.11199
1855	0.11216
1856	0.1121
1857	0.11153
1858	0.1105
1859	0.10927
1860	0.1079
1861	0.10648
1862	0.10518
1863	0.10409
1864	0.10316
1865	0.10236
1866	0.10167
1867	0.10111
1868	0.10067
1869	0.10033
1870	0.10008
1871	0.09991
1872	0.09986
1873	0.09989
1874	0.09997
1875	0.10012
1876	0.10045
1877	0.10096
1878	0.10141
1879	0.10151
1880	0.10123
1881	0.10061
1882	0.09984
1883	0.09917
1884	0.09853
1885	0.0979
1886	0.09732
1887	0.09682
1888	0.0964
1889	0.09602
1890	0.09568
1891	0.09538
1892	0.09514
1893	0.09497
1894	0.09486
1895	0.09483
1896	0.09486
1897	0.09488
1898	0.09485
1899	0.09474
1900	0.09457
1901	0.09432
1902	0.09391
1903	0.09343
1904	0.09309
1905	0.09293
1906	0.09281
1907	0.09248
1908	0.09188
1909	0.09131
1910	0.09095
1911	0.09065
1912	0.09018
1913	0.08956
1914	0.08895
1915	0.08842
1916	0.088
1917	0.08767
1918	0.08742
1919	0.08724
1920	0.08708
1921	0.0869
1922	0.08667
1923	0.08641
1924	0.08625
1925	0.08621
1926	0.08627
1927	0.08639
1928	0.0866
1929	0.08689
1930	0.08716
1931	0.08718
1932	0.08703
1933	0.08686
1934	0.08664
1935	0.08615
1936	0.08547
1937	0.08484
1938	0.08436
1939	0.08396
1940	0.08362
1941	0.08336
1942	0.08317
1943	0.08304
1944	0.08292
1945	0.08281
1946	0.08271
1947	0.08266
1948	0.08269
1949	0.08277
1950	0.08288
1951	0.08304
1952	0.08325
1953	0.08352
1954	0.08372
1955	0.08368
1956	0.08342
1957	0.08308
1958	0.08272
1959	0.08234
1960	0.08198
1961	0.08167
1962	0.08141
1963	0.0812
1964	0.08103
1965	0.08087
1966	0.08073
1967	0.08059
1968	0.08044
1969	0.08028
1970	0.08015
1971	0.08004
1972	0.07999
1973	0.07995
1974	0.07992
1975	0.07993
1976	0.08001
1977	0.08008
1978	0.08008
1979	0.07999
1980	0.07978
1981	0.07947
1982	0.0791
1983	0.07872
1984	0.07834
1985	0.078
1986	0.0777
1987	0.07745
1988	0.07721
1989	0.07696
1990	0.07673
1991	0.07654
1992	0.07639
1993	0.07626
1994	0.07615
1995	0.07607
1996	0.07605
1997	0.07607
1998	0.07611
1999	0.07614
2000	0.07616
2001	0.07616
2002	0.07618
2003	0.07621
2004	0.07618
2005	0.07603
2006	0.07581
2007	0.07558
2008	0.07534
2009	0.07511
2010	0.07493
2011	0.07478
2012	0.07465
2013	0.07454
2014	0.07446
2015	0.07442
2016	0.07442
2017	0.07444
2018	0.07448
2019	0.07454
2020	0.07464
2021	0.07476
2022	0.07491
2023	0.07506
2024	0.07524
2025	0.07544
2026	0.07567
2027	0.07591
2028	0.07615
2029	0.07631
2030	0.07636
2031	0.07634
2032	0.07633
2033	0.07633
2034	0.07634
2035	0.07634
2036	0.07633
2037	0.07632
2038	0.07632
2039	0.07632
2040	0.07633
2041	0.07636
2042	0.07639
2043	0.07643
2044	0.07648
2045	0.07652
2046	0.07655
2047	0.0766
2048	0.07666
2049	0.07673
2050	0.07679
2051	0.07686
2052	0.07694
2053	0.07699
2054	0.07693
2055	0.07681
2056	0.07667
2057	0.07654
2058	0.0764
2059	0.07626
2060	0.07614
2061	0.07605
2062	0.07598
2063	0.07591
2064	0.07584
2065	0.07577
2066	0.07571
2067	0.07565
2068	0.07558
2069	0.07552
2070	0.07547
2071	0.07545
2072	0.07546
2073	0.07546
2074	0.07546
2075	0.07547
2076	0.07548
2077	0.07547
2078	0.07541
2079	0.07532
2080	0.07522
2081	0.07515
2082	0.0751
2083	0.07505
2084	0.075
2085	0.07496
2086	0.07492
2087	0.07489
2088	0.07486
2089	0.07482
2090	0.07478
2091	0.07475
2092	0.07473
2093	0.07469
2094	0.07464
2095	0.07461
2096	0.0746
2097	0.0746
2098	0.07459
2099	0.07457
2100	0.07455
2101	0.07453
2102	0.07449
2103	0.07442
2104	0.07433
2105	0.07425
2106	0.07419
2107	0.07414
2108	0.0741
2109	0.07406
2110	0.07403
2111	0.07402
2112	0.07401
2113	0.074
2114	0.074
2115	0.07401
2116	0.07401
2117	0.07401
2118	0.07402
2119	0.07403
2120	0.07406
2121	0.07409
2122	0.07412
2123	0.07415
2124	0.07417
2125	0.0742
2126	0.07422
2127	0.07424
2128	0.07424
2129	0.07425
2130	0.07426
2131	0.07428
2132	0.07429
2133	0.0743
2134	0.07432
2135	0.07434
2136	0.07437
2137	0.0744
2138	0.07442
2139	0.07444
2140	0.07445
2141	0.07445
2142	0.07446
2143	0.07447
2144	0.07447
2145	0.07447
2146	0.07448
2147	0.0745
2148	0.07451
2149	0.0745
2150	0.07449
2151	0.07446
2152	0.07441
2153	0.07435
2154	0.07429
2155	0.07421
2156	0.07413
2157	0.07405
2158	0.07396
2159	0.07386
2160	0.07376
2161	0.07366
2162	0.07356
2163	0.07346
2164	0.07337
2165	0.07328
2166	0.07321
2167	0.07314
2168	0.07308
2169	0.07305
2170	0.07303
2171	0.07303
2172	0.07303
2173	0.07302
2174	0.07301
2175	0.07302
2176	0.07303
2177	0.07304
2178	0.07305
2179	0.07305
2180	0.07305
2181	0.07305
2182	0.07305
2183	0.07305
2184	0.07305
2185	0.07305
2186	0.07305
2187	0.07305
2188	0.07305
2189	0.07305
2190	0.07305
2191	0.07305
2192	0.07305
2193	0.07305
2194	0.07305
2195	0.07305
2196	0.07305
2197	0.07305
2198	0.07305
2199	0.07305
2200	0.07305
2201	0.07305
2202	0.07305
2203	0.07305
2204	0.07305
2205	0.07305
2206	0.07305
2207	0.07305
2208	0.07305
2209	0.07305
2210	0.07305
2211	0.07305
2212	0.07305
2213	0.07305
2214	0.07305
2215	0.07305
2216	0.07305
2217	0.07305
2218	0.07305
2219	0.07305
2220	0.07305
2221	0.07305
2222	0.07305
2223	0.07305
2224	0.07305
2225	0.07305
2226	0.07305
2227	0.07305
2228	0.07305
2229	0.07305
2230	0.07305
2231	0.07305
2232	0.07305
2233	0.07305
2234	0.07305
2235	0.07305
2236	0.07305
2237	0.07305
2238	0.07305
2239	0.07305
2240	0.07305
2241	0.07305
2242	0.07305
2243	0.07305
2244	0.07305
2245	0.07305
2246	0.07305
2247	0.07305
2248	0.07305
2249	0.07305
2250	0.07305
2251	0.07305
2252	0.07305
2253	0.07305
2254	0.07305
2255	0.07305
2256	0.07305
2257	0.07305
2258	0.07305
2259	0.07305
2260	0.07305
2261	0.07305
2262	0.07305
2263	0.07305
2264	0.07305
2265	0.07305
2266	0.07305
2267	0.07305
2268	0.07305
2269	0.07305
2270	0.07305
2271	0.07305
2272	0.07305
2273	0.07305
2274	0.07305
2275	0.07305
2276	0.07305
2277	0.07305
2278	0.07305
2279	0.07305
2280	0.07305
2281	0.07305
2282	0.07305
2283	0.07305
2284	0.07305
2285	0.07305
2286	0.07305
2287	0.07305
2288	0.07305
2289	0.07305
2290	0.07305
2291	0.07305
2292	0.07305
2293	0.07305
2294	0.07305
2295	0.07305
2296	0.07305
2297	0.07305
2298	0.07305
2299	0.07305
2300	0.07305
2301	0.07305
2302	0.07305
2303	0.07305
2304	0.07305
2305	0.07305
2306	0.07305
2307	0.07305
2308	0.07305
2309	0.07305
2310	0.07305
2311	0.07305
2312	0.07305
2313	0.07305
2314	0.07305
2315	0.07305
2316	0.07305
2317	0.07305
2318	0.07305
2319	0.07305
2320	0.07305
2321	0.07305
2322	0.07305
2323	0.07305
2324	0.07305
2325	0.07305
2326	0.07305
2327	0.07305
2328	0.07305
2329	0.07305
2330	0.07305
2331	0.07305
2332	0.07305
2333	0.07305
2334	0.07305
2335	0.07305
2336	0.07305
2337	0.07305
2338	0.07305
2339	0.07305
2340	0.07305
2341	0.07305
2342	0.07305
2343	0.07305
2344	0.07305
2345	0.07305
2346	0.07305
2347	0.07305
2348	0.07305
2349	0.07305
2350	0.07305
2351	0.07305
2352	0.07305
2353	0.07305
2354	0.07305
2355	0.07305
2356	0.07305
2357	0.07305
2358	0.07305
2359	0.07305
2360	0.07305
2361	0.07305
2362	0.07305
2363	0.07305
2364	0.07305
2365	0.07305
2366	0.07305
2367	0.07305
2368	0.07305
2369	0.07305
2370	0.07305
2371	0.07305
2372	0.07305
2373	0.07305
2374	0.07305
2375	0.07305
2376	0.07305
2377	0.07305
2378	0.07305
2379	0.07305
2380	0.07305
2381	0.07305
2382	0.07305
2383	0.07305
2384	0.07305
2385	0.07305
2386	0.07305
2387	0.07305
2388	0.07305
2389	0.07305
2390	0.07305
2391	0.07305
2392	0.07305
2393	0.07305
2394	0.07305
2395	0.07305
2396	0.07305
2397	0.07305
2398	0.07305
2399	0.07305
2400	0.07305
2401	0.07305
2402	0.07305
2403	0.07305
2404	0.07305
2405	0.07305
2406	0.07305
2407	0.07305
2408	0.07305
2409	0.07305
2410	0.07305
2411	0.07305
2412	0.07305
2413	0.07305
2414	0.07305
2415	0.07305
2416	0.07305
2417	0.07305
2418	0.07305
2419	0.07305
2420	0.07305
2421	0.07305
2422	0.07305
2423	0.07305
2424	0.07305
2425	0.07305
2426	0.07305
2427	0.07305
2428	0.07305
2429	0.07305
2430	0.07305
2431	0.07305
2432	0.07305
2433	0.07305
2434	0.07305
2435	0.07305
2436	0.07305
2437	0.07305
2438	0.07305
2439	0.07305
2440	0.07305
2441	0.07305
2442	0.07305
2443	0.07305
2444	0.07305
2445	0.07305
2446	0.07305
2447	0.07305
2448	0.07305
2449	0.07305
2450	0.07305
2451	0.07305
2452	0.07305
2453	0.07305
2454	0.07305
2455	0.07305
2456	0.07305
2457	0.07305
2458	0.07305
2459	0.07305
2460	0.07305
2461	0.07305
2462	0.07305
2463	0.07305
2464	0.07305
2465	0.07305
2466	0.07305
2467	0.07305
2468	0.07305
2469	0.07305
2470	0.07305
2471	0.07305
2472	0.07305
2473	0.07305
2474	0.07305
2475	0.07305
2476	0.07305
2477	0.07305
2478	0.07305
2479	0.07305
2480	0.07305
2481	0.07305
2482	0.07305
2483	0.07305
2484	0.07304
2485	0.07303
2486	0.07301
2487	0.073
2488	0.073
2489	0.073
2490	0.073
2491	0.07302
2492	0.07305
2493	0.0731
2494	0.07317
2495	0.07324
2496	0.07334
2497	0.07346
2498	0.0736
2499	0.07373
2500	0.07384
2501	0.07395
2502	0.07408
2503	0.07421
2504	0.07435
2505	0.07446
2506	0.07455
2507	0.07463
2508	0.0747
2509	0.07477
2510	0.07483
2511	0.07488
2512	0.07494
2513	0.07501
2514	0.07507
2515	0.07514
2516	0.07523
2517	0.07533
2518	0.07544
2519	0.07556
2520	0.07569
2521	0.07582
2522	0.07595
2523	0.07607
2524	0.07618
2525	0.07631
2526	0.07644
2527	0.07658
2528	0.07672
2529	0.07685
2530	0.077
2531	0.07716
2532	0.07734
2533	0.07751
2534	0.07767
2535	0.07782
2536	0.07799
2537	0.07817
2538	0.07836
2539	0.07854
2540	0.07872
2541	0.07891
2542	0.07911
2543	0.0793
2544	0.07948
2545	0.07966
2546	0.07984
2547	0.08001
2548	0.08018
2549	0.08035
2550	0.08052
2551	0.0807
2552	0.08089
2553	0.08108
2554	0.08126
2555	0.08143
2556	0.08161
2557	0.08179
2558	0.08197
2559	0.08217
2560	0.08239
2561	0.08262
2562	0.08285
2563	0.08308
2564	0.08333
2565	0.08359
2566	0.08386
2567	0.08412
2568	0.08439
2569	0.08467
2570	0.08496
2571	0.08526
2572	0.08557
2573	0.08589
2574	0.08619
2575	0.0865
2576	0.0868
2577	0.0871
2578	0.08741
2579	0.08772
2580	0.08804
2581	0.08838
2582	0.08871
2583	0.08903
2584	0.08934
2585	0.08965
2586	0.08997
2587	0.09029
2588	0.09062
2589	0.09093
2590	0.09125
2591	0.09157
2592	0.09189
2593	0.09222
2594	0.09255
2595	0.09288
2596	0.09322
2597	0.09356
2598	0.09391
2599	0.09425
2600	0.0946
2601	0.09497
2602	0.09535
2603	0.09572
2604	0.0961
2605	0.09648
2606	0.09685
2607	0.09723
2608	0.09762
2609	0.09802
2610	0.09845
2611	0.09889
2612	0.09933
2613	0.09977
2614	0.10022
2615	0.10067
2616	0.10112
2617	0.1016
2618	0.10207
2619	0.10254
2620	0.10301
2621	0.10348
2622	0.10395
2623	0.10441
2624	0.10488
2625	0.10535
2626	0.10582
2627	0.10627
2628	0.10672
2629	0.10716
2630	0.10759
2631	0.10802
2632	0.10845
2633	0.1089
2634	0.10934
2635	0.10977
2636	0.11019
2637	0.1106
2638	0.11099
2639	0.11137
2640	0.11175
2641	0.11211
2642	0.11245
2643	0.11277
2644	0.11308
2645	0.11338
2646	0.11365
2647	0.1139
2648	0.11414
2649	0.11437
2650	0.11458
2651	0.11479
2652	0.11499
2653	0.11517
2654	0.11534
2655	0.11551
2656	0.11569
2657	0.11587
2658	0.11604
2659	0.1162
2660	0.11633
2661	0.11644
2662	0.11655
2663	0.11665
2664	0.11675
2665	0.11686
2666	0.11695
2667	0.11704
2668	0.11711
2669	0.11718
2670	0.11723
2671	0.11728
2672	0.11734
2673	0.1174
2674	0.11745
2675	0.11748
2676	0.11751
2677	0.11755
2678	0.1176
2679	0.11766
2680	0.11772
2681	0.11776
2682	0.11781
2683	0.11785
2684	0.11789
2685	0.11793
2686	0.11796
2687	0.11801
2688	0.11807
2689	0.11813
2690	0.11821
2691	0.1183
2692	0.1184
2693	0.11849
2694	0.11859
2695	0.11869
2696	0.1188
2697	0.11893
2698	0.11906
2699	0.11921
2700	0.11937
2701	0.11957
2702	0.11979
2703	0.12004
2704	0.12029
2705	0.12056
2706	0.12084
2707	0.12114
2708	0.12142
2709	0.12172
2710	0.12202
2711	0.12233
2712	0.12265
2713	0.12298
2714	0.12331
2715	0.12364
2716	0.12396
2717	0.12428
2718	0.1246
2719	0.12491
2720	0.12525
2721	0.12559
2722	0.12591
2723	0.12621
2724	0.12652
2725	0.12685
2726	0.12718
2727	0.12751
2728	0.12783
2729	0.12814
2730	0.12846
2731	0.12877
2732	0.12908
2733	0.12938
2734	0.12968
2735	0.12998
2736	0.13029
2737	0.1306
2738	0.13092
2739	0.13124
2740	0.13156
2741	0.13188
2742	0.13219
2743	0.13249
2744	0.1328
2745	0.1331
2746	0.13338
2747	0.13364
2748	0.1339
2749	0.13415
2750	0.13439
2751	0.13462
2752	0.13484
2753	0.13505
2754	0.13526
2755	0.13546
2756	0.13567
2757	0.13587
2758	0.13606
2759	0.13624
2760	0.13643
2761	0.13661
2762	0.13679
2763	0.13697
2764	0.13716
2765	0.13734
2766	0.13753
2767	0.13772
2768	0.13792
2769	0.13814
2770	0.13836
2771	0.13857
2772	0.13877
2773	0.13899
2774	0.13922
2775	0.13947
2776	0.13973
2777	0.14002
2778	0.14032
2779	0.14062
2780	0.14093
2781	0.14125
2782	0.14159
2783	0.14195
2784	0.14232
2785	0.14271
2786	0.14312
2787	0.14355
2788	0.14402
2789	0.14451
2790	0.14502
2791	0.14554
2792	0.1461
2793	0.14669
2794	0.14729
2795	0.14792
2796	0.14856
2797	0.14922
2798	0.14992
2799	0.15065
2800	0.1514
2801	0.15217
2802	0.15294
2803	0.15373
2804	0.15454
2805	0.15537
2806	0.15622
2807	0.15707
2808	0.15793
2809	0.15879
2810	0.15967
2811	0.16056
2812	0.16146
2813	0.16237
2814	0.16327
2815	0.16418
2816	0.16511
2817	0.16605
2818	0.16699
2819	0.16792
2820	0.16887
2821	0.16983
2822	0.17081
2823	0.17181
2824	0.17282
2825	0.17383
2826	0.17484
2827	0.17584
2828	0.17684
2829	0.17786
2830	0.17887
2831	0.17986
2832	0.18082
2833	0.18175
2834	0.18267
2835	0.18358
2836	0.18445
2837	0.18524
2838	0.18592
2839	0.18649
2840	0.18693
2841	0.18727
2842	0.18751
2843	0.1877
2844	0.18789
2845	0.18812
2846	0.18842
2847	0.18885
2848	0.18943
2849	0.19021
2850	0.19119
2851	0.19241
2852	0.19388
2853	0.19561
2854	0.19761
2855	0.19985
2856	0.20232
2857	0.20499
2858	0.20783
2859	0.21079
2860	0.21384
2861	0.21691
2862	0.21998
2863	0.223
2864	0.226
2865	0.22897
2866	0.2319
2867	0.2348
2868	0.23767
2869	0.24052
2870	0.24334
2871	0.24612
2872	0.24884
2873	0.25149
2874	0.25408
2875	0.25662
2876	0.2591
2877	0.26149
2878	0.26379
2879	0.26599
2880	0.26809
2881	0.27008
2882	0.27197
2883	0.27377
2884	0.2755
2885	0.27716
2886	0.27874
2887	0.28022
2888	0.28162
2889	0.28294
2890	0.28419
2891	0.28537
2892	0.28646
2893	0.28748
2894	0.28841
2895	0.28927
2896	0.2901
2897	0.2909
2898	0.29168
2899	0.29246
2900	0.29325
2901	0.29405
2902	0.29488
2903	0.29573
2904	0.2966
2905	0.29747
2906	0.2983
2907	0.29905
2908	0.29972
2909	0.3003
2910	0.30083
2911	0.30134
2912	0.3019
2913	0.30257
2914	0.30342
2915	0.30447
2916	0.30574
2917	0.30724
2918	0.309
2919	0.31098
2920	0.31318
2921	0.31555
2922	0.31805
2923	0.32065
2924	0.32329
2925	0.3259
2926	0.32839
2927	0.33068
2928	0.33269
2929	0.33432
2930	0.3355
2931	0.33617
2932	0.33633
2933	0.33599
2934	0.3352
2935	0.33399
2936	0.33239
2937	0.33042
2938	0.32813
2939	0.32557
2940	0.32275
2941	0.31969
2942	0.31642
2943	0.31297
2944	0.30939
2945	0.30573
2946	0.30204
2947	0.29838
2948	0.2948
2949	0.29134
2950	0.28805
2951	0.28498
2952	0.28215
2953	0.27957
2954	0.27724
2955	0.27514
2956	0.27327
2957	0.27161
2958	0.27016
2959	0.26887
2960	0.26771
2961	0.26668
2962	0.26574
2963	0.26486
2964	0.26399
2965	0.2631
2966	0.26218
2967	0.26122
2968	0.26019
2969	0.25909
2970	0.25792
2971	0.25666
2972	0.25532
2973	0.25391
2974	0.25242
2975	0.25085
2976	0.24919
2977	0.24741
2978	0.24551
2979	0.24349
2980	0.24136
2981	0.23911
2982	0.23673
2983	0.23423
2984	0.23163
2985	0.22895
2986	0.22621
2987	0.22341
2988	0.22058
2989	0.21777
2990	0.21499
2991	0.21229
2992	0.20967
2993	0.20713
2994	0.2047
2995	0.20241
2996	0.20028
2997	0.19832
2998	0.19656
2999	0.19498
3000	0.19357
3001	0.1923
3002	0.19115
3003	0.19015
3004	0.1893
3005	0.18858
3006	0.18796
3007	0.18744
3008	0.18703
3009	0.18671
3010	0.18647
3011	0.18631
3012	0.18625
3013	0.18627
3014	0.18636
3015	0.1865
3016	0.18668
3017	0.18692
3018	0.18724
3019	0.18765
3020	0.18811
3021	0.1886
3022	0.18911
3023	0.18964
3024	0.19018
3025	0.19073
3026	0.19133
3027	0.19203
3028	0.1928
3029	0.19362
3030	0.19445
3031	0.1953
3032	0.19616
3033	0.19705
3034	0.19795
3035	0.19887
3036	0.1998
3037	0.20072
3038	0.2016
3039	0.20245
3040	0.20329
3041	0.20413
3042	0.20498
3043	0.20581
3044	0.20661
3045	0.20736
3046	0.20807
3047	0.20877
3048	0.20948
3049	0.2102
3050	0.21095
3051	0.21173
3052	0.21253
3053	0.21331
3054	0.21407
3055	0.21481
3056	0.21554
3057	0.21627
3058	0.217
3059	0.21773
3060	0.21845
3061	0.21918
3062	0.21989
3063	0.22058
3064	0.22128
3065	0.22202
3066	0.22277
3067	0.22351
3068	0.22418
3069	0.22477
3070	0.2253
3071	0.22583
3072	0.22635
3073	0.22688
3074	0.22739
3075	0.2279
3076	0.2284
3077	0.2289
3078	0.22943
3079	0.22999
3080	0.23057
3081	0.23117
3082	0.23183
3083	0.23255
3084	0.23332
3085	0.23411
3086	0.23492
3087	0.23578
3088	0.23669
3089	0.23764
3090	0.23855
3091	0.2394
3092	0.2402
3093	0.24099
3094	0.2418
3095	0.24265
3096	0.24351
3097	0.24439
3098	0.24527
3099	0.24618
3100	0.24713
3101	0.24814
3102	0.2492
3103	0.2503
3104	0.25141
3105	0.25252
3106	0.25365
3107	0.2548
3108	0.25594
3109	0.25706
3110	0.25822
3111	0.25941
3112	0.2606
3113	0.26176
3114	0.26293
3115	0.2641
3116	0.2653
3117	0.26653
3118	0.26782
3119	0.26915
3120	0.27049
3121	0.27187
3122	0.27327
3123	0.27472
3124	0.2762
3125	0.27773
3126	0.2793
3127	0.28087
3128	0.28242
3129	0.28393
3130	0.28541
3131	0.28687
3132	0.28833
3133	0.28981
3134	0.2913
3135	0.29279
3136	0.29428
3137	0.2958
3138	0.29732
3139	0.29883
3140	0.30032
3141	0.3018
3142	0.30327
3143	0.3047
3144	0.30611
3145	0.30749
3146	0.30887
3147	0.31029
3148	0.31173
3149	0.31317
3150	0.31461
3151	0.31601
3152	0.3174
3153	0.31878
3154	0.32018
3155	0.3216
3156	0.32303
3157	0.32447
3158	0.32591
3159	0.32735
3160	0.32878
3161	0.33018
3162	0.33155
3163	0.33287
3164	0.33415
3165	0.33541
3166	0.33664
3167	0.33783
3168	0.33898
3169	0.34011
3170	0.34123
3171	0.34233
3172	0.34343
3173	0.34451
3174	0.34559
3175	0.34665
3176	0.34771
3177	0.34878
3178	0.34984
3179	0.35086
3180	0.35189
3181	0.35291
3182	0.35395
3183	0.35497
3184	0.35598
3185	0.35697
3186	0.35794
3187	0.35888
3188	0.35982
3189	0.36073
3190	0.36159
3191	0.3624
3192	0.36318
3193	0.36395
3194	0.3647
3195	0.36541
3196	0.3661
3197	0.3668
3198	0.36747
3199	0.36812
3200	0.36874
3201	0.36937
3202	0.37001
3203	0.37063
3204	0.37124
3205	0.37185
3206	0.37249
3207	0.37316
3208	0.37381
3209	0.37439
3210	0.37491
3211	0.3754
3212	0.37588
3213	0.37636
3214	0.37686
3215	0.37736
3216	0.37785
3217	0.37831
3218	0.37875
3219	0.37919
3220	0.37964
3221	0.38009
3222	0.38048
3223	0.3808
3224	0.38108
3225	0.38135
3226	0.38157
3227	0.38175
3228	0.38192
3229	0.38211
3230	0.3823
3231	0.38247
3232	0.38262
3233	0.38276
3234	0.38288
3235	0.38295
3236	0.38298
3237	0.38301
3238	0.38305
3239	0.3831
3240	0.38316
3241	0.38325
3242	0.38338
3243	0.38352
3244	0.38363
3245	0.38369
3246	0.38369
3247	0.38366
3248	0.38362
3249	0.38358
3250	0.38356
3251	0.38358
3252	0.38365
3253	0.38374
3254	0.38387
3255	0.38402
3256	0.38421
3257	0.3844
3258	0.38457
3259	0.38468
3260	0.38476
3261	0.38483
3262	0.38491
3263	0.38499
3264	0.38506
3265	0.38511
3266	0.38516
3267	0.3852
3268	0.38523
3269	0.38524
3270	0.38525
3271	0.38527
3272	0.3853
3273	0.38534
3274	0.38538
3275	0.38545
3276	0.38554
3277	0.38564
3278	0.38575
3279	0.38586
3280	0.38595
3281	0.38599
3282	0.38593
3283	0.38576
3284	0.38551
3285	0.38519
3286	0.38481
3287	0.38435
3288	0.38385
3289	0.38332
3290	0.38279
3291	0.38228
3292	0.38177
3293	0.38122
3294	0.38063
3295	0.38003
3296	0.37939
3297	0.37868
3298	0.3779
3299	0.37705
3300	0.37618
3301	0.37527
3302	0.37433
3303	0.37331
3304	0.37224
3305	0.37112
3306	0.36999
3307	0.36885
3308	0.36768
3309	0.36645
3310	0.36517
3311	0.36386
3312	0.36254
3313	0.36121
3314	0.35986
3315	0.35844
3316	0.35692
3317	0.35529
3318	0.35359
3319	0.35183
3320	0.35
3321	0.34806
3322	0.34603
3323	0.34397
3324	0.34191
3325	0.33981
3326	0.33764
3327	0.33538
3328	0.33306
3329	0.33071
3330	0.3283
3331	0.32583
3332	0.3233
3333	0.32069
3334	0.31803
3335	0.31536
3336	0.31267
3337	0.30996
3338	0.30719
3339	0.30432
3340	0.30136
3341	0.29834
3342	0.29532
3343	0.29231
3344	0.28926
3345	0.28617
3346	0.28302
3347	0.27982
3348	0.27654
3349	0.27317
3350	0.26967
3351	0.26607
3352	0.26241
3353	0.25873
3354	0.25502
3355	0.25126
3356	0.24742
3357	0.24353
3358	0.23962
3359	0.23568
3360	0.2317
3361	0.22767
3362	0.2236
3363	0.21949
3364	0.21537
3365	0.21128
3366	0.2072
3367	0.20314
3368	0.19906
3369	0.19498
3370	0.19092
3371	0.18689
3372	0.18289
3373	0.17892
3374	0.17495
3375	0.17102
3376	0.16714
3377	0.16331
3378	0.15952
3379	0.1558
3380	0.15215
3381	0.1485
3382	0.1448
3383	0.14108
3384	0.13743
3385	0.13386
3386	0.13036
3387	0.12688
3388	0.12346
3389	0.1201
3390	0.11676
3391	0.11345
3392	0.11017
3393	0.10695
3394	0.10377
3395	0.10065
3396	0.09758
3397	0.09455
3398	0.09156
3399	0.08862
3400	0.08573
3401	0.08289
3402	0.0801
3403	0.07734
3404	0.07455
3405	0.0717
3406	0.06885
3407	0.0661
3408	0.06348
3409	0.06085
3410	0.05814
3411	0.05536
3412	0.0526
3413	0.04989
3414	0.04725
3415	0.04469
3416	0.04224
3417	0.03989
3418	0.03765
3419	0.0355
3420	0.03344
3421	0.03146
3422	0.02956
3423	0.02773
3424	0.02599
3425	0.02433
3426	0.02274
3427	0.02122
3428	0.01979
3429	0.0185
3430	0.01733
3431	0.01626
3432	0.01518
3433	0.0141
3434	0.01309
3435	0.01221
3436	0.01139
3437	0.01057
3438	0.00983
3439	0.00922
3440	0.00875
3441	0.00839
3442	0.00814
3443	0.00797
3444	0.00788
3445	0.00789
3446	0.00801
3447	0.00825
3448	0.0086
3449	0.00904
3450	0.00952
3451	0.01004
3452	0.0106
3453	0.01122
3454	0.01192
3455	0.01266
3456	0.01342
3457	0.01422
3458	0.01503
3459	0.01579
3460	0.01645
3461	0.01714
3462	0.01794
3463	0.01882
3464	0.01973
3465	0.02066
3466	0.02166
3467	0.02274
3468	0.02393
3469	0.02519
3470	0.02645
3471	0.02761
3472	0.02866
3473	0.02968
3474	0.03071
3475	0.03179
3476	0.03288
3477	0.03392
3478	0.03494
3479	0.03595
3480	0.03696
3481	0.03799
3482	0.03907
3483	0.04022
3484	0.04144
3485	0.04264
3486	0.04376
3487	0.04488
3488	0.04607
3489	0.04742
3490	0.04892
3491	0.05044
3492	0.05179
3493	0.05286
3494	0.05371
3495	0.05446
3496	0.05531
3497	0.05633
3498	0.05737
3499	0.05829
3500	0.05908
3501	0.05981
3502	0.06058
3503	0.06141
3504	0.06234
3505	0.06337
3506	0.06452
3507	0.06575
3508	0.06698
3509	0.06822
3510	0.06961
3511	0.07116
3512	0.07272
3513	0.07414
3514	0.0754
3515	0.07648
3516	0.07735
3517	0.07807
3518	0.07875
3519	0.07944
3520	0.08013
3521	0.0808
3522	0.08145
3523	0.0822
3524	0.08312
3525	0.08411
3526	0.08508
3527	0.08609
3528	0.08723
3529	0.08851
3530	0.08994
3531	0.09152
3532	0.09325
3533	0.09506
3534	0.09677
3535	0.09818
3536	0.09921
3537	0.10001
3538	0.10085
3539	0.10181
3540	0.10279
3541	0.10365
3542	0.10436
3543	0.10502
3544	0.1058
3545	0.10678
3546	0.108
3547	0.1094
3548	0.11088
3549	0.11233
3550	0.11378
3551	0.11537
3552	0.1171
3553	0.11903
3554	0.12116
3555	0.12311
3556	0.12442
3557	0.12502
3558	0.12521
3559	0.12528
3560	0.12542
3561	0.12581
3562	0.12656
3563	0.12754
3564	0.12857
3565	0.12955
3566	0.13057
3567	0.13182
3568	0.13334
3569	0.13507
3570	0.13696
3571	0.13904
3572	0.14128
3573	0.14368
3574	0.14631
3575	0.14899
3576	0.15135
3577	0.15313
3578	0.15428
3579	0.15484
3580	0.15509
3581	0.15546
3582	0.15607
3583	0.15677
3584	0.15744
3585	0.1581
3586	0.15884
3587	0.15967
3588	0.16055
3589	0.16142
3590	0.16223
3591	0.16304
3592	0.16395
3593	0.16507
3594	0.16653
3595	0.1683
3596	0.17016
3597	0.17188
3598	0.17334
3599	0.17453
3600	0.17551
3601	0.17651
3602	0.17775
3603	0.17917
3604	0.18064
3605	0.18211
3606	0.18349
3607	0.18458
3608	0.18534
3609	0.18597
3610	0.18656
3611	0.18708
3612	0.18748
3613	0.18784
3614	0.18826
3615	0.18886
3616	0.18965
3617	0.19044
3618	0.19073
3619	0.19049
3620	0.18995
3621	0.18933
3622	0.18886
3623	0.18859
3624	0.18848
3625	0.18847
3626	0.18851
3627	0.18856
3628	0.18872
3629	0.1891
3630	0.18955
3631	0.18987
3632	0.19014
3633	0.19063
3634	0.19145
3635	0.19251
3636	0.19355
3637	0.19438
3638	0.19482
3639	0.19444
3640	0.19313
3641	0.19115
3642	0.18885
3643	0.18681
3644	0.1851
3645	0.18338
3646	0.18159
3647	0.17989
3648	0.17842
3649	0.17717
3650	0.17606
3651	0.17512
3652	0.17445
3653	0.1741
3654	0.174
3655	0.17411
3656	0.17454
3657	0.17526
3658	0.1758
3659	0.17558
3660	0.17456
3661	0.17311
3662	0.17144
3663	0.16943
3664	0.16686
3665	0.16409
3666	0.16139
3667	0.15869
3668	0.15579
3669	0.15272
3670	0.1498
3671	0.14719
3672	0.14486
3673	0.14278
3674	0.14103
3675	0.13969
3676	0.13865
3677	0.13774
3678	0.13693
3679	0.13608
3680	0.13491
3681	0.13341
3682	0.13162
3683	0.12975
3684	0.12817
3685	0.1269
3686	0.12564
3687	0.12405
3688	0.12203
3689	0.12014
3690	0.11847
3691	0.11679
3692	0.11514
3693	0.1137
3694	0.11258
3695	0.11177
3696	0.11125
3697	0.11099
3698	0.11087
3699	0.11066
3700	0.10993
3701	0.10845
3702	0.10662
3703	0.10466
3704	0.10277
3705	0.1013
3706	0.10034
3707	0.09969
3708	0.09918
3709	0.09881
3710	0.09859
3711	0.09835
3712	0.09798
3713	0.09748
3714	0.09675
3715	0.09569
3716	0.09441
3717	0.09308
3718	0.0919
3719	0.09087
3720	0.08984
3721	0.08871
3722	0.08752
3723	0.08607
3724	0.08377
3725	0.08078
3726	0.07797
3727	0.0756
3728	0.07368
3729	0.07221
3730	0.07115
3731	0.07046
3732	0.07001
3733	0.06962
3734	0.06934
3735	0.06926
3736	0.06938
3737	0.06963
3738	0.06985
3739	0.07
3740	0.07
3741	0.06993
3742	0.07007
3743	0.07043
3744	0.07088
3745	0.07147
3746	0.0721
3747	0.07234
3748	0.07175
3749	0.07083
3750	0.07027
3751	0.07009
3752	0.07021
3753	0.07054
3754	0.07095
3755	0.07132
3756	0.07167
3757	0.07205
3758	0.07256
3759	0.07298
3760	0.07313
3761	0.07306
3762	0.07283
3763	0.07242
3764	0.07177
3765	0.07119
3766	0.07101
3767	0.07101
3768	0.07083
3769	0.07045
3770	0.06998
3771	0.06943
3772	0.06876
3773	0.06816
3774	0.06767
3775	0.06718
3776	0.06669
3777	0.06618
3778	0.0656
3779	0.06505
3780	0.06462
3781	0.06419
3782	0.06368
3783	0.06319
3784	0.06286
3785	0.06258
3786	0.06229
3787	0.06206
3788	0.06197
3789	0.06184
3790	0.0613
3791	0.06019
3792	0.05874
3793	0.05739
3794	0.05628
3795	0.05519
3796	0.05388
3797	0.05243
3798	0.051
3799	0.04978
3800	0.04886
3801	0.04826
3802	0.04801
3803	0.04806
3804	0.0482
3805	0.04828
3806	0.04848
3807	0.04887
3808	0.04932
3809	0.04948
3810	0.04906
3811	0.04841
3812	0.04766
3813	0.04667
3814	0.04541
3815	0.0441
3816	0.04289
3817	0.04182
3818	0.04084
3819	0.03983
3820	0.03884
3821	0.03814
3822	0.0378
3823	0.03771
3824	0.03784
3825	0.03812
3826	0.03838
3827	0.03849
3828	0.0383
3829	0.03775
3830	0.03715
3831	0.03659
3832	0.03576
3833	0.03444
3834	0.0329
3835	0.03173
3836	0.03098
3837	0.03053
3838	0.0303
3839	0.03022
3840	0.03035
3841	0.03057
3842	0.03039
3843	0.02983
3844	0.02934
3845	0.02902
3846	0.02871
3847	0.02836
3848	0.0281
3849	0.02794
3850	0.02775
3851	0.02754
3852	0.02718
3853	0.02644
3854	0.02552
3855	0.02473
3856	0.02417
3857	0.02393
3858	0.02388
3859	0.0237
3860	0.02361
3861	0.02372
3862	0.02385
3863	0.02367
3864	0.02312
3865	0.02223
3866	0.02114
3867	0.02048
3868	0.02033
3869	0.02011
3870	0.01973
3871	0.01953
3872	0.01966
3873	0.01989
3874	0.01984
3875	0.01947
3876	0.01897
3877	0.01849
3878	0.01828
3879	0.01849
3880	0.01878
3881	0.01882
3882	0.01843
3883	0.0178
3884	0.01739
3885	0.01725
3886	0.01722
3887	0.01711
3888	0.01704
3889	0.01717
3890	0.01742
3891	0.01759
3892	0.01742
3893	0.01682
3894	0.01594
3895	0.01495
3896	0.0139
3897	0.01275
3898	0.0116
3899	0.01075
3900	0.01036
3901	0.01032
3902	0.01045
3903	0.01067
3904	0.01092
3905	0.01122
3906	0.0115
3907	0.01186
3908	0.01238
3909	0.01298
3910	0.01355
3911	0.01402
3912	0.01443
3913	0.01467
3914	0.01454
3915	0.01406
3916	0.01339
3917	0.01264
3918	0.01187
3919	0.01117
3920	0.01057
3921	0.01003
3922	0.0095
3923	0.00902
3924	0.00862
3925	0.00836
3926	0.00827
3927	0.00833
3928	0.00841
3929	0.00845
3930	0.0085
3931	0.00859
3932	0.00857
3933	0.00848
3934	0.0085
3935	0.00866
3936	0.00877
3937	0.00864
3938	0.00837
3939	0.00812
3940	0.00794
3941	0.00778
3942	0.00756
3943	0.00725
3944	0.00685
3945	0.00641
3946	0.006
3947	0.00568
3948	0.0055
3949	0.00546
3950	0.00547
3951	0.00548
3952	0.0055
3953	0.00558
3954	0.00565
3955	0.00561
3956	0.00552
3957	0.00551
3958	0.00559
3959	0.00569
3960	0.00571
3961	0.00561
3962	0.00542
3963	0.00517
3964	0.00492
3965	0.00466
3966	0.00438
3967	0.00415
3968	0.004
3969	0.00391
3970	0.00381
3971	0.0037
3972	0.00355
3973	0.00336
3974	0.00311
3975	0.00286
3976	0.00266
3977	0.00254
3978	0.00247
3979	0.0024
3980	0.00232
3981	0.0022
3982	0.00205
3983	0.00191
3984	0.00176
3985	0.00161
3986	0.00145
3987	0.00127
3988	0.00107
3989	9.4461E-4
3990	8.24069E-4
3991	7.10462E-4
3992	6.03788E-4
3993	5.04047E-4
3994	4.1124E-4
3995	3.25367E-4
3996	2.46427E-4
3997	1.7442E-4
3998	1.09346E-4
3999	5.12065E-5
4000	0