4000.18193	0.00909
3999.21756	0.00948
3998.2532	0.00985
3997.28884	0.01022
3996.32447	0.01057
3995.36011	0.0109
3994.39574	0.01123
3993.43138	0.01154
3992.46702	0.01184
3991.50265	0.01212
3990.53829	0.01239
3989.57392	0.01265
3988.60956	0.0129
3987.6452	0.0128
3986.68083	0.01272
3985.71647	0.01276
3984.7521	0.01289
3983.78774	0.01321
3982.82338	0.01376
3981.85901	0.01433
3980.89465	0.01478
3979.93028	0.01532
3978.96592	0.01608
3978.00156	0.01693
3977.03719	0.01763
3976.07283	0.01808
3975.10846	0.01827
3974.1441	0.01823
3973.17974	0.01821
3972.21537	0.0184
3971.25101	0.01873
3970.28664	0.01908
3969.32228	0.01939
3968.35792	0.01967
3967.39355	0.01996
3966.42919	0.02017
3965.46482	0.02024
3964.50046	0.02034
3963.5361	0.02057
3962.57173	0.02069
3961.60737	0.0207
3960.643	0.02093
3959.67864	0.0215
3958.71428	0.02248
3957.74991	0.02386
3956.78555	0.02526
3955.82118	0.02616
3954.85682	0.02656
3953.89246	0.02718
3952.92809	0.02835
3951.96373	0.02968
3950.99936	0.03093
3950.035	0.0322
3949.07064	0.03345
3948.10627	0.03439
3947.14191	0.03481
3946.17754	0.03474
3945.21318	0.03421
3944.24882	0.03337
3943.28445	0.03258
3942.32009	0.03209
3941.35572	0.03194
3940.39136	0.03216
3939.427	0.03259
3938.46263	0.03309
3937.49827	0.0334
3936.5339	0.03349
3935.56954	0.03412
3934.60518	0.03543
3933.64081	0.03668
3932.67645	0.03751
3931.71208	0.03843
3930.74772	0.04003
3929.78336	0.04159
3928.81899	0.04242
3927.85463	0.04322
3926.89026	0.04449
3925.9259	0.04575
3924.96154	0.04645
3923.99717	0.04646
3923.03281	0.04593
3922.06844	0.04515
3921.10408	0.04446
3920.13972	0.04401
3919.17535	0.04335
3918.21099	0.04198
3917.24662	0.03992
3916.28226	0.03766
3915.3179	0.03576
3914.35353	0.03459
3913.38917	0.03495
3912.4248	0.03713
3911.46044	0.03993
3910.49608	0.04264
3909.53171	0.04583
3908.56735	0.04973
3907.60298	0.05379
3906.63862	0.05722
3905.67426	0.06014
3904.70989	0.06298
3903.74553	0.06518
3902.78116	0.06692
3901.8168	0.06892
3900.85244	0.07078
3899.88807	0.07179
3898.92371	0.0714
3897.95934	0.06937
3896.99498	0.06638
3896.03062	0.06335
3895.06625	0.06054
3894.10189	0.05824
3893.13752	0.05656
3892.17316	0.05566
3891.2088	0.05641
3890.24443	0.05858
3889.28007	0.06107
3888.3157	0.06313
3887.35134	0.06473
3886.38698	0.06561
3885.42261	0.06583
3884.45825	0.06586
3883.49388	0.06528
3882.52952	0.06381
3881.56516	0.06239
3880.60079	0.06331
3879.63643	0.0665
3878.67206	0.07006
3877.7077	0.07196
3876.74333	0.07197
3875.77897	0.07183
3874.81461	0.07256
3873.85024	0.07452
3872.88588	0.07758
3871.92151	0.08067
3870.95715	0.083
3869.99279	0.08426
3869.02842	0.08508
3868.06406	0.0862
3867.09969	0.0865
3866.13533	0.0847
3865.17097	0.08088
3864.2066	0.07857
3863.24224	0.07904
3862.27787	0.08162
3861.31351	0.085
3860.34915	0.08798
3859.38478	0.09064
3858.42042	0.09376
3857.45605	0.09724
3856.49169	0.09873
3855.52733	0.09803
3854.56296	0.09654
3853.5986	0.09527
3852.63423	0.09446
3851.66987	0.09361
3850.70551	0.09292
3849.74114	0.09275
3848.77678	0.0929
3847.81241	0.09256
3846.84805	0.09161
3845.88369	0.09076
3844.91932	0.09024
3843.95496	0.08946
3842.99059	0.08873
3842.02623	0.08993
3841.06187	0.09432
3840.0975	0.09879
3839.13314	0.10142
3838.16877	0.10287
3837.20441	0.10375
3836.24005	0.10362
3835.27568	0.10201
3834.31132	0.09879
3833.34695	0.09399
3832.38259	0.0897
3831.41823	0.08794
3830.45386	0.0873
3829.4895	0.08685
3828.52513	0.08689
3827.56077	0.08819
3826.59641	0.09145
3825.63204	0.09586
3824.66768	0.10008
3823.70331	0.10366
3822.73895	0.10649
3821.77459	0.10812
3820.81022	0.10845
3819.84586	0.10777
3818.88149	0.10609
3817.91713	0.10404
3816.95277	0.10205
3815.9884	0.09985
3815.02404	0.09717
3814.05967	0.09354
3813.09531	0.08961
3812.13095	0.0873
3811.16658	0.08645
3810.20222	0.08676
3809.23785	0.08896
3808.27349	0.09269
3807.30913	0.0965
3806.34476	0.10009
3805.3804	0.10349
3804.41603	0.10722
3803.45167	0.11111
3802.48731	0.11375
3801.52294	0.11476
3800.55858	0.11435
3799.59421	0.11272
3798.62985	0.10987
3797.66549	0.10586
3796.70112	0.10132
3795.73676	0.09758
3794.77239	0.09527
3793.80803	0.09302
3792.84367	0.08972
3791.8793	0.08568
3790.91494	0.08244
3789.95057	0.08202
3788.98621	0.08414
3788.02185	0.08631
3787.05748	0.08789
3786.09312	0.0893
3785.12875	0.09114
3784.16439	0.09324
3783.20003	0.09456
3782.23566	0.09478
3781.2713	0.09481
3780.30693	0.09557
3779.34257	0.09662
3778.37821	0.0973
3777.41384	0.09764
3776.44948	0.09831
3775.48511	0.09939
3774.52075	0.10065
3773.55639	0.10214
3772.59202	0.10351
3771.62766	0.10402
3770.66329	0.1043
3769.69893	0.1052
3768.73457	0.10671
3767.7702	0.10917
3766.80584	0.11242
3765.84147	0.11514
3764.87711	0.11644
3763.91275	0.11619
3762.94838	0.11594
3761.98402	0.11694
3761.01965	0.11946
3760.05529	0.12342
3759.09093	0.12845
3758.12656	0.13438
3757.1622	0.1403
3756.19783	0.14552
3755.23347	0.15126
3754.26911	0.15735
3753.30474	0.16326
3752.34038	0.16821
3751.37601	0.17178
3750.41165	0.17363
3749.44729	0.17373
3748.48292	0.17258
3747.51856	0.17113
3746.55419	0.17065
3745.58983	0.17134
3744.62547	0.17214
3743.6611	0.17249
3742.69674	0.1724
3741.73237	0.17192
3740.76801	0.17143
3739.80365	0.17171
3738.83928	0.17223
3737.87492	0.17259
3736.91055	0.1729
3735.94619	0.17272
3734.98182	0.17175
3734.01746	0.17058
3733.0531	0.17059
3732.08873	0.17142
3731.12437	0.17101
3730.16	0.16964
3729.19564	0.16789
3728.23128	0.16535
3727.26691	0.16158
3726.30255	0.15704
3725.33818	0.15248
3724.37382	0.14857
3723.40946	0.1469
3722.44509	0.14781
3721.48073	0.14997
3720.51636	0.15347
3719.552	0.15773
3718.58764	0.16132
3717.62327	0.16364
3716.65891	0.16492
3715.69454	0.16568
3714.73018	0.16625
3713.76582	0.16677
3712.80145	0.16757
3711.83709	0.16879
3710.87272	0.17045
3709.90836	0.17217
3708.944	0.17293
3707.97963	0.17277
3707.01527	0.17226
3706.0509	0.17114
3705.08654	0.16887
3704.12218	0.16543
3703.15781	0.16098
3702.19345	0.15658
3701.22908	0.15372
3700.26472	0.15379
3699.30036	0.15768
3698.33599	0.16368
3697.37163	0.17017
3696.40726	0.176
3695.4429	0.18087
3694.47854	0.18494
3693.51417	0.18815
3692.54981	0.1902
3691.58544	0.19124
3690.62108	0.19227
3689.65672	0.19389
3688.69235	0.19498
3687.72799	0.19429
3686.76362	0.19399
3685.79926	0.19655
3684.8349	0.2003
3683.87053	0.20364
3682.90617	0.20543
3681.9418	0.20589
3680.97744	0.20723
3680.01308	0.2107
3679.04871	0.21643
3678.08435	0.2236
3677.11998	0.23108
3676.15562	0.23828
3675.19126	0.24407
3674.22689	0.24798
3673.26253	0.2502
3672.29816	0.25095
3671.3338	0.2503
3670.36944	0.24821
3669.40507	0.24466
3668.44071	0.24001
3667.47634	0.23562
3666.51198	0.23223
3665.54762	0.22941
3664.58325	0.22736
3663.61889	0.2273
3662.65452	0.22773
3661.69016	0.2267
3660.7258	0.22663
3659.76143	0.22873
3658.79707	0.2346
3657.8327	0.24514
3656.86834	0.25765
3655.90398	0.26942
3654.93961	0.27941
3653.97525	0.28782
3653.01088	0.29517
3652.04652	0.30147
3651.08216	0.30638
3650.11779	0.30981
3649.15343	0.31205
3648.18906	0.31331
3647.2247	0.31327
3646.26034	0.31172
3645.29597	0.30945
3644.33161	0.30764
3643.36724	0.30552
3642.40288	0.3015
3641.43852	0.29523
3640.47415	0.28888
3639.50979	0.28595
3638.54542	0.28731
3637.58106	0.29249
3636.6167	0.29961
3635.65233	0.30776
3634.68797	0.31576
3633.7236	0.32213
3632.75924	0.32656
3631.79488	0.32962
3630.83051	0.3325
3629.86615	0.33621
3628.90178	0.34065
3627.93742	0.3449
3626.97306	0.34838
3626.00869	0.3512
3625.04433	0.35363
3624.07996	0.35593
3623.1156	0.35844
3622.15124	0.36091
3621.18687	0.36272
3620.22251	0.36358
3619.25814	0.3643
3618.29378	0.36635
3617.32942	0.37122
3616.36505	0.37793
3615.40069	0.38333
3614.43632	0.38701
3613.47196	0.38908
3612.5076	0.38973
3611.54323	0.3895
3610.57887	0.38887
3609.6145	0.38825
3608.65014	0.38802
3607.68578	0.38847
3606.72141	0.38985
3605.75705	0.39174
3604.79268	0.39341
3603.82832	0.39509
3602.86396	0.39721
3601.89959	0.39963
3600.93523	0.40171
3599.97086	0.40287
3599.0065	0.40371
3598.04214	0.406
3597.07777	0.41036
3596.11341	0.41601
3595.14904	0.42193
3594.18468	0.42729
3593.22031	0.43143
3592.25595	0.43431
3591.29159	0.43646
3590.32722	0.43839
3589.36286	0.44027
3588.39849	0.44218
3587.43413	0.444
3586.46977	0.4455
3585.5054	0.44665
3584.54104	0.4477
3583.57667	0.44888
3582.61231	0.44997
3581.64795	0.45058
3580.68358	0.45032
3579.71922	0.4487
3578.75485	0.4465
3577.79049	0.44583
3576.82613	0.44822
3575.86176	0.45373
3574.8974	0.4612
3573.93303	0.46877
3572.96867	0.47541
3572.00431	0.48127
3571.03994	0.48674
3570.07558	0.49173
3569.11121	0.49605
3568.14685	0.49985
3567.18249	0.50304
3566.21812	0.50526
3565.25376	0.50654
3564.28939	0.5072
3563.32503	0.50773
3562.36067	0.5083
3561.3963	0.50843
3560.43194	0.50753
3559.46757	0.50558
3558.50321	0.50309
3557.53885	0.5008
3556.57448	0.49974
3555.61012	0.50121
3554.64575	0.50539
3553.68139	0.51071
3552.71703	0.51554
3551.75266	0.51962
3550.7883	0.52315
3549.82393	0.52608
3548.85957	0.52847
3547.89521	0.53067
3546.93084	0.53285
3545.96648	0.53479
3545.00211	0.53627
3544.03775	0.53711
3543.07339	0.53734
3542.10902	0.53734
3541.14466	0.53753
3540.18029	0.53805
3539.21593	0.53871
3538.25157	0.53936
3537.2872	0.54002
3536.32284	0.54085
3535.35847	0.54227
3534.39411	0.54489
3533.42975	0.54882
3532.46538	0.55341
3531.50102	0.55778
3530.53665	0.56155
3529.57229	0.56471
3528.60793	0.56738
3527.64356	0.56958
3526.6792	0.57132
3525.71483	0.57275
3524.75047	0.57416
3523.78611	0.57549
3522.82174	0.57624
3521.85738	0.57623
3520.89301	0.57594
3519.92865	0.57599
3518.96429	0.5764
3517.99992	0.57687
3517.03556	0.57733
3516.07119	0.57792
3515.10683	0.57877
3514.14247	0.58009
3513.1781	0.58215
3512.21374	0.58507
3511.24937	0.58871
3510.28501	0.59245
3509.32065	0.59561
3508.35628	0.59819
3507.39192	0.60062
3506.42755	0.60312
3505.46319	0.60554
3504.49883	0.60765
3503.53446	0.60935
3502.5701	0.61066
3501.60573	0.61165
3500.64137	0.61236
3499.67701	0.61295
3498.71264	0.61382
3497.74828	0.61519
3496.78391	0.6168
3495.81955	0.61806
3494.85519	0.61873
3493.89082	0.61914
3492.92646	0.61994
3491.96209	0.62163
3490.99773	0.62427
3490.03337	0.62733
3489.069	0.63017
3488.10464	0.63254
3487.14027	0.63448
3486.17591	0.63626
3485.21155	0.63818
3484.24718	0.64028
3483.28282	0.64239
3482.31845	0.64429
3481.35409	0.64593
3480.38973	0.64731
3479.42536	0.64845
3478.461	0.64942
3477.49663	0.65043
3476.53227	0.6516
3475.56791	0.65286
3474.60354	0.65397
3473.63918	0.65503
3472.67481	0.65619
3471.71045	0.65751
3470.74609	0.6591
3469.78172	0.66104
3468.81736	0.66315
3467.85299	0.66519
3466.88863	0.66704
3465.92427	0.66872
3464.9599	0.67028
3463.99554	0.67181
3463.03117	0.67339
3462.06681	0.67498
3461.10245	0.67638
3460.13808	0.67742
3459.17372	0.6782
3458.20935	0.67919
3457.24499	0.68057
3456.28062	0.68212
3455.31626	0.68366
3454.3519	0.68517
3453.38753	0.68671
3452.42317	0.68831
3451.4588	0.68995
3450.49444	0.69167
3449.53008	0.69336
3448.56571	0.69484
3447.60135	0.6961
3446.63698	0.69718
3445.67262	0.69809
3444.70826	0.69883
3443.74389	0.6994
3442.77953	0.69983
3441.81516	0.70009
3440.8508	0.70018
3439.88644	0.70007
3438.92207	0.69981
3437.95771	0.69944
3436.99334	0.69905
3436.02898	0.69893
3435.06462	0.69925
3434.10025	0.69972
3433.13589	0.70001
3432.17152	0.70028
3431.20716	0.70088
3430.2428	0.7019
3429.27843	0.70303
3428.31407	0.70401
3427.3497	0.70485
3426.38534	0.70556
3425.42098	0.70614
3424.45661	0.7066
3423.49225	0.70693
3422.52788	0.70712
3421.56352	0.70717
3420.59916	0.70713
3419.63479	0.70701
3418.67043	0.7068
3417.70606	0.70646
3416.7417	0.70599
3415.77734	0.70545
3414.81297	0.70485
3413.84861	0.70423
3412.88424	0.70358
3411.91988	0.70294
3410.95552	0.70239
3409.99115	0.70195
3409.02679	0.70174
3408.06242	0.70183
3407.09806	0.70207
3406.1337	0.7022
3405.16933	0.70216
3404.20497	0.70211
3403.2406	0.70223
3402.27624	0.7025
3401.31188	0.70278
3400.34751	0.703
3399.38315	0.70312
3398.41878	0.7031
3397.45442	0.70296
3396.49006	0.70277
3395.52569	0.7026
3394.56133	0.70246
3393.59696	0.70231
3392.6326	0.70211
3391.66824	0.70187
3390.70387	0.70156
3389.73951	0.70118
3388.77514	0.70074
3387.81078	0.7002
3386.84642	0.69959
3385.88205	0.699
3384.91769	0.69846
3383.95332	0.69785
3382.98896	0.69709
3382.0246	0.69628
3381.06023	0.69557
3380.09587	0.69495
3379.1315	0.69422
3378.16714	0.69334
3377.20278	0.69238
3376.23841	0.69141
3375.27405	0.69043
3374.30968	0.68945
3373.34532	0.68855
3372.38096	0.68775
3371.41659	0.68698
3370.45223	0.68615
3369.48786	0.68522
3368.5235	0.6842
3367.55914	0.68314
3366.59477	0.6821
3365.63041	0.68109
3364.66604	0.68005
3363.70168	0.67893
3362.73732	0.67774
3361.77295	0.6765
3360.80859	0.67518
3359.84422	0.6738
3358.87986	0.67236
3357.9155	0.67088
3356.95113	0.6694
3355.98677	0.66793
3355.0224	0.66649
3354.05804	0.66509
3353.09368	0.6637
3352.12931	0.66231
3351.16495	0.66094
3350.20058	0.65959
3349.23622	0.65824
3348.27186	0.65689
3347.30749	0.6556
3346.34313	0.65438
3345.37876	0.65327
3344.4144	0.65225
3343.45004	0.65131
3342.48567	0.65036
3341.52131	0.64937
3340.55694	0.64835
3339.59258	0.6473
3338.62822	0.64623
3337.66385	0.64517
3336.69949	0.64412
3335.73512	0.64304
3334.77076	0.64193
3333.8064	0.64078
3332.84203	0.63961
3331.87767	0.63841
3330.9133	0.63717
3329.94894	0.6359
3328.98458	0.63463
3328.02021	0.63336
3327.05585	0.63205
3326.09148	0.63073
3325.12712	0.62947
3324.16276	0.62834
3323.19839	0.62727
3322.23403	0.62621
3321.26966	0.62511
3320.3053	0.62403
3319.34094	0.62304
3318.37657	0.62215
3317.41221	0.62127
3316.44784	0.62037
3315.48348	0.61945
3314.51911	0.61852
3313.55475	0.61754
3312.59039	0.61651
3311.62602	0.61546
3310.66166	0.61439
3309.69729	0.61331
3308.73293	0.61224
3307.76857	0.61118
3306.8042	0.61011
3305.83984	0.609
3304.87547	0.60785
3303.91111	0.60666
3302.94675	0.60552
3301.98238	0.60447
3301.01802	0.60349
3300.05365	0.60256
3299.08929	0.60169
3298.12493	0.60088
3297.16056	0.60013
3296.1962	0.59941
3295.23183	0.59866
3294.26747	0.59788
3293.30311	0.59712
3292.33874	0.59633
3291.37438	0.59552
3290.41001	0.59472
3289.44565	0.5939
3288.48129	0.59306
3287.51692	0.59226
3286.55256	0.59155
3285.58819	0.59091
3284.62383	0.59036
3283.65947	0.58986
3282.6951	0.58939
3281.73074	0.58895
3280.76637	0.58856
3279.80201	0.58819
3278.83765	0.5878
3277.87328	0.58735
3276.90892	0.5869
3275.94455	0.58646
3274.98019	0.58599
3274.01583	0.58547
3273.05146	0.5849
3272.0871	0.58433
3271.12273	0.58381
3270.15837	0.58326
3269.19401	0.58263
3268.22964	0.58199
3267.26528	0.58132
3266.30091	0.58061
3265.33655	0.57994
3264.37219	0.57943
3263.40782	0.579
3262.44346	0.57858
3261.47909	0.57818
3260.51473	0.57777
3259.55037	0.57728
3258.586	0.57669
3257.62164	0.57597
3256.65727	0.57521
3255.69291	0.57456
3254.72855	0.57403
3253.76418	0.57356
3252.79982	0.57311
3251.83545	0.57265
3250.87109	0.57218
3249.90673	0.57172
3248.94236	0.57128
3247.978	0.5709
3247.01363	0.57057
3246.04927	0.57024
3245.08491	0.56989
3244.12054	0.56952
3243.15618	0.56917
3242.19181	0.56887
3241.22745	0.56858
3240.26309	0.56821
3239.29872	0.56777
3238.33436	0.56731
3237.36999	0.56683
3236.40563	0.56629
3235.44127	0.56564
3234.4769	0.56493
3233.51254	0.56425
3232.54817	0.56359
3231.58381	0.56285
3230.61945	0.56204
3229.65508	0.56122
3228.69072	0.56039
3227.72635	0.55951
3226.76199	0.55853
3225.79763	0.55747
3224.83326	0.55644
3223.8689	0.55542
3222.90453	0.55431
3221.94017	0.55307
3220.97581	0.5518
3220.01144	0.55057
3219.04708	0.54932
3218.08271	0.54803
3217.11835	0.54669
3216.15399	0.54531
3215.18962	0.54389
3214.22526	0.54242
3213.26089	0.54086
3212.29653	0.5392
3211.33217	0.53745
3210.3678	0.53563
3209.40344	0.5338
3208.43907	0.53206
3207.47471	0.53046
3206.51035	0.52891
3205.54598	0.52732
3204.58162	0.52567
3203.61725	0.52399
3202.65289	0.52235
3201.68853	0.52074
3200.72416	0.51912
3199.7598	0.51746
3198.79543	0.51578
3197.83107	0.51412
3196.86671	0.51248
3195.90234	0.51085
3194.93798	0.50923
3193.97361	0.5076
3193.00925	0.50595
3192.04489	0.50423
3191.08052	0.50243
3190.11616	0.50059
3189.15179	0.49879
3188.18743	0.49708
3187.22307	0.49545
3186.2587	0.4939
3185.29434	0.49243
3184.32997	0.49097
3183.36561	0.48947
3182.40125	0.4879
3181.43688	0.48629
3180.47252	0.48467
3179.50815	0.48307
3178.54379	0.48147
3177.57943	0.47988
3176.61506	0.47829
3175.6507	0.47669
3174.68633	0.47511
3173.72197	0.47359
3172.7576	0.47211
3171.79324	0.47062
3170.82888	0.46906
3169.86451	0.46743
3168.90015	0.46571
3167.93578	0.46395
3166.97142	0.46219
3166.00706	0.46047
3165.04269	0.45868
3164.07833	0.45673
3163.11396	0.4546
3162.1496	0.45235
3161.18524	0.44998
3160.22087	0.4475
3159.25651	0.44491
3158.29214	0.44223
3157.32778	0.43949
3156.36342	0.43669
3155.39905	0.43383
3154.43469	0.43092
3153.47032	0.428
3152.50596	0.42509
3151.5416	0.42222
3150.57723	0.41938
3149.61287	0.41656
3148.6485	0.41375
3147.68414	0.41098
3146.71978	0.40824
3145.75541	0.40551
3144.79105	0.40284
3143.82668	0.40032
3142.86232	0.39794
3141.89796	0.39562
3140.93359	0.39333
3139.96923	0.39106
3139.00486	0.3888
3138.0405	0.3866
3137.07614	0.38448
3136.11177	0.38241
3135.14741	0.38031
3134.18304	0.37823
3133.21868	0.37627
3132.25432	0.3744
3131.28995	0.37254
3130.32559	0.37072
3129.36122	0.36895
3128.39686	0.36719
3127.4325	0.36543
3126.46813	0.36372
3125.50377	0.36206
3124.5394	0.36042
3123.57504	0.35875
3122.61068	0.35709
3121.64631	0.35549
3120.68195	0.35394
3119.71758	0.35235
3118.75322	0.35066
3117.78886	0.34891
3116.82449	0.34712
3115.86013	0.34528
3114.89576	0.34341
3113.9314	0.34152
3112.96704	0.33961
3112.00267	0.33774
3111.03831	0.33603
3110.07394	0.33446
3109.10958	0.33288
3108.14522	0.33125
3107.18085	0.32971
3106.21649	0.3283
3105.25212	0.32698
3104.28776	0.32575
3103.3234	0.32461
3102.35903	0.32349
3101.39467	0.32233
3100.4303	0.32114
3099.46594	0.31996
3098.50158	0.3188
3097.53721	0.31765
3096.57285	0.31649
3095.60848	0.31531
3094.64412	0.31411
3093.67976	0.31288
3092.71539	0.31165
3091.75103	0.31047
3090.78666	0.3094
3089.8223	0.30849
3088.85794	0.30776
3087.89357	0.30714
3086.92921	0.30653
3085.96484	0.30592
3085.00048	0.30535
3084.03612	0.3049
3083.07175	0.30452
3082.10739	0.30418
3081.14302	0.30387
3080.17866	0.30357
3079.2143	0.30328
3078.24993	0.30303
3077.28557	0.30285
3076.3212	0.30274
3075.35684	0.30275
3074.39248	0.30286
3073.42811	0.30299
3072.46375	0.30308
3071.49938	0.30314
3070.53502	0.30322
3069.57066	0.30329
3068.60629	0.30332
3067.64193	0.30335
3066.67756	0.30342
3065.7132	0.30344
3064.74884	0.30332
3063.78447	0.30303
3062.82011	0.30258
3061.85574	0.30198
3060.89138	0.30129
3059.92702	0.30059
3058.96265	0.29991
3057.99829	0.29923
3057.03392	0.29854
3056.06956	0.29784
3055.1052	0.29719
3054.14083	0.29654
3053.17647	0.29586
3052.2121	0.29515
3051.24774	0.29434
3050.28338	0.29336
3049.31901	0.29223
3048.35465	0.29098
3047.39028	0.28962
3046.42592	0.28818
3045.46156	0.28673
3044.49719	0.2853
3043.53283	0.28385
3042.56846	0.2824
3041.6041	0.28103
3040.63974	0.27972
3039.67537	0.27841
3038.71101	0.27707
3037.74664	0.27575
3036.78228	0.27454
3035.81792	0.27339
3034.85355	0.27223
3033.88919	0.27103
3032.92482	0.26979
3031.96046	0.26851
3030.99609	0.26715
3030.03173	0.2657
3029.06737	0.26416
3028.103	0.26253
3027.13864	0.26087
3026.17427	0.2592
3025.20991	0.25754
3024.24555	0.25594
3023.28118	0.25454
3022.31682	0.25337
3021.35245	0.25241
3020.38809	0.25166
3019.42373	0.25114
3018.45936	0.25074
3017.495	0.25031
3016.53063	0.24981
3015.56627	0.24932
3014.60191	0.24891
3013.63754	0.24857
3012.67318	0.24826
3011.70881	0.24794
3010.74445	0.2476
3009.78009	0.24727
3008.81572	0.24695
3007.85136	0.24666
3006.88699	0.2464
3005.92263	0.24622
3004.95827	0.24616
3003.9939	0.24629
3003.02954	0.24662
3002.06517	0.24718
3001.10081	0.24802
3000.13645	0.24919
2999.17208	0.25066
2998.20772	0.25246
2997.24335	0.25457
2996.27899	0.25694
2995.31463	0.25958
2994.35026	0.2625
2993.3859	0.26572
2992.42153	0.26925
2991.45717	0.27304
2990.49281	0.27702
2989.52844	0.28112
2988.56408	0.28534
2987.59971	0.28962
2986.63535	0.29392
2985.67099	0.29824
2984.70662	0.30255
2983.74226	0.30685
2982.77789	0.3111
2981.81353	0.31522
2980.84917	0.31911
2979.8848	0.32274
2978.92044	0.32606
2977.95607	0.32903
2976.99171	0.33166
2976.02735	0.33397
2975.06298	0.33598
2974.09862	0.33769
2973.13425	0.33911
2972.16989	0.34029
2971.20553	0.34127
2970.24116	0.34212
2969.2768	0.34288
2968.31243	0.34357
2967.34807	0.34423
2966.38371	0.34489
2965.41934	0.34561
2964.45498	0.34639
2963.49061	0.34728
2962.52625	0.3483
2961.56189	0.34946
2960.59752	0.35077
2959.63316	0.3522
2958.66879	0.35372
2957.70443	0.35533
2956.74007	0.35706
2955.7757	0.35894
2954.81134	0.36098
2953.84697	0.36321
2952.88261	0.36567
2951.91825	0.36836
2950.95388	0.37134
2949.98952	0.37462
2949.02515	0.3782
2948.06079	0.3821
2947.09643	0.3863
2946.13206	0.39076
2945.1677	0.39546
2944.20333	0.40034
2943.23897	0.40534
2942.27461	0.41035
2941.31024	0.41529
2940.34588	0.42007
2939.38151	0.42459
2938.41715	0.42877
2937.45279	0.43254
2936.48842	0.43582
2935.52406	0.43856
2934.55969	0.44073
2933.59533	0.44232
2932.63097	0.44335
2931.6666	0.44382
2930.70224	0.44372
2929.73787	0.44311
2928.77351	0.44202
2927.80915	0.44051
2926.84478	0.4386
2925.88042	0.43636
2924.91605	0.43379
2923.95169	0.43095
2922.98733	0.4279
2922.02296	0.42468
2921.0586	0.42134
2920.09423	0.4179
2919.12987	0.41441
2918.16551	0.41089
2917.20114	0.40739
2916.23678	0.40392
2915.27241	0.40051
2914.30805	0.39716
2913.34369	0.3939
2912.37932	0.39075
2911.41496	0.38771
2910.45059	0.38478
2909.48623	0.38194
2908.52187	0.37917
2907.5575	0.37649
2906.59314	0.37387
2905.62877	0.37132
2904.66441	0.36881
2903.70005	0.36633
2902.73568	0.36387
2901.77132	0.36145
2900.80695	0.35906
2899.84259	0.35672
2898.87823	0.35443
2897.91386	0.35221
2896.9495	0.35007
2895.98513	0.34802
2895.02077	0.34608
2894.05641	0.34425
2893.09204	0.34252
2892.12768	0.34087
2891.16331	0.33928
2890.19895	0.33771
2889.23458	0.33616
2888.27022	0.33461
2887.30586	0.33305
2886.34149	0.33145
2885.37713	0.32984
2884.41276	0.32819
2883.4484	0.3265
2882.48404	0.32478
2881.51967	0.323
2880.55531	0.32113
2879.59094	0.31918
2878.62658	0.31713
2877.66222	0.31497
2876.69785	0.31267
2875.73349	0.31023
2874.76912	0.30763
2873.80476	0.3049
2872.8404	0.30203
2871.87603	0.29904
2870.91167	0.29592
2869.9473	0.2927
2868.98294	0.28938
2868.01858	0.28603
2867.05421	0.28267
2866.08985	0.27933
2865.12548	0.27606
2864.16112	0.27287
2863.19676	0.26979
2862.23239	0.26682
2861.26803	0.26397
2860.30366	0.26121
2859.3393	0.25856
2858.37494	0.25597
2857.41057	0.25342
2856.44621	0.25087
2855.48184	0.24832
2854.51748	0.24575
2853.55312	0.24317
2852.58875	0.24058
2851.62439	0.23799
2850.66002	0.23539
2849.69566	0.2328
2848.7313	0.23024
2847.76693	0.22772
2846.80257	0.22526
2845.8382	0.22287
2844.87384	0.22059
2843.90948	0.21842
2842.94511	0.21633
2841.98075	0.21434
2841.01638	0.21245
2840.05202	0.21067
2839.08766	0.20899
2838.12329	0.20739
2837.15893	0.20585
2836.19456	0.20437
2835.2302	0.20293
2834.26584	0.20151
2833.30147	0.2001
2832.33711	0.1987
2831.37274	0.19732
2830.40838	0.19596
2829.44402	0.19462
2828.47965	0.19328
2827.51529	0.19196
2826.55092	0.19065
2825.58656	0.18936
2824.6222	0.1881
2823.65783	0.18687
2822.69347	0.18567
2821.7291	0.18449
2820.76474	0.18335
2819.80038	0.18224
2818.83601	0.18116
2817.87165	0.18011
2816.90728	0.17907
2815.94292	0.17804
2814.97856	0.17701
2814.01419	0.17598
2813.04983	0.17495
2812.08546	0.17393
2811.1211	0.1729
2810.15674	0.17187
2809.19237	0.17083
2808.22801	0.16979
2807.26364	0.16875
2806.29928	0.1677
2805.33492	0.16664
2804.37055	0.16557
2803.40619	0.1645
2802.44182	0.16342
2801.47746	0.16235
2800.5131	0.16128
2799.54873	0.16021
2798.58437	0.15914
2797.62	0.15807
2796.65564	0.15701
2795.69128	0.15595
2794.72691	0.15487
2793.76255	0.15378
2792.79818	0.15269
2791.83382	0.15159
2790.86946	0.15048
2789.90509	0.14936
2788.94073	0.14822
2787.97636	0.14708
2787.012	0.14592
2786.04764	0.14477
2785.08327	0.14362
2784.11891	0.14247
2783.15454	0.14132
2782.19018	0.14017
2781.22582	0.13902
2780.26145	0.13788
2779.29709	0.13674
2778.33272	0.13561
2777.36836	0.1345
2776.404	0.13341
2775.43963	0.13234
2774.47527	0.13129
2773.5109	0.13026
2772.54654	0.12925
2771.58218	0.12827
2770.61781	0.12731
2769.65345	0.12637
2768.68908	0.12546
2767.72472	0.12458
2766.76036	0.12374
2765.79599	0.12293
2764.83163	0.12215
2763.86726	0.12142
2762.9029	0.12072
2761.93854	0.12006
2760.97417	0.11942
2760.00981	0.1188
2759.04544	0.11821
2758.08108	0.11766
2757.11672	0.11714
2756.15235	0.11664
2755.18799	0.11616
2754.22362	0.1157
2753.25926	0.11525
2752.2949	0.11482
2751.33053	0.11439
2750.36617	0.11395
2749.4018	0.11351
2748.43744	0.11306
2747.47307	0.1126
2746.50871	0.11215
2745.54435	0.11169
2744.57998	0.11123
2743.61562	0.11076
2742.65125	0.11026
2741.68689	0.10975
2740.72253	0.10921
2739.75816	0.10865
2738.7938	0.10807
2737.82943	0.10749
2736.86507	0.10691
2735.90071	0.10635
2734.93634	0.1058
2733.97198	0.10527
2733.00761	0.10474
2732.04325	0.10423
2731.07889	0.10372
2730.11452	0.10323
2729.15016	0.10274
2728.18579	0.10228
2727.22143	0.10183
2726.25707	0.10139
2725.2927	0.10097
2724.32834	0.10058
2723.36397	0.1002
2722.39961	0.09983
2721.43525	0.09947
2720.47088	0.09912
2719.50652	0.09877
2718.54215	0.09843
2717.57779	0.09808
2716.61343	0.09772
2715.64906	0.09736
2714.6847	0.09702
2713.72033	0.09667
2712.75597	0.09631
2711.79161	0.09595
2710.82724	0.09558
2709.86288	0.09521
2708.89851	0.09484
2707.93415	0.09446
2706.96979	0.09407
2706.00542	0.09369
2705.04106	0.0933
2704.07669	0.09291
2703.11233	0.09251
2702.14797	0.09212
2701.1836	0.09172
2700.21924	0.09131
2699.25487	0.0909
2698.29051	0.09049
2697.32615	0.09008
2696.36178	0.08967
2695.39742	0.08924
2694.43305	0.08879
2693.46869	0.08833
2692.50433	0.08787
2691.53996	0.0874
2690.5756	0.0869
2689.61123	0.08638
2688.64687	0.08586
2687.68251	0.08533
2686.71814	0.08481
2685.75378	0.08428
2684.78941	0.08373
2683.82505	0.08317
2682.86069	0.08259
2681.89632	0.08202
2680.93196	0.08144
2679.96759	0.08087
2679.00323	0.08029
2678.03887	0.0797
2677.0745	0.07912
2676.11014	0.07854
2675.14577	0.07798
2674.18141	0.07743
2673.21705	0.0769
2672.25268	0.0764
2671.28832	0.07591
2670.32395	0.07544
2669.35959	0.075
2668.39523	0.07459
2667.43086	0.07422
2666.4665	0.07388
2665.50213	0.0736
2664.53777	0.07337
2663.57341	0.07318
2662.60904	0.07304
2661.64468	0.07295
2660.68031	0.07292
2659.71595	0.07293
2658.75159	0.07301
2657.78722	0.07314
2656.82286	0.0733
2655.85849	0.07348
2654.89413	0.07369
2653.92977	0.07393
2652.9654	0.07417
2652.00104	0.0744
2651.03667	0.0746
2650.07231	0.07477
2649.10795	0.0749
2648.14358	0.07496
2647.17922	0.07496
2646.21485	0.07487
2645.25049	0.07469
2644.28613	0.07442
2643.32176	0.07408
2642.3574	0.07365
2641.39303	0.07313
2640.42867	0.07254
2639.46431	0.0719
2638.49994	0.07121
2637.53558	0.07049
2636.57121	0.06974
2635.60685	0.06899
2634.64249	0.06824
2633.67812	0.06752
2632.71376	0.06683
2631.74939	0.06618
2630.78503	0.06558
2629.82067	0.06505
2628.8563	0.06458
2627.89194	0.06417
2626.92757	0.06382
2625.96321	0.06355
2624.99885	0.06335
2624.03448	0.0632
2623.07012	0.06308
2622.10575	0.06301
2621.14139	0.06297
2620.17703	0.06295
2619.21266	0.06295
2618.2483	0.06295
2617.28393	0.06294
2616.31957	0.06294
2615.35521	0.06293
2614.39084	0.06291
2613.42648	0.06287
2612.46211	0.06281
2611.49775	0.06274
2610.53339	0.06265
2609.56902	0.06254
2608.60466	0.06239
2607.64029	0.06221
2606.67593	0.062
2605.71156	0.06177
2604.7472	0.06151
2603.78284	0.06123
2602.81847	0.06092
2601.85411	0.06058
2600.88974	0.06021
2599.92538	0.05981
2598.96102	0.05938
2597.99665	0.05892
2597.03229	0.05844
2596.06792	0.05795
2595.10356	0.05744
2594.1392	0.05692
2593.17483	0.05641
2592.21047	0.0559
2591.2461	0.0554
2590.28174	0.05492
2589.31738	0.05444
2588.35301	0.05397
2587.38865	0.0535
2586.42428	0.05302
2585.45992	0.05256
2584.49556	0.05208
2583.53119	0.05161
2582.56683	0.05113
2581.60246	0.05064
2580.6381	0.05014
2579.67374	0.04963
2578.70937	0.04908
2577.74501	0.04852
2576.78064	0.04795
2575.81628	0.04738
2574.85192	0.0468
2573.88755	0.04622
2572.92319	0.04563
2571.95882	0.04505
2570.99446	0.04448
2570.0301	0.04391
2569.06573	0.04334
2568.10137	0.0428
2567.137	0.04226
2566.17264	0.04173
2565.20828	0.04121
2564.24391	0.0407
2563.27955	0.04022
2562.31518	0.03975
2561.35082	0.03929
2560.38646	0.03882
2559.42209	0.03837
2558.45773	0.03791
2557.49336	0.03747
2556.529	0.03702
2555.56464	0.03657
2554.60027	0.03612
2553.63591	0.03569
2552.67154	0.03527
2551.70718	0.03485
2550.74282	0.03444
2549.77845	0.03403
2548.81409	0.03363
2547.84972	0.03324
2546.88536	0.03286
2545.921	0.03248
2544.95663	0.0321
2543.99227	0.03174
2543.0279	0.03139
2542.06354	0.03105
2541.09918	0.03072
2540.13481	0.03038
2539.17045	0.03005
2538.20608	0.02973
2537.24172	0.02942
2536.27736	0.02912
2535.31299	0.02882
2534.34863	0.02853
2533.38426	0.02825
2532.4199	0.02798
2531.45554	0.02771
2530.49117	0.02745
2529.52681	0.0272
2528.56244	0.02697
2527.59808	0.02675
2526.63372	0.02653
2525.66935	0.02631
2524.70499	0.02611
2523.74062	0.02591
2522.77626	0.02572
2521.8119	0.02553
2520.84753	0.02535
2519.88317	0.02518
2518.9188	0.02502
2517.95444	0.02487
2516.99008	0.02471
2516.02571	0.02455
2515.06135	0.0244
2514.09698	0.02426
2513.13262	0.02412
2512.16826	0.02398
2511.20389	0.02386
2510.23953	0.02374
2509.27516	0.02362
2508.3108	0.0235
2507.34644	0.02337
2506.38207	0.02325
2505.41771	0.02315
2504.45334	0.02304
2503.48898	0.02294
2502.52462	0.02283
2501.56025	0.02271
2500.59589	0.02261
2499.63152	0.0225
2498.66716	0.02239
2497.7028	0.02228
2496.73843	0.02217
2495.77407	0.02206
2494.8097	0.02195
2493.84534	0.02183
2492.88098	0.0217
2491.91661	0.02155
2490.95225	0.02141
2489.98788	0.02127
2489.02352	0.02113
2488.05916	0.02098
2487.09479	0.02082
2486.13043	0.02066
2485.16606	0.02051
2484.2017	0.02035
2483.23734	0.02018
2482.27297	0.02002
2481.30861	0.01986
2480.34424	0.01971
2479.37988	0.01955
2478.41552	0.01938
2477.45115	0.01921
2476.48679	0.01904
2475.52242	0.01887
2474.55806	0.0187
2473.5937	0.01852
2472.62933	0.01835
2471.66497	0.01817
2470.7006	0.018
2469.73624	0.01783
2468.77187	0.01765
2467.80751	0.01747
2466.84315	0.0173
2465.87878	0.01714
2464.91442	0.01698
2463.95005	0.01682
2462.98569	0.01665
2462.02133	0.01648
2461.05696	0.01633
2460.0926	0.01618
2459.12823	0.01603
2458.16387	0.01588
2457.19951	0.01574
2456.23514	0.01559
2455.27078	0.01544
2454.30641	0.01528
2453.34205	0.01513
2452.37769	0.015
2451.41332	0.01488
2450.44896	0.01476
2449.48459	0.01464
2448.52023	0.01453
2447.55587	0.01445
2446.5915	0.01437
2445.62714	0.01429
2444.66277	0.0142
2443.69841	0.01412
2442.73405	0.01404
2441.76968	0.01397
2440.80532	0.01387
2439.84095	0.01377
2438.87659	0.01366
2437.91223	0.01356
2436.94786	0.01346
2435.9835	0.01334
2435.01913	0.01319
2434.05477	0.01304
2433.09041	0.0129
2432.12604	0.01277
2431.16168	0.01262
2430.19731	0.01247
2429.23295	0.01231
2428.26859	0.01217
2427.30422	0.01207
2426.33986	0.01198
2425.37549	0.01189
2424.41113	0.0118
2423.44677	0.01172
2422.4824	0.01163
2421.51804	0.01155
2420.55367	0.01147
2419.58931	0.0114
2418.62495	0.01135
2417.66058	0.01129
2416.69622	0.01124
2415.73185	0.01119
2414.76749	0.01115
2413.80313	0.01112
2412.83876	0.01109
2411.8744	0.01107
2410.91003	0.01104
2409.94567	0.01102
2408.98131	0.01101
2408.01694	0.011
2407.05258	0.011
2406.08821	0.01099
2405.12385	0.01098
2404.15949	0.01099
2403.19512	0.01101
2402.23076	0.01102
2401.26639	0.01103
2400.30203	0.01103
2399.33767	0.01103
2398.3733	0.01102
2397.40894	0.01099
2396.44457	0.01094
2395.48021	0.01089
2394.51585	0.01085
2393.55148	0.01084
2392.58712	0.01087
2391.62275	0.01094
2390.65839	0.01108
2389.69403	0.0113
2388.72966	0.01159
2387.7653	0.01193
2386.80093	0.0123
2385.83657	0.01269
2384.87221	0.0131
2383.90784	0.0135
2382.94348	0.01385
2381.97911	0.01415
2381.01475	0.01438
2380.05039	0.01453
2379.08602	0.01458
2378.12166	0.01451
2377.15729	0.01428
2376.19293	0.01387
2375.22857	0.01331
2374.2642	0.01262
2373.29984	0.01177
2372.33547	0.01077
2371.37111	0.00965
2370.40675	0.0085
2369.44238	0.00737
2368.47802	0.00627
2367.51365	0.00521
2366.54929	0.00422
2365.58493	0.00333
2364.62056	0.00255
2363.6562	0.00186
2362.69183	0.00131
2361.72747	9.61768E-4
2360.76311	9.33049E-4
2359.79874	0.00126
2358.83438	0.00186
2357.87001	0.00262
2356.90565	0.00345
2355.94129	0.00434
2354.97692	0.00526
2354.01256	0.00612
2353.04819	0.00683
2352.08383	0.00738
2351.11947	0.00774
2350.1551	0.00788
2349.19074	0.00777
2348.22637	0.00746
2347.26201	0.00699
2346.29765	0.00638
2345.33328	0.0056
2344.36892	0.00466
2343.40455	0.00364
2342.44019	0.00263
2341.47583	0.00168
2340.51146	8.6919E-4
2339.5471	2.89537E-4
2338.58273	0
2337.61837	1.24434E-5
2336.65401	2.47092E-4
2335.68964	5.76882E-4
2334.72528	9.50833E-4
2333.76091	0.00144
2332.79655	0.00207
2331.83219	0.0028
2330.86782	0.00358
2329.90346	0.00436
2328.93909	0.00514
2327.97473	0.00592
2327.01036	0.0067
2326.046	0.0074
2325.08164	0.00799
2324.11727	0.0085
2323.15291	0.00895
2322.18854	0.00936
2321.22418	0.00974
2320.25982	0.01013
2319.29545	0.0105
2318.33109	0.01086
2317.36672	0.0112
2316.40236	0.0115
2315.438	0.01171
2314.47363	0.01183
2313.50927	0.01186
2312.5449	0.01182
2311.58054	0.01175
2310.61618	0.01165
2309.65181	0.0115
2308.68745	0.01131
2307.72308	0.0111
2306.75872	0.01083
2305.79436	0.0105
2304.82999	0.0101
2303.86563	0.00963
2302.90126	0.00909
2301.9369	0.00851
2300.97254	0.00793
2300.00817	0.00737
2299.04381	0.00686
2298.07944	0.00638
2297.11508	0.00592
2296.15072	0.00547
2295.18635	0.00504
2294.22199	0.00464
2293.25762	0.00428
2292.29326	0.00393
2291.3289	0.00358
2290.36453	0.00325
2289.40017	0.00296
2288.4358	0.00271
2287.47144	0.0025
2286.50708	0.0023
2285.54271	0.00212
2284.57835	0.00196
2283.61398	0.00183
2282.64962	0.00171
2281.68526	0.00162
2280.72089	0.00153
2279.75653	0.00146
2278.79216	0.0014
2277.8278	0.00136
2276.86344	0.00133
2275.89907	0.0013
2274.93471	0.00128
2273.97034	0.00128
2273.00598	0.0013
2272.04162	0.00132
2271.07725	0.00135
2270.11289	0.00139
2269.14852	0.00144
2268.18416	0.00151
2267.2198	0.00157
2266.25543	0.00163
2265.29107	0.00169
2264.3267	0.00174
2263.36234	0.00179
2262.39798	0.00184
2261.43361	0.00188
2260.46925	0.00191
2259.50488	0.00195
2258.54052	0.00199
2257.57616	0.00202
2256.61179	0.00204
2255.64743	0.00204
2254.68306	0.00205
2253.7187	0.00205
2252.75434	0.00204
2251.78997	0.00203
2250.82561	0.00202
2249.86124	0.00202
2248.89688	0.00202
2247.93252	0.00202
2246.96815	0.00203
2246.00379	0.00204
2245.03942	0.00206
2244.07506	0.00208
2243.1107	0.00209
2242.14633	0.00211
2241.18197	0.00213
2240.2176	0.00216
2239.25324	0.0022
2238.28888	0.00223
2237.32451	0.00227
2236.36015	0.00231
2235.39578	0.00236
2234.43142	0.00243
2233.46706	0.00249
2232.50269	0.00256
2231.53833	0.00263
2230.57396	0.00272
2229.6096	0.00281
2228.64524	0.0029
2227.68087	0.003
2226.71651	0.0031
2225.75214	0.00321
2224.78778	0.00332
2223.82342	0.00344
2222.85905	0.00355
2221.89469	0.00366
2220.93032	0.00377
2219.96596	0.00388
2219.0016	0.00398
2218.03723	0.00408
2217.07287	0.00418
2216.1085	0.0043
2215.14414	0.00442
2214.17978	0.00454
2213.21541	0.00466
2212.25105	0.00478
2211.28668	0.0049
2210.32232	0.00503
2209.35796	0.00517
2208.39359	0.00531
2207.42923	0.00544
2206.46486	0.00557
2205.5005	0.00571
2204.53614	0.00584
2203.57177	0.00599
2202.60741	0.00613
2201.64304	0.00627
2200.67868	0.0064
2199.71432	0.00653
2198.74995	0.00665
2197.78559	0.00676
2196.82122	0.00686
2195.85686	0.00697
2194.8925	0.00709
2193.92813	0.00722
2192.96377	0.00734
2191.9994	0.00746
2191.03504	0.00757
2190.07068	0.00768
2189.10631	0.00779
2188.14195	0.0079
2187.17758	0.00801
2186.21322	0.0081
2185.24885	0.0082
2184.28449	0.00829
2183.32013	0.00837
2182.35576	0.00845
2181.3914	0.00854
2180.42703	0.00862
2179.46267	0.0087
2178.49831	0.00878
2177.53394	0.00885
2176.56958	0.00892
2175.60521	0.009
2174.64085	0.00909
2173.67649	0.00917
2172.71212	0.00927
2171.74776	0.00938
2170.78339	0.00951
2169.81903	0.00963
2168.85467	0.00974
2167.8903	0.00984
2166.92594	0.00994
2165.96157	0.01004
2164.99721	0.01013
2164.03285	0.0102
2163.06848	0.01025
2162.10412	0.01028
2161.13975	0.01031
2160.17539	0.01032
2159.21103	0.01032
2158.24666	0.0103
2157.2823	0.01027
2156.31793	0.01024
2155.35357	0.01022
2154.38921	0.01018
2153.42484	0.01014
2152.46048	0.01008
2151.49611	0.01003
2150.53175	0.00999
2149.56739	0.00995
2148.60302	0.0099
2147.63866	0.00985
2146.67429	0.00983
2145.70993	0.00985
2144.74557	0.00987
2143.7812	0.00988
2142.81684	0.00989
2141.85247	0.00989
2140.88811	0.00988
2139.92375	0.00985
2138.95938	0.00981
2137.99502	0.00976
2137.03065	0.00971
2136.06629	0.00965
2135.10193	0.00958
2134.13756	0.00949
2133.1732	0.00941
2132.20883	0.00934
2131.24447	0.00925
2130.28011	0.00914
2129.31574	0.009
2128.35138	0.00885
2127.38701	0.00869
2126.42265	0.00854
2125.45829	0.00843
2124.49392	0.00837
2123.52956	0.00835
2122.56519	0.00833
2121.60083	0.00829
2120.63647	0.00823
2119.6721	0.00816
2118.70774	0.00809
2117.74337	0.00802
2116.77901	0.00796
2115.81465	0.0079
2114.85028	0.00782
2113.88592	0.00776
2112.92155	0.0077
2111.95719	0.00766
2110.99283	0.00762
2110.02846	0.00759
2109.0641	0.00756
2108.09973	0.00754
2107.13537	0.00751
2106.17101	0.00747
2105.20664	0.00743
2104.24228	0.00741
2103.27791	0.00742
2102.31355	0.00741
2101.34919	0.00742
2100.38482	0.00748
2099.42046	0.0076
2098.45609	0.00775
2097.49173	0.00791
2096.52737	0.00807
2095.563	0.0082
2094.59864	0.00833
2093.63427	0.00845
2092.66991	0.00856
2091.70555	0.00864
2090.74118	0.00869
2089.77682	0.00874
2088.81245	0.0088
2087.84809	0.00886
2086.88373	0.00888
2085.91936	0.00886
2084.955	0.00885
2083.99063	0.00884
2083.02627	0.00882
2082.06191	0.00878
2081.09754	0.00871
2080.13318	0.00863
2079.16881	0.00855
2078.20445	0.00849
2077.24009	0.0084
2076.27572	0.00836
2075.31136	0.00852
2074.34699	0.0088
2073.38263	0.00908
2072.41827	0.00929
2071.4539	0.00948
2070.48954	0.00968
2069.52517	0.00986
2068.56081	0.01002
2067.59645	0.01012
2066.63208	0.0102
2065.66772	0.01025
2064.70335	0.01028
2063.73899	0.01027
2062.77463	0.01023
2061.81026	0.01017
2060.8459	0.01009
2059.88153	0.00997
2058.91717	0.00982
2057.95281	0.00962
2056.98844	0.00936
2056.02408	0.00908
2055.05971	0.0088
2054.09535	0.00857
2053.13099	0.00852
2052.16662	0.00871
2051.20226	0.00901
2050.23789	0.00929
2049.27353	0.00954
2048.30917	0.00978
2047.3448	0.01
2046.38044	0.01016
2045.41607	0.01027
2044.45171	0.01035
2043.48734	0.01039
2042.52298	0.01037
2041.55862	0.01032
2040.59425	0.01023
2039.62989	0.01011
2038.66552	0.00994
2037.70116	0.00973
2036.7368	0.0095
2035.77243	0.00924
2034.80807	0.00895
2033.8437	0.00865
2032.87934	0.00837
2031.91498	0.00807
2030.95061	0.00772
2029.98625	0.00742
2029.02188	0.00728
2028.05752	0.00738
2027.09316	0.00773
2026.12879	0.0082
2025.16443	0.00867
2024.20006	0.00905
2023.2357	0.00934
2022.27134	0.00955
2021.30697	0.00969
2020.34261	0.00975
2019.37824	0.00974
2018.41388	0.00969
2017.44952	0.00963
2016.48515	0.00952
2015.52079	0.00934
2014.55642	0.00909
2013.59206	0.00875
2012.6277	0.00834
2011.66333	0.00787
2010.69897	0.00738
2009.7346	0.00685
2008.77024	0.00628
2007.80588	0.00574
2006.84151	0.00531
2005.87715	0.00503
2004.91278	0.00478
2003.94842	0.00453
2002.98406	0.00457
2002.01969	0.00501
2001.05533	0.00553
2000.09096	0.00599
1999.1266	0.00656
1998.16224	0.0073
1997.19787	0.00806
1996.23351	0.00877
1995.26914	0.00938
1994.30478	0.00987
1993.34042	0.01022
1992.37605	0.01046
1991.41169	0.01057
1990.44732	0.01055
1989.48296	0.0104
1988.5186	0.01014
1987.55423	0.00981
1986.58987	0.00941
1985.6255	0.0089
1984.66114	0.00825
1983.69678	0.00748
1982.73241	0.00662
1981.76805	0.0058
1980.80368	0.00526
1979.83932	0.00504
1978.87496	0.00487
1977.91059	0.00489
1976.94623	0.00543
1975.98186	0.00637
1975.0175	0.00732
1974.05314	0.00805
1973.08877	0.00861
1972.12441	0.00913
1971.16004	0.0096
1970.19568	0.01
1969.23132	0.01029
1968.26695	0.01047
1967.30259	0.01051
1966.33822	0.01049
1965.37386	0.01051
1964.4095	0.01055
1963.44513	0.01053
1962.48077	0.01039
1961.5164	0.01015
1960.55204	0.00978
1959.58768	0.00928
1958.62331	0.00856
1957.65895	0.00772
1956.69458	0.00705
1955.73022	0.00674
1954.76586	0.00666
1953.80149	0.00689
1952.83713	0.00766
1951.87276	0.00871
1950.9084	0.00972
1949.94404	0.01061
1948.97967	0.01139
1948.01531	0.01199
1947.05094	0.01236
1946.08658	0.01251
1945.12222	0.01249
1944.15785	0.01241
1943.19349	0.01236
1942.22912	0.01227
1941.26476	0.01198
1940.3004	0.0115
1939.33603	0.01086
1938.37167	0.01006
1937.4073	0.00908
1936.44294	0.00781
1935.47858	0.00611
1934.51421	0.00443
1933.54985	0.00357
1932.58548	0.00349
1931.62112	0.00381
1930.65676	0.00454
1929.69239	0.00562
1928.72803	0.00697
1927.76366	0.0085
1926.7993	0.00999
1925.83494	0.01132
1924.87057	0.01245
1923.90621	0.01332
1922.94184	0.01381
1921.97748	0.01393
1921.01312	0.01402
1920.04875	0.01426
1919.08439	0.01462
1918.12002	0.01501
1917.15566	0.01524
1916.1913	0.01516
1915.22693	0.0148
1914.26257	0.01417
1913.2982	0.01329
1912.33384	0.01238
1911.36948	0.01195
1910.40511	0.01211
1909.44075	0.01213
1908.47638	0.01156
1907.51202	0.01061
1906.54766	0.01011
1905.58329	0.01059
1904.61893	0.01135
1903.65456	0.01174
1902.6902	0.01164
1901.72583	0.01107
1900.76147	0.01059
1899.79711	0.01074
1898.83274	0.01143
1897.86838	0.01249
1896.90401	0.01369
1895.93965	0.01489
1894.97529	0.01605
1894.01092	0.017
1893.04656	0.01771
1892.08219	0.01823
1891.11783	0.01855
1890.15347	0.01869
1889.1891	0.01867
1888.22474	0.01844
1887.26037	0.018
1886.29601	0.01735
1885.33165	0.01654
1884.36728	0.01568
1883.40292	0.01493
1882.43855	0.01407
1881.47419	0.01264
1880.50983	0.01096
1879.54546	0.01016
1878.5811	0.01091
1877.61673	0.0133
1876.65237	0.01656
1875.68801	0.01961
1874.72364	0.02212
1873.75928	0.02425
1872.79491	0.02621
1871.83055	0.02798
1870.86619	0.0294
1869.90182	0.03046
1868.93746	0.0313
1867.97309	0.03192
1867.00873	0.03225
1866.04437	0.03221
1865.08	0.03173
1864.11564	0.03085
1863.15127	0.02958
1862.18691	0.02791
1861.22255	0.02571
1860.25818	0.02298
1859.29382	0.02022
1858.32945	0.01823
1857.36509	0.01742
1856.40073	0.01774
1855.43636	0.01921
1854.472	0.02192
1853.50763	0.02519
1852.54327	0.02847
1851.57891	0.0315
1850.61454	0.03417
1849.65018	0.03642
1848.68581	0.03848
1847.72145	0.04064
1846.75709	0.04288
1845.79272	0.0449
1844.82836	0.04649
1843.86399	0.0476
1842.89963	0.04795
1841.93527	0.0473
1840.9709	0.04673
1840.00654	0.04738
1839.04217	0.04855
1838.07781	0.04926
1837.11345	0.04944
1836.14908	0.05015
1835.18472	0.05174
1834.22035	0.05365
1833.25599	0.05601
1832.29163	0.0594
1831.32726	0.06331
1830.3629	0.06664
1829.39853	0.0692
1828.43417	0.07125
1827.46981	0.07305
1826.50544	0.07475
1825.54108	0.07648
1824.57671	0.07812
1823.61235	0.07934
1822.64799	0.08031
1821.68362	0.08184
1820.71926	0.08435
1819.75489	0.08782
1818.79053	0.0929
1817.82617	0.10071
1816.8618	0.11068
1815.89744	0.12101
1814.93307	0.13123
1813.96871	0.14179
1813.00435	0.15334
1812.03998	0.1653
1811.07562	0.17705
1810.11125	0.18855
1809.14689	0.19924
1808.18253	0.20847
1807.21816	0.21651
1806.2538	0.22383
1805.28943	0.23004
1804.32507	0.23449
1803.36071	0.23789
1802.39634	0.24141
1801.43198	0.24516
1800.46761	0.24893
1799.50325	0.2527
1798.53889	0.25657
1797.57452	0.26025
1796.61016	0.26373
1795.64579	0.26776
1794.68143	0.27239
1793.71707	0.27686
1792.7527	0.28074
1791.78834	0.28442
1790.82397	0.28861
1789.85961	0.29338
1788.89525	0.29813
1787.93088	0.30234
1786.96652	0.30596
1786.00215	0.30894
1785.03779	0.31117
1784.07343	0.313
1783.10906	0.31629
1782.1447	0.32152
1781.18033	0.32793
1780.21597	0.33564
1779.25161	0.34453
1778.28724	0.35338
1777.32288	0.36095
1776.35851	0.36674
1775.39415	0.37056
1774.42979	0.37233
1773.46542	0.3727
1772.50106	0.37299
1771.53669	0.37281
1770.57233	0.37127
1769.60797	0.3684
1768.6436	0.36496
1767.67924	0.36161
1766.71487	0.35798
1765.75051	0.35346
1764.78615	0.34809
1763.82178	0.34254
1762.85742	0.33775
1761.89305	0.33494
1760.92869	0.33518
1759.96432	0.33978
1758.99996	0.3475
1758.0356	0.35606
1757.07123	0.36448
1756.10687	0.37206
1755.1425	0.37812
1754.17814	0.38257
1753.21378	0.38483
1752.24941	0.38417
1751.28505	0.38115
1750.32068	0.37735
1749.35632	0.37281
1748.39196	0.36594
1747.42759	0.35584
1746.46323	0.34249
1745.49886	0.32766
1744.5345	0.315
1743.57014	0.30309
1742.60577	0.29048
1741.64141	0.27778
1740.67704	0.26658
1739.71268	0.25746
1738.74832	0.25021
1737.78395	0.24392
1736.81959	0.23822
1735.85522	0.23253
1734.89086	0.22613
1733.9265	0.21895
1732.96213	0.21119
1731.99777	0.2032
1731.0334	0.19463
1730.06904	0.18408
1729.10468	0.17318
1728.14031	0.16501
1727.17595	0.15904
1726.21158	0.15413
1725.24722	0.15055
1724.28286	0.14819
1723.31849	0.14702
1722.35413	0.14822
1721.38976	0.15244
1720.4254	0.15681
1719.46104	0.16089
1718.49667	0.16509
1717.53231	0.16991
1716.56794	0.1753
1715.60358	0.18117
1714.63922	0.18739
1713.67485	0.19346
1712.71049	0.19871
1711.74612	0.2026
1710.78176	0.20785
1709.8174	0.21417
1708.85303	0.22047
1707.88867	0.22665
1706.9243	0.23498
1705.95994	0.24776
1704.99558	0.26379
1704.03121	0.28021
1703.06685	0.29662
1702.10248	0.31261
1701.13812	0.32737
1700.17376	0.34098
1699.20939	0.35373
1698.24503	0.36521
1697.28066	0.37418
1696.3163	0.37924
1695.35194	0.38411
1694.38757	0.39102
1693.42321	0.39718
1692.45884	0.40057
1691.49448	0.40099
1690.53012	0.39884
1689.56575	0.39383
1688.60139	0.38641
1687.63702	0.37849
1686.67266	0.36916
1685.7083	0.35928
1684.74393	0.34928
1683.77957	0.33968
1682.8152	0.32962
1681.85084	0.31849
1680.88648	0.30709
1679.92211	0.29725
1678.95775	0.28938
1677.99338	0.28287
1677.02902	0.27694
1676.06466	0.27056
1675.10029	0.26298
1674.13593	0.25516
1673.17156	0.24959
1672.2072	0.24851
1671.24284	0.24863
1670.27847	0.24655
1669.31411	0.24331
1668.34974	0.23978
1667.38538	0.23552
1666.42102	0.22928
1665.45665	0.22073
1664.49229	0.21412
1663.52792	0.21293
1662.56356	0.21405
1661.5992	0.21494
1660.63483	0.21487
1659.67047	0.21393
1658.7061	0.2135
1657.74174	0.21643
1656.77738	0.22298
1655.81301	0.22991
1654.84865	0.2353
1653.88428	0.23892
1652.91992	0.2411
1651.95556	0.24235
1650.99119	0.24323
1650.02683	0.24337
1649.06246	0.24144
1648.0981	0.23742
1647.13374	0.23277
1646.16937	0.22924
1645.20501	0.22605
1644.24064	0.22248
1643.27628	0.21862
1642.31192	0.21555
1641.34755	0.21545
1640.38319	0.21593
1639.41882	0.21354
1638.45446	0.21013
1637.4901	0.20615
1636.52573	0.20203
1635.56137	0.19905
1634.597	0.19873
1633.63264	0.1998
1632.66828	0.20013
1631.70391	0.19925
1630.73955	0.19715
1629.77518	0.19376
1628.81082	0.18905
1627.84646	0.18453
1626.88209	0.18141
1625.91773	0.17951
1624.95336	0.17909
1623.989	0.18038
1623.02464	0.1824
1622.06027	0.18282
1621.09591	0.18168
1620.13154	0.17969
1619.16718	0.17716
1618.20281	0.17431
1617.23845	0.17149
1616.27409	0.16891
1615.30972	0.16643
1614.34536	0.16347
1613.38099	0.1602
1612.41663	0.15733
1611.45227	0.15577
1610.4879	0.15497
1609.52354	0.15333
1608.55917	0.1506
1607.59481	0.14713
1606.63045	0.14354
1605.66608	0.14085
1604.70172	0.14006
1603.73735	0.14002
1602.77299	0.13909
1601.80863	0.13737
1600.84426	0.13522
1599.8799	0.13289
1598.91553	0.1305
1597.95117	0.12839
1596.98681	0.12676
1596.02244	0.12544
1595.05808	0.12436
1594.09371	0.12339
1593.12935	0.12235
1592.16499	0.12142
1591.20062	0.12085
1590.23626	0.12037
1589.27189	0.11951
1588.30753	0.11816
1587.34317	0.11793
1586.3788	0.11995
1585.41444	0.12331
1584.45007	0.12732
1583.48571	0.13153
1582.52135	0.13548
1581.55698	0.13858
1580.59262	0.1421
1579.62825	0.14739
1578.66389	0.15354
1577.69953	0.15959
1576.73516	0.1652
1575.7708	0.17099
1574.80643	0.1772
1573.84207	0.1832
1572.87771	0.18834
1571.91334	0.19173
1570.94898	0.19177
1569.98461	0.1947
1569.02025	0.20311
1568.05589	0.21285
1567.09152	0.22218
1566.12716	0.23118
1565.16279	0.24136
1564.19843	0.25316
1563.23407	0.26422
1562.2697	0.27207
1561.30534	0.27744
1560.34097	0.28167
1559.37661	0.2844
1558.41225	0.28532
1557.44788	0.28497
1556.48352	0.2828
1555.51915	0.27853
1554.55479	0.2729
1553.59043	0.26654
1552.62606	0.26008
1551.6617	0.25315
1550.69733	0.24834
1549.73297	0.24625
1548.76861	0.24509
1547.80424	0.24542
1546.83988	0.25094
1545.87551	0.25686
1544.91115	0.25942
1543.94679	0.26184
1542.98242	0.26501
1542.01806	0.26831
1541.05369	0.26963
1540.08933	0.26805
1539.12497	0.26482
1538.1606	0.26165
1537.19624	0.25827
1536.23187	0.25357
1535.26751	0.2474
1534.30315	0.23973
1533.33878	0.23158
1532.37442	0.22675
1531.41005	0.2258
1530.44569	0.22661
1529.48133	0.22824
1528.51696	0.23123
1527.5526	0.23865
1526.58823	0.24749
1525.62387	0.2543
1524.65951	0.25897
1523.69514	0.26193
1522.73078	0.26428
1521.76641	0.26687
1520.80205	0.26918
1519.83769	0.26968
1518.87332	0.26819
1517.90896	0.26858
1516.94459	0.27355
1515.98023	0.28075
1515.01587	0.28844
1514.0515	0.29536
1513.08714	0.30136
1512.12277	0.30618
1511.15841	0.30966
1510.19405	0.31309
1509.22968	0.31873
1508.26532	0.32447
1507.30095	0.32881
1506.33659	0.33329
1505.37223	0.33907
1504.40786	0.34649
1503.4435	0.3528
1502.47913	0.35613
1501.51477	0.35756
1500.55041	0.35943
1499.58604	0.36156
1498.62168	0.36318
1497.65731	0.36459
1496.69295	0.36661
1495.72859	0.37011
1494.76422	0.37631
1493.79986	0.38211
1492.83549	0.38406
1491.87113	0.38374
1490.90677	0.38189
1489.9424	0.3786
1488.97804	0.37365
1488.01367	0.36712
1487.04931	0.36029
1486.08495	0.3539
1485.12058	0.34742
1484.15622	0.34201
1483.19185	0.33977
1482.22749	0.33927
1481.26312	0.33904
1480.29876	0.33864
1479.3344	0.33851
1478.37003	0.33972
1477.40567	0.34193
1476.4413	0.3436
1475.47694	0.34571
1474.51258	0.34823
1473.54821	0.35012
1472.58385	0.35082
1471.61948	0.35027
1470.65512	0.34863
1469.69076	0.34681
1468.72639	0.34684
1467.76203	0.34972
1466.79766	0.35429
1465.8333	0.35946
1464.86894	0.3645
1463.90457	0.36901
1462.94021	0.37261
1461.97584	0.37543
1461.01148	0.37832
1460.04712	0.38136
1459.08275	0.38271
1458.11839	0.38209
1457.15402	0.37955
1456.18966	0.3752
1455.2253	0.36925
1454.26093	0.36207
1453.29657	0.35439
1452.3322	0.34652
1451.36784	0.33735
1450.40348	0.32637
1449.43911	0.31375
1448.47475	0.30019
1447.51038	0.28848
1446.54602	0.28076
1445.58166	0.27746
1444.61729	0.27704
1443.65293	0.27706
1442.68856	0.27656
1441.7242	0.27536
1440.75984	0.27434
1439.79547	0.27402
1438.83111	0.27386
1437.86674	0.27339
1436.90238	0.27275
1435.93802	0.2724
1434.97365	0.2728
1434.00929	0.27367
1433.04492	0.27432
1432.08056	0.27409
1431.1162	0.2728
1430.15183	0.27169
1429.18747	0.27166
1428.2231	0.27244
1427.25874	0.27375
1426.29438	0.27539
1425.33001	0.27758
1424.36565	0.28075
1423.40128	0.28371
1422.43692	0.28576
1421.47256	0.28728
1420.50819	0.28846
1419.54383	0.28918
1418.57946	0.28947
1417.6151	0.28936
1416.65074	0.28858
1415.68637	0.28737
1414.72201	0.28573
1413.75764	0.2834
1412.79328	0.28054
1411.82892	0.27742
1410.86455	0.27348
1409.90019	0.26891
1408.93582	0.26478
1407.97146	0.26175
1407.0071	0.26064
1406.04273	0.26171
1405.07837	0.26459
1404.114	0.26827
1403.14964	0.27177
1402.18528	0.27478
1401.22091	0.27737
1400.25655	0.27951
1399.29218	0.28125
1398.32782	0.28326
1397.36346	0.28586
1396.39909	0.28832
1395.43473	0.28996
1394.47036	0.29076
1393.506	0.29115
1392.54164	0.29116
1391.57727	0.28993
1390.61291	0.28714
1389.64854	0.2832
1388.68418	0.27865
1387.71982	0.27399
1386.75545	0.26978
1385.79109	0.26642
1384.82672	0.26465
1383.86236	0.26515
1382.898	0.26803
1381.93363	0.2722
1380.96927	0.27641
1380.0049	0.28096
1379.04054	0.28642
1378.07618	0.29255
1377.11181	0.29879
1376.14745	0.30503
1375.18308	0.31143
1374.21872	0.31784
1373.25436	0.32392
1372.28999	0.32925
1371.32563	0.33341
1370.36126	0.33597
1369.3969	0.33669
1368.43254	0.33562
1367.46817	0.33284
1366.50381	0.32863
1365.53944	0.32336
1364.57508	0.31725
1363.61072	0.31083
1362.64635	0.30501
1361.68199	0.30002
1360.71762	0.29521
1359.75326	0.29037
1358.7889	0.28574
1357.82453	0.28171
1356.86017	0.2786
1355.8958	0.27622
1354.93144	0.274
1353.96708	0.27165
1353.00271	0.26909
1352.03835	0.26677
1351.07398	0.26612
1350.10962	0.26778
1349.14526	0.27061
1348.18089	0.27372
1347.21653	0.27687
1346.25216	0.28002
1345.2878	0.28303
1344.32344	0.28582
1343.35907	0.28851
1342.39471	0.29113
1341.43034	0.2934
1340.46598	0.29517
1339.50161	0.29645
1338.53725	0.29727
1337.57289	0.29771
1336.60852	0.2977
1335.64416	0.29708
1334.67979	0.29587
1333.71543	0.29416
1332.75107	0.29195
1331.7867	0.2892
1330.82234	0.28614
1329.85797	0.28325
1328.89361	0.28128
1327.92925	0.28094
1326.96488	0.28192
1326.00052	0.28312
1325.03615	0.2842
1324.07179	0.2854
1323.10743	0.28681
1322.14306	0.28824
1321.1787	0.28957
1320.21433	0.29078
1319.24997	0.29198
1318.28561	0.29324
1317.32124	0.29448
1316.35688	0.29557
1315.39251	0.29646
1314.42815	0.29712
1313.46379	0.29755
1312.49942	0.29773
1311.53506	0.29765
1310.57069	0.29728
1309.60633	0.29658
1308.64197	0.29571
1307.6776	0.29494
1306.71324	0.29432
1305.74887	0.29361
1304.78451	0.29267
1303.82015	0.29143
1302.85578	0.28997
1301.89142	0.28851
1300.92705	0.28722
1299.96269	0.28599
1298.99833	0.2847
1298.03396	0.28344
1297.0696	0.28231
1296.10523	0.28135
1295.14087	0.28052
1294.17651	0.27974
1293.21214	0.27899
1292.24778	0.27831
1291.28341	0.27771
1290.31905	0.27721
1289.35469	0.27671
1288.39032	0.27609
1287.42596	0.27524
1286.46159	0.27411
1285.49723	0.27267
1284.53287	0.27084
1283.5685	0.26857
1282.60414	0.26592
1281.63977	0.26299
1280.67541	0.25986
1279.71105	0.25658
1278.74668	0.2532
1277.78232	0.24977
1276.81795	0.24644
1275.85359	0.24337
1274.88923	0.24059
1273.92486	0.23801
1272.9605	0.23566
1271.99613	0.23378
1271.03177	0.23261
1270.06741	0.23223
1269.10304	0.23257
1268.13868	0.23361
1267.17431	0.23534
1266.20995	0.23772
1265.24559	0.2407
1264.28122	0.24425
1263.31686	0.24838
1262.35249	0.25311
1261.38813	0.25852
1260.42377	0.26467
1259.4594	0.27152
1258.49504	0.27889
1257.53067	0.28658
1256.56631	0.29443
1255.60195	0.30226
1254.63758	0.30997
1253.67322	0.31742
1252.70885	0.32448
1251.74449	0.33099
1250.78013	0.33678
1249.81576	0.34169
1248.8514	0.34564
1247.88703	0.34852
1246.92267	0.35012
1245.95831	0.35032
1244.99394	0.34911
1244.02958	0.3466
1243.06521	0.34294
1242.10085	0.33834
1241.13649	0.33298
1240.17212	0.32703
1239.20776	0.32065
1238.24339	0.314
1237.27903	0.30722
1236.31467	0.30041
1235.3503	0.29363
1234.38594	0.28694
1233.42157	0.28051
1232.45721	0.27452
1231.49285	0.2691
1230.52848	0.26426
1229.56412	0.26008
1228.59975	0.25663
1227.63539	0.25393
1226.67103	0.25193
1225.70666	0.25059
1224.7423	0.24988
1223.77793	0.2499
1222.81357	0.25074
1221.84921	0.25241
1220.88484	0.25488
1219.92048	0.25814
1218.95611	0.26223
1217.99175	0.2671
1217.02739	0.27267
1216.06302	0.27879
1215.09866	0.2854
1214.13429	0.2925
1213.16993	0.30011
1212.20557	0.30817
1211.2412	0.31656
1210.27684	0.32522
1209.31247	0.33406
1208.34811	0.34285
1207.38375	0.35127
1206.41938	0.35896
1205.45502	0.36563
1204.49065	0.3711
1203.52629	0.37527
1202.56193	0.37808
1201.59756	0.37954
1200.6332	0.37979
1199.66883	0.37901
1198.70447	0.37736
1197.7401	0.37502
1196.77574	0.37219
1195.81138	0.36912
1194.84701	0.36605
1193.88265	0.36324
1192.91828	0.36089
1191.95392	0.35921
1190.98956	0.35846
1190.02519	0.35886
1189.06083	0.3605
1188.09646	0.3633
1187.1321	0.3671
1186.16774	0.37173
1185.20337	0.37706
1184.23901	0.38291
1183.27464	0.38911
1182.31028	0.39557
1181.34592	0.40237
1180.38155	0.40964
1179.41719	0.4175
1178.45282	0.42604
1177.48846	0.43536
1176.5241	0.44557
1175.55973	0.45684
1174.59537	0.4693
1173.631	0.48294
1172.66664	0.49774
1171.70228	0.51371
1170.73791	0.5308
1169.77355	0.54879
1168.80918	0.56735
1167.84482	0.58606
1166.88046	0.60453
1165.91609	0.62234
1164.95173	0.63906
1163.98736	0.65429
1163.023	0.66775
1162.05864	0.67923
1161.09427	0.68852
1160.12991	0.69542
1159.16554	0.69976
1158.20118	0.70145
1157.23682	0.7005
1156.27245	0.69701
1155.30809	0.69112
1154.34372	0.68298
1153.37936	0.67278
1152.415	0.66086
1151.45063	0.64762
1150.48627	0.63345
1149.5219	0.61868
1148.55754	0.60367
1147.59318	0.58881
1146.62881	0.57451
1145.66445	0.5612
1144.70008	0.54922
1143.73572	0.53888
1142.77136	0.53044
1141.80699	0.52407
1140.84263	0.51983
1139.87826	0.51767
1138.9139	0.51746
1137.94954	0.51907
1136.98517	0.52234
1136.02081	0.52701
1135.05644	0.53277
1134.09208	0.5393
1133.12772	0.54632
1132.16335	0.55363
1131.19899	0.561
1130.23462	0.56825
1129.27026	0.57536
1128.3059	0.58254
1127.34153	0.59007
1126.37717	0.59827
1125.4128	0.60743
1124.44844	0.6178
1123.48408	0.6296
1122.51971	0.64282
1121.55535	0.65719
1120.59098	0.67216
1119.62662	0.68716
1118.66226	0.70163
1117.69789	0.71509
1116.73353	0.72706
1115.76916	0.73711
1114.8048	0.74493
1113.84044	0.75029
1112.87607	0.75303
1111.91171	0.753
1110.94734	0.75007
1109.98298	0.74431
1109.01862	0.73596
1108.05425	0.72533
1107.08989	0.71284
1106.12552	0.69902
1105.16116	0.68453
1104.1968	0.67006
1103.23243	0.65619
1102.26807	0.64336
1101.3037	0.63187
1100.33934	0.62197
1099.37498	0.6138
1098.41061	0.60739
1097.44625	0.6027
1096.48188	0.5997
1095.51752	0.59847
1094.55316	0.59908
1093.58879	0.60155
1092.62443	0.60577
1091.66006	0.61163
1090.6957	0.61904
1089.73134	0.62786
1088.76697	0.6378
1087.80261	0.64845
1086.83824	0.65934
1085.87388	0.67004
1084.90952	0.68012
1083.94515	0.68905
1082.98079	0.6962
1082.01642	0.70099
1081.05206	0.70304
1080.0877	0.70224
1079.12333	0.69862
1078.15897	0.69236
1077.1946	0.68391
1076.23024	0.67391
1075.26588	0.66305
1074.30151	0.65201
1073.33715	0.64138
1072.37278	0.63176
1071.40842	0.62371
1070.44406	0.61772
1069.47969	0.61413
1068.51533	0.61317
1067.55096	0.61497
1066.5866	0.61961
1065.62224	0.627
1064.65787	0.63683
1063.69351	0.6486
1062.72914	0.66175
1061.76478	0.67565
1060.80042	0.68964
1059.83605	0.70302
1058.87169	0.71519
1057.90732	0.72579
1056.94296	0.73476
1055.97859	0.74219
1055.01423	0.74823
1054.04987	0.75304
1053.0855	0.75682
1052.12114	0.75982
1051.15677	0.76225
1050.19241	0.76427
1049.22805	0.76595
1048.26368	0.76746
1047.29932	0.76905
1046.33495	0.77097
1045.37059	0.77344
1044.40623	0.77667
1043.44186	0.78097
1042.4775	0.78662
1041.51313	0.79381
1040.54877	0.80263
1039.58441	0.81305
1038.62004	0.82504
1037.65568	0.83852
1036.69131	0.85336
1035.72695	0.86928
1034.76259	0.88594
1033.79822	0.903
1032.83386	0.92014
1031.86949	0.9369
1030.90513	0.95271
1029.94077	0.96693
1028.9764	0.97905
1028.01204	0.98872
1027.04767	0.99563
1026.08331	0.99946
1025.11895	1
1024.15458	0.99722
1023.19022	0.99133
1022.22585	0.98267
1021.26149	0.97157
1020.29713	0.9583
1019.33276	0.94321
1018.3684	0.92677
1017.40403	0.90945
1016.43967	0.89161
1015.47531	0.87356
1014.51094	0.85576
1013.54658	0.83875
1012.58221	0.82296
1011.61785	0.80863
1010.65349	0.79585
1009.68912	0.78477
1008.72476	0.7756
1007.76039	0.76846
1006.79603	0.76333
1005.83167	0.76018
1004.8673	0.75901
1003.90294	0.75987
1002.93857	0.76265
1001.97421	0.76704
1001.00985	0.77266
1000.04548	0.77922
999.08112	0.78643
998.11675	0.79388
997.15239	0.80101
996.18803	0.80731
995.22366	0.81248
994.2593	0.81641
993.29493	0.81906
992.33057	0.82033
991.36621	0.82014
990.40184	0.81847
989.43748	0.81532
988.47311	0.81051
987.50875	0.80377
986.54439	0.79492
985.58002	0.78393
984.61566	0.77091
983.65129	0.75598
982.68693	0.73919
981.72257	0.72066
980.7582	0.70066
979.79384	0.67953
978.82947	0.65756
977.86511	0.63482
976.90075	0.61137
975.93638	0.58737
974.97202	0.56307
974.00765	0.53871
973.04329	0.5144
972.07893	0.49033
971.11456	0.46684
970.1502	0.44437
969.18583	0.42315
968.22147	0.40313
967.25711	0.38414
966.29274	0.36608
965.32838	0.34887
964.36401	0.33241
963.39965	0.31643
962.43529	0.30077
961.47092	0.28546
960.50656	0.27075
959.54219	0.25685
958.57783	0.24394
957.61347	0.23231
956.6491	0.22242
955.68474	0.2147
954.72037	0.20934
953.75601	0.20623
952.79165	0.20518
951.82728	0.2061
950.86292	0.20887
949.89855	0.21315
948.93419	0.2184
947.96983	0.2241
947.00546	0.22999
946.0411	0.23592
945.07673	0.24162
944.11237	0.2467
943.14801	0.25083
942.18364	0.25393
941.21928	0.256
940.25491	0.25695
939.29055	0.2566
938.32619	0.25499
937.36182	0.25243
936.39746	0.24934
935.43309	0.24602
934.46873	0.2426
933.50437	0.23921
932.54	0.23609
931.57564	0.23336
930.61127	0.2309
929.64691	0.2284
928.68255	0.22556
927.71818	0.22231
926.75382	0.21861
925.78945	0.21434
924.82509	0.20931
923.86073	0.20353
922.89636	0.19721
921.932	0.19062
920.96763	0.18384
920.00327	0.17682
919.03891	0.16959
918.07454	0.16235
917.11018	0.15535
916.14581	0.14864
915.18145	0.14213
914.21708	0.13574
913.25272	0.12951
912.28836	0.12354
911.32399	0.11781
910.35963	0.11218
909.39526	0.10658
908.4309	0.10112
907.46654	0.09595
906.50217	0.09104
905.53781	0.08623
904.57344	0.08148
903.60908	0.07694
902.64472	0.07277
901.68035	0.06899
900.71599	0.0655
899.75162	0.06228
898.78726	0.05945
897.8229	0.05713
896.85853	0.05525
895.89417	0.0536
894.9298	0.05208
893.96544	0.05072
893.00108	0.04958
892.03671	0.0485
891.07235	0.04725
890.10798	0.04573
889.14362	0.04409
888.17926	0.04252
887.21489	0.04101
886.25053	0.03947
885.28616	0.03795
884.3218	0.03666
883.35744	0.03574
882.39307	0.03517
881.42871	0.03484
880.46434	0.03477
879.49998	0.03523
878.53562	0.03645
877.57125	0.03848
876.60689	0.04128
875.64252	0.04488
874.67816	0.04939
873.7138	0.05478
872.74943	0.06075
871.78507	0.06694
870.8207	0.07314
869.85634	0.07928
868.89198	0.08531
867.92761	0.09099
866.96325	0.09609
865.99888	0.1005
865.03452	0.10432
864.07016	0.1076
863.10579	0.11019
862.14143	0.1119
861.17706	0.11271
860.2127	0.11278
859.24834	0.11225
858.28397	0.11111
857.31961	0.10936
856.35524	0.10719
855.39088	0.10493
854.42652	0.10283
853.46215	0.10092
852.49779	0.09908
851.53342	0.09726
850.56906	0.09548
849.6047	0.09373
848.64033	0.09183
847.67597	0.0896
846.7116	0.08704
845.74724	0.0843
844.78288	0.08144
843.81851	0.07834
842.85415	0.07487
841.88978	0.07106
840.92542	0.06708
839.96106	0.06301
838.99669	0.0588
838.03233	0.05439
837.06796	0.04984
836.1036	0.04531
835.13924	0.04094
834.17487	0.03672
833.21051	0.03261
832.24614	0.02874
831.28178	0.0253
830.31742	0.0224
829.35305	0.01995
828.38869	0.01781
827.42432	0.01602
826.45996	0.01464
825.4956	0.01366
824.53123	0.01295
823.56687	0.01239
822.6025	0.01201
821.63814	0.01193
820.67378	0.01213
819.70941	0.01251
818.74505	0.01303
817.78068	0.01373
816.81632	0.0147
815.85196	0.01589
814.88759	0.01717
813.92323	0.01842
812.95886	0.01972
811.9945	0.02115
811.03014	0.02273
810.06577	0.0244
809.10141	0.02611
808.13704	0.0279
807.17268	0.02982
806.20832	0.03183
805.24395	0.03381
804.27959	0.03568
803.31522	0.03745
802.35086	0.03922
801.3865	0.04102
800.42213	0.04283
799.45777	0.04464
798.4934	0.04649
797.52904	0.04841
796.56468	0.05035
795.60031	0.05222
794.63595	0.05391
793.67158	0.05541
792.70722	0.05672
791.74286	0.05779
790.77849	0.05862
789.81413	0.05928
788.84976	0.0599
787.8854	0.06063
786.92104	0.06157
785.95667	0.06269
784.99231	0.06395
784.02794	0.0654
783.06358	0.06712
782.09922	0.06918
781.13485	0.07164
780.17049	0.07462
779.20612	0.07823
778.24176	0.08245
777.2774	0.08717
776.31303	0.09228
775.34867	0.09766
774.3843	0.10324
773.41994	0.10895
772.45557	0.11468
771.49121	0.12029
770.52685	0.12568
769.56248	0.13075
768.59812	0.1354
767.63375	0.13958
766.66939	0.14328
765.70503	0.14649
764.74066	0.14916
763.7763	0.15126
762.81193	0.1527
761.84757	0.15344
760.88321	0.1535
759.91884	0.15293
758.95448	0.15178
757.99011	0.1501
757.02575	0.14791
756.06139	0.14524
755.09702	0.14215
754.13266	0.13873
753.16829	0.13512
752.20393	0.13147
751.23957	0.12793
750.2752	0.12461
749.31084	0.12157
748.34647	0.11883
747.38211	0.11643
746.41775	0.11441
745.45338	0.11282
744.48902	0.11174
743.52465	0.11122
742.56029	0.11128
741.59593	0.11186
740.63156	0.11282
739.6672	0.114
738.70283	0.11534
737.73847	0.11682
736.77411	0.11847
735.80974	0.12029
734.84538	0.12221
733.88101	0.12417
732.91665	0.12613
731.95229	0.12804
730.98792	0.12978
730.02356	0.13129
729.05919	0.1326
728.09483	0.13381
727.13047	0.13496
726.1661	0.13601
725.20174	0.13696
724.23737	0.13794
723.27301	0.13912
722.30865	0.14055
721.34428	0.14218
720.37992	0.14398
719.41555	0.14603
718.45119	0.14836
717.48683	0.15093
716.52246	0.15366
715.5581	0.15657
714.59373	0.1597
713.62937	0.16309
712.66501	0.16666
711.70064	0.17014
710.73628	0.17329
709.77191	0.17613
708.80755	0.17878
707.84319	0.18132
706.87882	0.18377
705.91446	0.18636
704.95009	0.18941
703.98573	0.19294
703.02137	0.19657
702.057	0.19976
701.09264	0.20216
700.12827	0.20368
699.16391	0.2044
698.19955	0.20426
697.23518	0.20313
696.27082	0.20102
695.30645	0.19805
694.34209	0.19434
693.37773	0.18996
692.41336	0.18487
691.449	0.17908
690.48463	0.17285
689.52027	0.16645
688.55591	0.15999
687.59154	0.15356
686.62718	0.14741
685.66281	0.14194
684.69845	0.13747
683.73409	0.13416
682.76972	0.13204
681.80536	0.13092
680.84099	0.13049
679.87663	0.13067
678.91227	0.13138
677.9479	0.13201
676.98354	0.13259
676.01917	0.13327
675.05481	0.13399
674.09045	0.13463
673.12608	0.13507
672.16172	0.13533
671.19735	0.13555
670.23299	0.13591
669.26863	0.13632
668.30426	0.13662
667.3399	0.13679
666.37553	0.13697
665.41117	0.13721
664.44681	0.13735
663.48244	0.13727
662.51808	0.13705
661.55371	0.13692
660.58935	0.13697
659.62499	0.1371
658.66062	0.13715
657.69626	0.1372
656.73189	0.13751
655.76753	0.13793
654.80317	0.13792
653.8388	0.13763
652.87444	0.1371
651.91007	0.13648
650.94571	0.1359
649.98135	0.13524
649.01698	0.13437
648.05262	0.13338
647.08825	0.13254
646.12389	0.13191
645.15953	0.13125
644.19516	0.13046
643.2308	0.12967
642.26643	0.12897
641.30207	0.12834
640.33771	0.12766
639.37334	0.12687
638.40898	0.12604
637.44461	0.12532
636.48025	0.12489
635.51589	0.12471
634.55152	0.12461
633.58716	0.12462
632.62279	0.12489
631.65843	0.12544
630.69406	0.12609
629.7297	0.1267
628.76534	0.12744
627.80097	0.12866
626.83661	0.13041
625.87224	0.1324
624.90788	0.13447
623.94352	0.13679
622.97915	0.13955
622.01479	0.14262
621.05042	0.14577
620.08606	0.14889
619.1217	0.15206
618.15733	0.1554
617.19297	0.1588
616.2286	0.16202
615.26424	0.16505
614.29988	0.16811
613.33551	0.17129
612.37115	0.17431
611.40678	0.1769
610.44242	0.17918
609.47806	0.18128
608.51369	0.18322
607.54933	0.18485
606.58496	0.18604
605.6206	0.18689
604.65624	0.18753
603.69187	0.18797
602.72751	0.18842
601.76314	0.18902
600.79878	0.18979
599.83442	0.19083
598.87005	0.19227
597.90569	0.19407
596.94132	0.19617
595.97696	0.19881
595.0126	0.20221
594.04823	0.20621
593.08387	0.21049
592.1195	0.21508
591.15514	0.22013
590.19078	0.22554
589.22641	0.23103
588.26205	0.23644
587.29768	0.24175
586.33332	0.24675
585.36896	0.25105
584.40459	0.25432
583.44023	0.25629
582.47586	0.25678
581.5115	0.25578
580.54714	0.2537
579.58277	0.25096
578.61841	0.24733
577.65404	0.24258
576.68968	0.23688
575.72532	0.23049
574.76095	0.22361
573.79659	0.21641
572.83222	0.20907
571.86786	0.20167
570.9035	0.19423
569.93913	0.18697
568.97477	0.18022
568.0104	0.174
567.04604	0.16807
566.08168	0.16248
565.11731	0.15752
564.15295	0.15326
563.18858	0.14924
562.22422	0.14508
561.25986	0.14095
560.29549	0.13712
559.33113	0.13355
558.36676	0.13021
557.4024	0.12727
556.43804	0.12492
555.47367	0.12312
554.50931	0.12167
553.54494	0.1203
552.58058	0.11897
551.61622	0.11782
550.65185	0.11698
549.68749	0.11652
548.72312	0.11642
547.75876	0.11667
546.7944	0.11731
545.83003	0.1184
544.86567	0.11992
543.9013	0.12171
542.93694	0.12358
541.97258	0.12546
541.00821	0.12738
540.04385	0.12933
539.07948	0.13115
538.11512	0.13283
537.15076	0.13481
536.18639	0.1375
535.22203	0.1407
534.25766	0.14401
533.2933	0.14707
532.32894	0.1495
531.36457	0.15128
530.40021	0.15271
529.43584	0.1538
528.47148	0.15467
527.50712	0.15571
526.54275	0.1569
525.57839	0.15785
524.61402	0.15818
523.64966	0.15757
522.6853	0.15604
521.72093	0.15397
520.75657	0.15139
519.7922	0.1479
518.82784	0.14343
517.86348	0.13869
516.89911	0.13415
515.93475	0.12962
514.97038	0.12491
514.00602	0.12045
513.04166	0.1169
512.07729	0.11408
511.11293	0.11132
510.14856	0.10816
509.1842	0.10468
508.21984	0.10162
507.25547	0.09948
506.29111	0.09791
505.32674	0.0965
504.36238	0.09508
503.39802	0.09381
502.43365	0.09312
501.46929	0.09267
500.50492	0.09182
499.54056	0.09071
498.5762	0.08984
497.61183	0.0891
496.64747	0.08799
495.6831	0.08653
494.71874	0.08553
493.75437	0.08522
492.79001	0.08504
491.82565	0.08444
490.86128	0.08352
489.89692	0.0828
488.93255	0.08213
487.96819	0.08113
487.00383	0.07969
486.03946	0.07757
485.0751	0.07472
484.11073	0.07193
483.14637	0.07022
482.18201	0.06888
481.21764	0.06724
480.25328	0.0658
479.28891	0.06518
478.32455	0.06497
477.36019	0.06432
476.39582	0.06307
475.43146	0.06163
474.46709	0.06026
473.50273	0.05875
472.53837	0.057
471.574	0.05518
470.60964	0.05307
469.64527	0.05061
468.68091	0.04875
467.71655	0.04747
466.75218	0.04627
465.78782	0.04507
464.82345	0.04401
463.85909	0.04313
462.89473	0.04215
461.93036	0.04113
460.966	0.041
460.00163	0.04169
459.03727	0.04142
458.07291	0.04002
457.10854	0.03878
456.14418	0.03833
455.17981	0.03812
454.21545	0.03731
453.25109	0.03591
452.28672	0.03473
451.32236	0.03423
450.35799	0.03398
449.39363	0.03302
448.42927	0.03087
447.4649	0.0286
446.50054	0.02795
445.53617	0.02903
444.57181	0.02962
443.60745	0.0288
442.64308	0.0279
441.67872	0.02824
440.71435	0.02947
439.74999	0.03013
438.78563	0.02953
437.82126	0.02826
436.8569	0.02716
435.89253	0.02654
434.92817	0.02627
433.96381	0.02635
432.99944	0.02678
432.03508	0.02711
431.07071	0.02642
430.10635	0.0264
429.14199	0.03022
428.17762	0.03639
427.21326	0.04258
426.24889	0.04715
425.28453	0.05002
424.32017	0.05259
423.3558	0.05549
422.39144	0.0575
421.42707	0.05732
420.46271	0.05531
419.49835	0.05308
418.53398	0.05132
417.56962	0.04896
416.60525	0.04488
415.64089	0.03951
414.67653	0.03416
413.71216	0.02926
412.7478	0.02357
411.78343	0.01588
410.81907	0.01316
409.85471	0.01084
408.89034	0.00892
407.92598	0.00739
406.96161	0.00626
405.99725	0.00552
405.03289	0.00519
404.06852	0.00524
403.10416	0.0057
402.13979	0.00655
401.17543	0.00779
400.21107	0.00943