401	0.01369
402	0.01362
403	0.01352
404	0.01338
405	0.0132
406	0.01299
407	0.01274
408	0.01245
409	0.01212
410	0.01176
411	0.01135
412	0.01092
413	0.01044
414	0.00961
415	0.00858
416	0.00754
417	0.00651
418	0.00549
419	0.00468
420	0.00446
421	0.00485
422	0.00543
423	0.00607
424	0.00709
425	0.00886
426	0.01162
427	0.01442
428	0.01681
429	0.0193
430	0.02222
431	0.02548
432	0.02889
433	0.03234
434	0.03579
435	0.03892
436	0.04126
437	0.04272
438	0.04374
439	0.04477
440	0.04588
441	0.04678
442	0.04734
443	0.04788
444	0.04854
445	0.04885
446	0.04862
447	0.0485
448	0.049
449	0.04986
450	0.05052
451	0.0507
452	0.05057
453	0.0504
454	0.05018
455	0.04979
456	0.04949
457	0.0496
458	0.04995
459	0.05018
460	0.05038
461	0.05091
462	0.05183
463	0.05295
464	0.05414
465	0.0554
466	0.05693
467	0.05884
468	0.06083
469	0.0627
470	0.06469
471	0.067
472	0.06919
473	0.0707
474	0.07163
475	0.07255
476	0.07359
477	0.07437
478	0.07493
479	0.07572
480	0.07695
481	0.0782
482	0.07896
483	0.07924
484	0.07952
485	0.07992
486	0.08011
487	0.08014
488	0.0805
489	0.08137
490	0.08246
491	0.08346
492	0.08432
493	0.08525
494	0.08646
495	0.08773
496	0.08879
497	0.08982
498	0.0912
499	0.09299
500	0.09478
501	0.09631
502	0.09785
503	0.0996
504	0.10126
505	0.10241
506	0.10309
507	0.10382
508	0.10486
509	0.10583
510	0.10658
511	0.10756
512	0.1091
513	0.11104
514	0.11307
515	0.11511
516	0.11727
517	0.11975
518	0.12249
519	0.1253
520	0.12819
521	0.13124
522	0.13435
523	0.13716
524	0.13942
525	0.14128
526	0.14296
527	0.14439
528	0.14527
529	0.14549
530	0.14525
531	0.14473
532	0.14371
533	0.14204
534	0.14004
535	0.13808
536	0.13621
537	0.13419
538	0.13188
539	0.12954
540	0.12754
541	0.12593
542	0.12448
543	0.1232
544	0.12234
545	0.122
546	0.12195
547	0.12201
548	0.12229
549	0.12309
550	0.12447
551	0.12613
552	0.12784
553	0.12985
554	0.13255
555	0.13589
556	0.13962
557	0.14382
558	0.14892
559	0.15511
560	0.16216
561	0.16968
562	0.17755
563	0.18584
564	0.19449
565	0.20317
566	0.21162
567	0.21972
568	0.22739
569	0.23435
570	0.24027
571	0.24506
572	0.24872
573	0.25117
574	0.25214
575	0.25149
576	0.24946
577	0.24648
578	0.24268
579	0.23791
580	0.23228
581	0.22625
582	0.22025
583	0.21426
584	0.20807
585	0.20178
586	0.19577
587	0.19032
588	0.18545
589	0.18107
590	0.17724
591	0.17412
592	0.17179
593	0.17024
594	0.1694
595	0.16928
596	0.16986
597	0.17101
598	0.17255
599	0.17443
600	0.17669
601	0.17924
602	0.18182
603	0.18428
604	0.18661
605	0.18876
606	0.1904
607	0.19112
608	0.19083
609	0.18978
610	0.1881
611	0.18564
612	0.18227
613	0.17815
614	0.17353
615	0.16849
616	0.16309
617	0.15741
618	0.1517
619	0.14624
620	0.14107
621	0.13616
622	0.13158
623	0.12751
624	0.12401
625	0.12094
626	0.11822
627	0.11591
628	0.11406
629	0.11249
630	0.11093
631	0.10932
632	0.10789
633	0.1068
634	0.10592
635	0.10503
636	0.10416
637	0.10346
638	0.10287
639	0.10219
640	0.10139
641	0.10065
642	0.10023
643	0.1001
644	0.1
645	0.0998
646	0.09965
647	0.09961
648	0.0996
649	0.09954
650	0.0995
651	0.09962
652	0.09987
653	0.1001
654	0.10033
655	0.10088
656	0.10218
657	0.10305
658	0.10263
659	0.1013
660	0.09968
661	0.0981
662	0.09655
663	0.09496
664	0.09337
665	0.09196
666	0.09082
667	0.08974
668	0.08848
669	0.08712
670	0.08593
671	0.085
672	0.0842
673	0.08348
674	0.08298
675	0.08285
676	0.08304
677	0.08347
678	0.08418
679	0.08516
680	0.08599
681	0.08563
682	0.08464
683	0.08417
684	0.08459
685	0.08584
686	0.08768
687	0.09002
688	0.09302
689	0.0969
690	0.10152
691	0.10656
692	0.11191
693	0.1177
694	0.1239
695	0.13016
696	0.13605
697	0.14145
698	0.14644
699	0.15089
700	0.15443
701	0.15682
702	0.15813
703	0.1584
704	0.15753
705	0.15541
706	0.15223
707	0.14838
708	0.14408
709	0.13922
710	0.13379
711	0.12816
712	0.12273
713	0.11765
714	0.11276
715	0.10804
716	0.10374
717	0.10004
718	0.09681
719	0.09383
720	0.0911
721	0.08882
722	0.08707
723	0.0856
724	0.08416
725	0.08281
726	0.08171
727	0.08082
728	0.07988
729	0.07882
730	0.0778
731	0.07695
732	0.07616
733	0.07526
734	0.07444
735	0.07412
736	0.07454
737	0.07562
738	0.07722
739	0.0794
740	0.08238
741	0.08604
742	0.09003
743	0.09407
744	0.09826
745	0.1027
746	0.10717
747	0.11136
748	0.11513
749	0.11857
750	0.12173
751	0.12435
752	0.12613
753	0.12703
754	0.12725
755	0.12682
756	0.12558
757	0.12351
758	0.12086
759	0.11795
760	0.11486
761	0.11143
762	0.10765
763	0.10372
764	0.09978
765	0.09571
766	0.09135
767	0.08688
768	0.08268
769	0.07889
770	0.07538
771	0.07204
772	0.069
773	0.06653
774	0.06459
775	0.06284
776	0.0611
777	0.05949
778	0.05812
779	0.05681
780	0.05532
781	0.05367
782	0.05207
783	0.0506
784	0.04913
785	0.04748
786	0.04572
787	0.04405
788	0.04253
789	0.04099
790	0.03936
791	0.0378
792	0.03646
793	0.03525
794	0.03398
795	0.03264
796	0.03143
797	0.03048
798	0.02958
799	0.02853
800	0.02742
801	0.02645
802	0.02562
803	0.02473
804	0.02371
805	0.02272
806	0.02191
807	0.02124
808	0.02053
809	0.01973
810	0.01897
811	0.01838
812	0.01788
813	0.01726
814	0.01651
815	0.01584
816	0.0153
817	0.01476
818	0.01416
819	0.01366
820	0.01349
821	0.01363
822	0.01384
823	0.01412
824	0.01477
825	0.0159
826	0.01736
827	0.01896
828	0.02076
829	0.02294
830	0.02559
831	0.0285
832	0.03149
833	0.03458
834	0.03795
835	0.04153
836	0.04506
837	0.04838
838	0.05158
839	0.05479
840	0.05785
841	0.06054
842	0.06287
843	0.06503
844	0.06711
845	0.0689
846	0.07029
847	0.07147
848	0.07269
849	0.07392
850	0.07491
851	0.07558
852	0.07613
853	0.07684
854	0.0776
855	0.07811
856	0.07827
857	0.07835
858	0.07845
859	0.07834
860	0.0777
861	0.07657
862	0.07523
863	0.07373
864	0.07184
865	0.06943
866	0.06671
867	0.06393
868	0.06107
869	0.05796
870	0.05459
871	0.05126
872	0.0482
873	0.04535
874	0.04251
875	0.03976
876	0.03747
877	0.0358
878	0.03454
879	0.0334
880	0.03253
881	0.0322
882	0.03235
883	0.03263
884	0.03288
885	0.03334
886	0.03423
887	0.03541
888	0.03656
889	0.03765
890	0.03895
891	0.04059
892	0.04241
893	0.04415
894	0.04581
895	0.04763
896	0.04965
897	0.05164
898	0.05338
899	0.05502
900	0.05685
901	0.05883
902	0.06065
903	0.06217
904	0.06366
905	0.06539
906	0.06731
907	0.06916
908	0.07095
909	0.07304
910	0.0756
911	0.07843
912	0.08133
913	0.08441
914	0.08795
915	0.09195
916	0.09614
917	0.10034
918	0.10467
919	0.10932
920	0.11421
921	0.11909
922	0.12394
923	0.12901
924	0.13448
925	0.14018
926	0.14586
927	0.1515
928	0.15733
929	0.16332
930	0.16914
931	0.17444
932	0.17923
933	0.18372
934	0.18788
935	0.19153
936	0.19471
937	0.19784
938	0.20128
939	0.20504
940	0.20893
941	0.21286
942	0.21682
943	0.22061
944	0.22379
945	0.22602
946	0.22735
947	0.22795
948	0.22788
949	0.22698
950	0.22525
951	0.22296
952	0.22041
953	0.21763
954	0.21455
955	0.21135
956	0.20852
957	0.20648
958	0.2054
959	0.20544
960	0.20693
961	0.21026
962	0.21553
963	0.2224
964	0.23049
965	0.2396
966	0.24954
967	0.25996
968	0.27045
969	0.28085
970	0.29132
971	0.30194
972	0.31254
973	0.32289
974	0.33302
975	0.34313
976	0.35326
977	0.36321
978	0.37292
979	0.38263
980	0.39264
981	0.40302
982	0.41367
983	0.4246
984	0.43607
985	0.44828
986	0.46107
987	0.47408
988	0.48719
989	0.50044
990	0.51374
991	0.52667
992	0.53882
993	0.55011
994	0.56063
995	0.57022
996	0.57854
997	0.58537
998	0.59085
999	0.59523
1000	0.59854
1001	0.60075
1002	0.60215
1003	0.60333
1004	0.60487
1005	0.60707
1006	0.61018
1007	0.61461
1008	0.62086
1009	0.62921
1010	0.63957
1011	0.65183
1012	0.66609
1013	0.68252
1014	0.70101
1015	0.72113
1016	0.74257
1017	0.76532
1018	0.7892
1019	0.81366
1020	0.838
1021	0.86174
1022	0.88462
1023	0.90632
1024	0.92627
1025	0.944
1026	0.95935
1027	0.97239
1028	0.98306
1029	0.99115
1030	0.99652
1031	0.99937
1032	1
1033	0.99852
1034	0.99488
1035	0.98922
1036	0.98195
1037	0.97348
1038	0.96393
1039	0.95335
1040	0.94201
1041	0.93037
1042	0.91867
1043	0.90691
1044	0.89509
1045	0.88348
1046	0.87243
1047	0.86203
1048	0.85213
1049	0.84264
1050	0.83359
1051	0.82499
1052	0.81655
1053	0.80784
1054	0.79851
1055	0.78837
1056	0.77715
1057	0.76444
1058	0.74991
1059	0.73364
1060	0.71611
1061	0.69795
1062	0.67978
1063	0.66234
1064	0.64658
1065	0.63345
1066	0.62356
1067	0.61715
1068	0.61439
1069	0.61543
1070	0.62019
1071	0.62815
1072	0.63853
1073	0.65059
1074	0.66365
1075	0.67688
1076	0.68925
1077	0.69975
1078	0.70763
1079	0.71235
1080	0.71342
1081	0.71051
1082	0.70363
1083	0.69332
1084	0.68032
1085	0.66529
1086	0.64884
1087	0.63171
1088	0.61474
1089	0.59851
1090	0.58331
1091	0.56923
1092	0.55649
1093	0.54537
1094	0.53592
1095	0.52793
1096	0.52123
1097	0.51589
1098	0.512
1099	0.50944
1100	0.5079
1101	0.50723
1102	0.50743
1103	0.50844
1104	0.50997
1105	0.51171
1106	0.51352
1107	0.51537
1108	0.51715
1109	0.51861
1110	0.51958
1111	0.52013
1112	0.52038
1113	0.52029
1114	0.51971
1115	0.51864
1116	0.51725
1117	0.51572
1118	0.51401
1119	0.51195
1120	0.50957
1121	0.50703
1122	0.50442
1123	0.50161
1124	0.49838
1125	0.49477
1126	0.49093
1127	0.48691
1128	0.48257
1129	0.47787
1130	0.47303
1131	0.46836
1132	0.46409
1133	0.46032
1134	0.45729
1135	0.45541
1136	0.45511
1137	0.45658
1138	0.45991
1139	0.46526
1140	0.47288
1141	0.48284
1142	0.49491
1143	0.50874
1144	0.52409
1145	0.54074
1146	0.55823
1147	0.57588
1148	0.59297
1149	0.60897
1150	0.62342
1151	0.63571
1152	0.64516
1153	0.65133
1154	0.65407
1155	0.65334
1156	0.64904
1157	0.64111
1158	0.62976
1159	0.61543
1160	0.59856
1161	0.57947
1162	0.55852
1163	0.53625
1164	0.51328
1165	0.49011
1166	0.46703
1167	0.44435
1168	0.4225
1169	0.40187
1170	0.3826
1171	0.36465
1172	0.34806
1173	0.33295
1174	0.31939
1175	0.30723
1176	0.29624
1177	0.28635
1178	0.27761
1179	0.27001
1180	0.26332
1181	0.25733
1182	0.25203
1183	0.24747
1184	0.24359
1185	0.24018
1186	0.23715
1187	0.23457
1188	0.23254
1189	0.23101
1190	0.22982
1191	0.22896
1192	0.22853
1193	0.22856
1194	0.22893
1195	0.22952
1196	0.23036
1197	0.2315
1198	0.23287
1199	0.23426
1200	0.2355
1201	0.23661
1202	0.23762
1203	0.23841
1204	0.23872
1205	0.23846
1206	0.23772
1207	0.23657
1208	0.2349
1209	0.2326
1210	0.22976
1211	0.22661
1212	0.22328
1213	0.21973
1214	0.21592
1215	0.21204
1216	0.20834
1217	0.20491
1218	0.20172
1219	0.19881
1220	0.19634
1221	0.19444
1222	0.19307
1223	0.19209
1224	0.19149
1225	0.19139
1226	0.19184
1227	0.19269
1228	0.19376
1229	0.19506
1230	0.19667
1231	0.19857
1232	0.20058
1233	0.20256
1234	0.20458
1235	0.20677
1236	0.20903
1237	0.21114
1238	0.21302
1239	0.21482
1240	0.21661
1241	0.21828
1242	0.21967
1243	0.22076
1244	0.22171
1245	0.22256
1246	0.2232
1247	0.22349
1248	0.22351
1249	0.22343
1250	0.22324
1251	0.22281
1252	0.22205
1253	0.2211
1254	0.22011
1255	0.21906
1256	0.21778
1257	0.21627
1258	0.2147
1259	0.21322
1260	0.21169
1261	0.20997
1262	0.2081
1263	0.20629
1264	0.20461
1265	0.20298
1266	0.20132
1267	0.19976
1268	0.19851
1269	0.19764
1270	0.19706
1271	0.19671
1272	0.19674
1273	0.19728
1274	0.1983
1275	0.1996
1276	0.20115
1277	0.20304
1278	0.20532
1279	0.20786
1280	0.21047
1281	0.21312
1282	0.21593
1283	0.21887
1284	0.22173
1285	0.22433
1286	0.22674
1287	0.22906
1288	0.23127
1289	0.23317
1290	0.23466
1291	0.23583
1292	0.23679
1293	0.23749
1294	0.2378
1295	0.2377
1296	0.23732
1297	0.23676
1298	0.23595
1299	0.2348
1300	0.23341
1301	0.23198
1302	0.23061
1303	0.22925
1304	0.22786
1305	0.22656
1306	0.22552
1307	0.22475
1308	0.22417
1309	0.22376
1310	0.22365
1311	0.22395
1312	0.22456
1313	0.22532
1314	0.2262
1315	0.2273
1316	0.2287
1317	0.23028
1318	0.23192
1319	0.2336
1320	0.23543
1321	0.23739
1322	0.23933
1323	0.24117
1324	0.24293
1325	0.24468
1326	0.24634
1327	0.24775
1328	0.24883
1329	0.24965
1330	0.25026
1331	0.25055
1332	0.25041
1333	0.24985
1334	0.24901
1335	0.24796
1336	0.24664
1337	0.24502
1338	0.24324
1339	0.24153
1340	0.23995
1341	0.23839
1342	0.23685
1343	0.23544
1344	0.2343
1345	0.23339
1346	0.2326
1347	0.23192
1348	0.23148
1349	0.23132
1350	0.23136
1351	0.23151
1352	0.23186
1353	0.23257
1354	0.23363
1355	0.23489
1356	0.23623
1357	0.23771
1358	0.23943
1359	0.24137
1360	0.24341
1361	0.24548
1362	0.24766
1363	0.24995
1364	0.25217
1365	0.25409
1366	0.25558
1367	0.2567
1368	0.25743
1369	0.25759
1370	0.25705
1371	0.25587
1372	0.25423
1373	0.25219
1374	0.24973
1375	0.24689
1376	0.24387
1377	0.2409
1378	0.23796
1379	0.23497
1380	0.232
1381	0.2293
1382	0.227
1383	0.22513
1384	0.22369
1385	0.22282
1386	0.22263
1387	0.22308
1388	0.22403
1389	0.22533
1390	0.22696
1391	0.22891
1392	0.23107
1393	0.2332
1394	0.23519
1395	0.23715
1396	0.23915
1397	0.24105
1398	0.24268
1399	0.24397
1400	0.24504
1401	0.24594
1402	0.24653
1403	0.2467
1404	0.2465
1405	0.24608
1406	0.24548
1407	0.24468
1408	0.24375
1409	0.24281
1410	0.2419
1411	0.24092
1412	0.23978
1413	0.23842
1414	0.23691
1415	0.23529
1416	0.23353
1417	0.23154
1418	0.22935
1419	0.22716
1420	0.22502
1421	0.22284
1422	0.22053
1423	0.21815
1424	0.21583
1425	0.21362
1426	0.21144
1427	0.20927
1428	0.20717
1429	0.20521
1430	0.20339
1431	0.20161
1432	0.19984
1433	0.19819
1434	0.19669
1435	0.19528
1436	0.19388
1437	0.19259
1438	0.19158
1439	0.19087
1440	0.19033
1441	0.1899
1442	0.18969
1443	0.18984
1444	0.19032
1445	0.19086
1446	0.19166
1447	0.19326
1448	0.1958
1449	0.1991
1450	0.20292
1451	0.20702
1452	0.21128
1453	0.21569
1454	0.22008
1455	0.22417
1456	0.22781
1457	0.231
1458	0.23361
1459	0.23543
1460	0.23632
1461	0.23636
1462	0.23556
1463	0.23369
1464	0.23059
1465	0.2263
1466	0.22103
1467	0.21496
1468	0.20827
1469	0.20125
1470	0.1946
1471	0.18882
1472	0.18385
1473	0.17957
1474	0.17584
1475	0.17265
1476	0.17004
1477	0.16797
1478	0.16621
1479	0.16455
1480	0.16303
1481	0.16166
1482	0.16032
1483	0.15888
1484	0.15723
1485	0.1554
1486	0.15345
1487	0.15132
1488	0.14898
1489	0.14656
1490	0.14421
1491	0.14203
1492	0.14012
1493	0.13856
1494	0.13743
1495	0.13677
1496	0.13672
1497	0.13717
1498	0.1379
1499	0.13882
1500	0.13985
1501	0.14087
1502	0.14181
1503	0.14265
1504	0.1434
1505	0.14403
1506	0.14459
1507	0.14518
1508	0.14575
1509	0.14631
1510	0.147
1511	0.1479
1512	0.14897
1513	0.15013
1514	0.1513
1515	0.15245
1516	0.15349
1517	0.15435
1518	0.15506
1519	0.15584
1520	0.15678
1521	0.15762
1522	0.1582
1523	0.15867
1524	0.15909
1525	0.15938
1526	0.15946
1527	0.15917
1528	0.15855
1529	0.15803
1530	0.1577
1531	0.15739
1532	0.15701
1533	0.15662
1534	0.15638
1535	0.15625
1536	0.15602
1537	0.15561
1538	0.15511
1539	0.15455
1540	0.15387
1541	0.15306
1542	0.15215
1543	0.15116
1544	0.15007
1545	0.14884
1546	0.14744
1547	0.14598
1548	0.14463
1549	0.14328
1550	0.14181
1551	0.14023
1552	0.13873
1553	0.1375
1554	0.13626
1555	0.13494
1556	0.13359
1557	0.1322
1558	0.13072
1559	0.12919
1560	0.12761
1561	0.12601
1562	0.12444
1563	0.12285
1564	0.12111
1565	0.11928
1566	0.11765
1567	0.11626
1568	0.11496
1569	0.11363
1570	0.11231
1571	0.11122
1572	0.1105
1573	0.10987
1574	0.10921
1575	0.10861
1576	0.10816
1577	0.10786
1578	0.10768
1579	0.10758
1580	0.10765
1581	0.10794
1582	0.10844
1583	0.10907
1584	0.10976
1585	0.11057
1586	0.1115
1587	0.11248
1588	0.11344
1589	0.11454
1590	0.11591
1591	0.11735
1592	0.11875
1593	0.12012
1594	0.12154
1595	0.12303
1596	0.12456
1597	0.12606
1598	0.12753
1599	0.12907
1600	0.13072
1601	0.13236
1602	0.13392
1603	0.13545
1604	0.13697
1605	0.13841
1606	0.13989
1607	0.14149
1608	0.1432
1609	0.14502
1610	0.14686
1611	0.14858
1612	0.15015
1613	0.15182
1614	0.15368
1615	0.15557
1616	0.15735
1617	0.15904
1618	0.16078
1619	0.16252
1620	0.16414
1621	0.16557
1622	0.16682
1623	0.16789
1624	0.16875
1625	0.16948
1626	0.17014
1627	0.17075
1628	0.17132
1629	0.17184
1630	0.17237
1631	0.17276
1632	0.17289
1633	0.17282
1634	0.17249
1635	0.17191
1636	0.17132
1637	0.17094
1638	0.17053
1639	0.16994
1640	0.16915
1641	0.16813
1642	0.16684
1643	0.16556
1644	0.16424
1645	0.16282
1646	0.16129
1647	0.1597
1648	0.15812
1649	0.15659
1650	0.15502
1651	0.15337
1652	0.15175
1653	0.15021
1654	0.14869
1655	0.14721
1656	0.14583
1657	0.14458
1658	0.1435
1659	0.14277
1660	0.14246
1661	0.14253
1662	0.14283
1663	0.14317
1664	0.14342
1665	0.14379
1666	0.14454
1667	0.1458
1668	0.1471
1669	0.14833
1670	0.14966
1671	0.15113
1672	0.1525
1673	0.15374
1674	0.15539
1675	0.15752
1676	0.16004
1677	0.16271
1678	0.16537
1679	0.16803
1680	0.17075
1681	0.17353
1682	0.17638
1683	0.17921
1684	0.18182
1685	0.18429
1686	0.18665
1687	0.18878
1688	0.19068
1689	0.1924
1690	0.19382
1691	0.19479
1692	0.19523
1693	0.1952
1694	0.19482
1695	0.19408
1696	0.1929
1697	0.19145
1698	0.18997
1699	0.18808
1700	0.18568
1701	0.18279
1702	0.17947
1703	0.17581
1704	0.17195
1705	0.16794
1706	0.16379
1707	0.15961
1708	0.15553
1709	0.15178
1710	0.1483
1711	0.14494
1712	0.14162
1713	0.13843
1714	0.13558
1715	0.13303
1716	0.13073
1717	0.12872
1718	0.12706
1719	0.12582
1720	0.12504
1721	0.12465
1722	0.12442
1723	0.12453
1724	0.12537
1725	0.12684
1726	0.12878
1727	0.13115
1728	0.13392
1729	0.13715
1730	0.14087
1731	0.14494
1732	0.14918
1733	0.15356
1734	0.15802
1735	0.16245
1736	0.16684
1737	0.17126
1738	0.17583
1739	0.18041
1740	0.18495
1741	0.18965
1742	0.1946
1743	0.19984
1744	0.20529
1745	0.21074
1746	0.21625
1747	0.22222
1748	0.22867
1749	0.23505
1750	0.24119
1751	0.24709
1752	0.25278
1753	0.25822
1754	0.26321
1755	0.2675
1756	0.27111
1757	0.27406
1758	0.27623
1759	0.27756
1760	0.27812
1761	0.27812
1762	0.27765
1763	0.27659
1764	0.27503
1765	0.27316
1766	0.27096
1767	0.26838
1768	0.26547
1769	0.26236
1770	0.25926
1771	0.25621
1772	0.25313
1773	0.25001
1774	0.24695
1775	0.24407
1776	0.24135
1777	0.23868
1778	0.23604
1779	0.23347
1780	0.23102
1781	0.22872
1782	0.22655
1783	0.22449
1784	0.22255
1785	0.22073
1786	0.21886
1787	0.2168
1788	0.21455
1789	0.21211
1790	0.20945
1791	0.20645
1792	0.20307
1793	0.19932
1794	0.19521
1795	0.1907
1796	0.18573
1797	0.18034
1798	0.17463
1799	0.16869
1800	0.16253
1801	0.15614
1802	0.14962
1803	0.1431
1804	0.13668
1805	0.13039
1806	0.12423
1807	0.11823
1808	0.11249
1809	0.107
1810	0.10176
1811	0.09678
1812	0.09214
1813	0.08784
1814	0.08385
1815	0.08015
1816	0.07669
1817	0.07345
1818	0.07043
1819	0.06766
1820	0.06514
1821	0.06282
1822	0.06072
1823	0.0588
1824	0.057
1825	0.05526
1826	0.05358
1827	0.05201
1828	0.05055
1829	0.04911
1830	0.04767
1831	0.04627
1832	0.04492
1833	0.04359
1834	0.04234
1835	0.04117
1836	0.04006
1837	0.03903
1838	0.03807
1839	0.03714
1840	0.0362
1841	0.03528
1842	0.03444
1843	0.0337
1844	0.03299
1845	0.03225
1846	0.03151
1847	0.03079
1848	0.03007
1849	0.02935
1850	0.02865
1851	0.02801
1852	0.02739
1853	0.02672
1854	0.02602
1855	0.02535
1856	0.02474
1857	0.02421
1858	0.0238
1859	0.02349
1860	0.02323
1861	0.02304
1862	0.02285
1863	0.02264
1864	0.02239
1865	0.02216
1866	0.02193
1867	0.02168
1868	0.02141
1869	0.02113
1870	0.02087
1871	0.02059
1872	0.02029
1873	0.01994
1874	0.01961
1875	0.0193
1876	0.01898
1877	0.0186
1878	0.01818
1879	0.01782
1880	0.01757
1881	0.01739
1882	0.01725
1883	0.01714
1884	0.01707
1885	0.01701
1886	0.01693
1887	0.01681
1888	0.01668
1889	0.01658
1890	0.01649
1891	0.01637
1892	0.01621
1893	0.01605
1894	0.0159
1895	0.01572
1896	0.01549
1897	0.01525
1898	0.01503
1899	0.01482
1900	0.0146
1901	0.01436
1902	0.01414
1903	0.014
1904	0.01387
1905	0.01369
1906	0.01343
1907	0.01318
1908	0.01303
1909	0.01295
1910	0.01283
1911	0.01265
1912	0.01249
1913	0.01241
1914	0.01234
1915	0.01224
1916	0.01212
1917	0.01201
1918	0.01192
1919	0.0118
1920	0.01165
1921	0.0115
1922	0.01139
1923	0.01131
1924	0.01123
1925	0.01113
1926	0.01103
1927	0.01095
1928	0.01086
1929	0.01074
1930	0.01058
1931	0.01048
1932	0.01048
1933	0.01051
1934	0.0105
1935	0.01049
1936	0.01056
1937	0.01068
1938	0.01078
1939	0.01081
1940	0.01083
1941	0.0109
1942	0.01097
1943	0.01102
1944	0.01103
1945	0.01105
1946	0.01111
1947	0.01118
1948	0.01123
1949	0.01125
1950	0.01128
1951	0.01134
1952	0.01138
1953	0.01138
1954	0.01136
1955	0.01137
1956	0.01146
1957	0.01157
1958	0.01163
1959	0.01168
1960	0.01177
1961	0.01187
1962	0.01193
1963	0.01195
1964	0.01197
1965	0.01203
1966	0.01209
1967	0.0121
1968	0.01209
1969	0.01211
1970	0.01217
1971	0.01221
1972	0.01222
1973	0.01221
1974	0.01221
1975	0.01222
1976	0.0122
1977	0.01215
1978	0.0121
1979	0.0121
1980	0.01213
1981	0.01216
1982	0.01218
1983	0.01223
1984	0.01231
1985	0.01238
1986	0.01241
1987	0.01242
1988	0.01245
1989	0.01251
1990	0.01254
1991	0.01254
1992	0.01253
1993	0.01254
1994	0.01258
1995	0.01258
1996	0.01252
1997	0.01244
1998	0.01238
1999	0.01233
2000	0.01226
2001	0.01217
2002	0.01211
2003	0.01208
2004	0.01206
2005	0.01203
2006	0.01202
2007	0.01204
2008	0.01209
2009	0.01213
2010	0.01215
2011	0.01218
2012	0.01224
2013	0.01232
2014	0.01238
2015	0.01243
2016	0.0125
2017	0.01262
2018	0.01275
2019	0.01284
2020	0.01291
2021	0.01302
2022	0.01316
2023	0.01329
2024	0.01339
2025	0.01349
2026	0.01361
2027	0.01375
2028	0.01385
2029	0.01393
2030	0.01403
2031	0.01417
2032	0.01432
2033	0.01444
2034	0.01452
2035	0.01461
2036	0.01473
2037	0.01485
2038	0.01493
2039	0.01499
2040	0.01508
2041	0.0152
2042	0.01529
2043	0.01533
2044	0.01536
2045	0.01543
2046	0.0155
2047	0.01553
2048	0.01551
2049	0.01549
2050	0.01548
2051	0.01548
2052	0.01544
2053	0.01538
2054	0.01534
2055	0.01533
2056	0.01532
2057	0.01525
2058	0.01516
2059	0.01511
2060	0.01508
2061	0.01503
2062	0.01493
2063	0.01482
2064	0.01475
2065	0.01469
2066	0.0146
2067	0.01448
2068	0.01437
2069	0.01431
2070	0.01424
2071	0.01414
2072	0.01403
2073	0.01395
2074	0.0139
2075	0.01384
2076	0.01374
2077	0.01364
2078	0.01358
2079	0.01354
2080	0.01349
2081	0.0134
2082	0.01332
2083	0.01328
2084	0.01323
2085	0.01314
2086	0.01301
2087	0.0129
2088	0.01282
2089	0.01273
2090	0.01261
2091	0.01246
2092	0.01233
2093	0.01223
2094	0.01212
2095	0.01199
2096	0.01185
2097	0.01173
2098	0.01163
2099	0.01152
2100	0.01139
2101	0.01129
2102	0.01122
2103	0.01115
2104	0.01106
2105	0.01097
2106	0.0109
2107	0.01085
2108	0.0108
2109	0.01072
2110	0.01065
2111	0.01061
2112	0.01057
2113	0.01051
2114	0.01042
2115	0.01033
2116	0.01028
2117	0.01023
2118	0.01016
2119	0.01007
2120	0.01
2121	0.00995
2122	0.00992
2123	0.00986
2124	0.0098
2125	0.00977
2126	0.00977
2127	0.00976
2128	0.00975
2129	0.00974
2130	0.00976
2131	0.00978
2132	0.00979
2133	0.00977
2134	0.00977
2135	0.00977
2136	0.00977
2137	0.00974
2138	0.00969
2139	0.00966
2140	0.00965
2141	0.00962
2142	0.00957
2143	0.00951
2144	0.00948
2145	0.00947
2146	0.00945
2147	0.00939
2148	0.00934
2149	0.00931
2150	0.0093
2151	0.00926
2152	0.00918
2153	0.0091
2154	0.00903
2155	0.00896
2156	0.00886
2157	0.00873
2158	0.0086
2159	0.0085
2160	0.00839
2161	0.00824
2162	0.00809
2163	0.00796
2164	0.00785
2165	0.00772
2166	0.00755
2167	0.00738
2168	0.00725
2169	0.00714
2170	0.007
2171	0.00683
2172	0.00667
2173	0.00655
2174	0.00642
2175	0.00625
2176	0.00606
2177	0.00591
2178	0.00579
2179	0.00567
2180	0.00549
2181	0.0053
2182	0.00515
2183	0.00503
2184	0.00489
2185	0.00472
2186	0.00454
2187	0.00439
2188	0.00425
2189	0.00407
2190	0.00386
2191	0.00368
2192	0.00353
2193	0.00338
2194	0.00321
2195	0.00302
2196	0.00285
2197	0.00272
2198	0.00258
2199	0.0024
2200	0.00222
2201	0.00206
2202	0.00193
2203	0.00177
2204	0.00157
2205	0.00138
2206	0.00122
2207	0.00106
2208	8.95817E-4
2209	7.26333E-4
2210	5.76311E-4
2211	4.55011E-4
2212	3.43613E-4
2213	2.28678E-4
2214	1.2744E-4
2215	6.40777E-5
2216	3.44707E-5
2217	1.54551E-5
2218	0
2219	5.10518E-6
2220	4.45978E-5
2221	1.00652E-4
2222	1.44804E-4
2223	1.73084E-4
2224	2.12073E-4
2225	2.73846E-4
2226	3.37262E-4
2227	3.78834E-4
2228	4.0178E-4
2229	4.30331E-4
2230	4.71948E-4
2231	5.07727E-4
2232	5.43505E-4
2233	5.79284E-4
2234	6.15062E-4
2235	6.50841E-4
2236	6.86619E-4
2237	7.22398E-4
2238	7.58176E-4
2239	7.93955E-4
2240	8.29733E-4
2241	8.65512E-4
2242	9.0129E-4
2243	9.37069E-4
2244	9.72847E-4
2245	0.00101
2246	0.00104
2247	0.00108
2248	0.00112
2249	0.00115
2250	0.00119
2251	0.00122
2252	0.00126
2253	0.00129
2254	0.00133
2255	0.00137
2256	0.0014
2257	0.00144
2258	0.00147
2259	0.00151
2260	0.00155
2261	0.00158
2262	0.00162
2263	0.00165
2264	0.00169
2265	0.00172
2266	0.00176
2267	0.0018
2268	0.00183
2269	0.00187
2270	0.0019
2271	0.00194
2272	0.00197
2273	0.00201
2274	0.00205
2275	0.00208
2276	0.00212
2277	0.00215
2278	0.00219
2279	0.00223
2280	0.00226
2281	0.0023
2282	0.00233
2283	0.00237
2284	0.0024
2285	0.00244
2286	0.00248
2287	0.00251
2288	0.00255
2289	0.00258
2290	0.00262
2291	0.00265
2292	0.00269
2293	0.00273
2294	0.00276
2295	0.0028
2296	0.00283
2297	0.00287
2298	0.0029
2299	0.00294
2300	0.00298
2301	0.00301
2302	0.00305
2303	0.00308
2304	0.00312
2305	0.00316
2306	0.00319
2307	0.00323
2308	0.00326
2309	0.0033
2310	0.00333
2311	0.00337
2312	0.00341
2313	0.00344
2314	0.00348
2315	0.00351
2316	0.00355
2317	0.00358
2318	0.00362
2319	0.00366
2320	0.00369
2321	0.00373
2322	0.00376
2323	0.0038
2324	0.00384
2325	0.00387
2326	0.00391
2327	0.00394
2328	0.00398
2329	0.00401
2330	0.00405
2331	0.00409
2332	0.00412
2333	0.00416
2334	0.00419
2335	0.00423
2336	0.00426
2337	0.0043
2338	0.00434
2339	0.00437
2340	0.00441
2341	0.00444
2342	0.00448
2343	0.00451
2344	0.00455
2345	0.00459
2346	0.00462
2347	0.00466
2348	0.00469
2349	0.00473
2350	0.00477
2351	0.0048
2352	0.00484
2353	0.00487
2354	0.00491
2355	0.00494
2356	0.00498
2357	0.00502
2358	0.00505
2359	0.00509
2360	0.00512
2361	0.00516
2362	0.00519
2363	0.00523
2364	0.00527
2365	0.0053
2366	0.00534
2367	0.00537
2368	0.00541
2369	0.00545
2370	0.00548
2371	0.00552
2372	0.00555
2373	0.00559
2374	0.00562
2375	0.00566
2376	0.0057
2377	0.00573
2378	0.00577
2379	0.0058
2380	0.00584
2381	0.00587
2382	0.00591
2383	0.00595
2384	0.00598
2385	0.00602
2386	0.00605
2387	0.00606
2388	0.00607
2389	0.00609
2390	0.00612
2391	0.00617
2392	0.00623
2393	0.0063
2394	0.00638
2395	0.00648
2396	0.00659
2397	0.00672
2398	0.00686
2399	0.00702
2400	0.00721
2401	0.00741
2402	0.00761
2403	0.00781
2404	0.008
2405	0.00821
2406	0.00843
2407	0.00864
2408	0.00883
2409	0.00903
2410	0.00922
2411	0.00941
2412	0.00962
2413	0.00984
2414	0.01006
2415	0.01029
2416	0.0105
2417	0.0107
2418	0.01091
2419	0.01115
2420	0.01139
2421	0.01163
2422	0.01188
2423	0.01214
2424	0.01241
2425	0.01267
2426	0.0129
2427	0.01313
2428	0.01337
2429	0.01362
2430	0.01386
2431	0.01409
2432	0.01431
2433	0.01454
2434	0.01479
2435	0.01503
2436	0.01525
2437	0.01547
2438	0.01569
2439	0.0159
2440	0.01612
2441	0.01633
2442	0.01655
2443	0.01679
2444	0.01704
2445	0.01729
2446	0.01754
2447	0.01779
2448	0.01806
2449	0.01831
2450	0.01854
2451	0.01878
2452	0.01903
2453	0.0193
2454	0.01957
2455	0.01981
2456	0.02003
2457	0.02027
2458	0.02052
2459	0.02076
2460	0.02096
2461	0.02116
2462	0.02136
2463	0.02156
2464	0.02175
2465	0.02194
2466	0.02213
2467	0.02234
2468	0.02254
2469	0.02272
2470	0.02289
2471	0.02308
2472	0.02328
2473	0.02347
2474	0.02366
2475	0.02386
2476	0.02407
2477	0.02429
2478	0.0245
2479	0.02468
2480	0.02486
2481	0.02507
2482	0.0253
2483	0.02552
2484	0.02571
2485	0.0259
2486	0.02611
2487	0.02632
2488	0.02653
2489	0.02672
2490	0.02691
2491	0.02711
2492	0.02731
2493	0.02751
2494	0.02772
2495	0.02796
2496	0.02822
2497	0.02848
2498	0.02871
2499	0.02893
2500	0.02915
2501	0.02937
2502	0.02958
2503	0.02978
2504	0.02999
2505	0.03021
2506	0.03042
2507	0.0306
2508	0.03075
2509	0.03089
2510	0.03104
2511	0.03119
2512	0.03133
2513	0.03146
2514	0.03161
2515	0.03177
2516	0.03193
2517	0.03209
2518	0.03226
2519	0.03244
2520	0.03264
2521	0.03282
2522	0.03297
2523	0.03312
2524	0.0333
2525	0.03348
2526	0.03366
2527	0.03385
2528	0.03405
2529	0.03426
2530	0.03447
2531	0.03466
2532	0.03485
2533	0.03507
2534	0.03528
2535	0.03549
2536	0.03568
2537	0.03588
2538	0.03609
2539	0.03629
2540	0.03648
2541	0.03665
2542	0.03682
2543	0.03702
2544	0.03723
2545	0.03744
2546	0.03765
2547	0.03787
2548	0.0381
2549	0.03833
2550	0.03855
2551	0.03879
2552	0.03904
2553	0.0393
2554	0.03954
2555	0.03978
2556	0.04002
2557	0.04026
2558	0.04052
2559	0.04078
2560	0.04105
2561	0.04134
2562	0.04163
2563	0.04192
2564	0.04221
2565	0.04251
2566	0.04284
2567	0.04319
2568	0.04355
2569	0.04391
2570	0.04428
2571	0.04466
2572	0.04501
2573	0.04535
2574	0.04569
2575	0.04604
2576	0.04642
2577	0.04679
2578	0.04715
2579	0.04751
2580	0.04788
2581	0.04827
2582	0.04864
2583	0.04899
2584	0.04934
2585	0.04972
2586	0.05011
2587	0.0505
2588	0.05088
2589	0.05126
2590	0.05165
2591	0.05205
2592	0.05243
2593	0.05281
2594	0.05319
2595	0.05357
2596	0.05396
2597	0.05435
2598	0.05476
2599	0.05518
2600	0.05562
2601	0.05604
2602	0.05645
2603	0.05685
2604	0.05727
2605	0.05769
2606	0.0581
2607	0.05852
2608	0.05895
2609	0.05941
2610	0.05985
2611	0.06028
2612	0.06068
2613	0.06109
2614	0.06149
2615	0.0619
2616	0.0623
2617	0.06272
2618	0.06314
2619	0.06357
2620	0.06399
2621	0.06439
2622	0.06477
2623	0.06516
2624	0.06554
2625	0.06591
2626	0.06626
2627	0.06662
2628	0.067
2629	0.06738
2630	0.06776
2631	0.06812
2632	0.06849
2633	0.06884
2634	0.06918
2635	0.06949
2636	0.06979
2637	0.07008
2638	0.07037
2639	0.07065
2640	0.07091
2641	0.07116
2642	0.0714
2643	0.07161
2644	0.0718
2645	0.07198
2646	0.07216
2647	0.07233
2648	0.07248
2649	0.07262
2650	0.07276
2651	0.07289
2652	0.07303
2653	0.07316
2654	0.0733
2655	0.07342
2656	0.07354
2657	0.07365
2658	0.07374
2659	0.07383
2660	0.07391
2661	0.07399
2662	0.07409
2663	0.07419
2664	0.07428
2665	0.07437
2666	0.07446
2667	0.07455
2668	0.07464
2669	0.07474
2670	0.07488
2671	0.07502
2672	0.07515
2673	0.07525
2674	0.07535
2675	0.07544
2676	0.07553
2677	0.07559
2678	0.07565
2679	0.07569
2680	0.07573
2681	0.07576
2682	0.07578
2683	0.0758
2684	0.07582
2685	0.07584
2686	0.07587
2687	0.07588
2688	0.0759
2689	0.07594
2690	0.076
2691	0.07609
2692	0.07621
2693	0.07637
2694	0.07656
2695	0.07673
2696	0.07687
2697	0.07701
2698	0.07716
2699	0.07733
2700	0.07751
2701	0.0777
2702	0.07789
2703	0.0781
2704	0.07832
2705	0.07853
2706	0.07875
2707	0.07897
2708	0.07921
2709	0.07946
2710	0.07972
2711	0.07999
2712	0.0803
2713	0.08062
2714	0.08096
2715	0.08132
2716	0.08172
2717	0.08215
2718	0.08257
2719	0.08297
2720	0.08335
2721	0.08372
2722	0.0841
2723	0.08449
2724	0.08485
2725	0.08517
2726	0.08548
2727	0.08579
2728	0.08611
2729	0.0864
2730	0.08668
2731	0.08694
2732	0.08721
2733	0.08745
2734	0.08767
2735	0.08786
2736	0.08806
2737	0.08827
2738	0.08852
2739	0.08883
2740	0.08916
2741	0.08949
2742	0.08978
2743	0.09006
2744	0.09033
2745	0.09061
2746	0.0909
2747	0.09117
2748	0.09144
2749	0.09171
2750	0.09199
2751	0.09228
2752	0.09254
2753	0.09279
2754	0.09301
2755	0.09323
2756	0.09345
2757	0.09365
2758	0.09383
2759	0.09401
2760	0.09421
2761	0.09445
2762	0.09472
2763	0.09503
2764	0.09536
2765	0.09573
2766	0.09613
2767	0.09654
2768	0.09697
2769	0.09741
2770	0.09787
2771	0.09834
2772	0.09882
2773	0.09929
2774	0.09976
2775	0.10022
2776	0.10067
2777	0.10112
2778	0.10159
2779	0.10209
2780	0.10263
2781	0.10319
2782	0.10375
2783	0.1043
2784	0.10484
2785	0.10541
2786	0.10601
2787	0.10665
2788	0.10736
2789	0.10812
2790	0.10887
2791	0.1096
2792	0.11032
2793	0.11104
2794	0.11176
2795	0.11248
2796	0.1132
2797	0.11389
2798	0.11455
2799	0.11525
2800	0.11601
2801	0.11683
2802	0.11771
2803	0.1186
2804	0.1195
2805	0.12039
2806	0.12126
2807	0.12211
2808	0.12297
2809	0.12386
2810	0.12478
2811	0.12573
2812	0.12672
2813	0.12771
2814	0.12869
2815	0.12966
2816	0.13064
2817	0.13163
2818	0.13263
2819	0.13363
2820	0.13464
2821	0.13567
2822	0.13676
2823	0.13793
2824	0.13917
2825	0.14043
2826	0.14168
2827	0.14295
2828	0.14429
2829	0.14572
2830	0.14719
2831	0.1487
2832	0.15025
2833	0.15186
2834	0.15352
2835	0.15526
2836	0.15714
2837	0.15924
2838	0.16167
2839	0.16447
2840	0.16771
2841	0.17141
2842	0.17558
2843	0.18016
2844	0.18511
2845	0.19033
2846	0.19571
2847	0.2011
2848	0.20638
2849	0.21142
2850	0.2161
2851	0.22031
2852	0.22394
2853	0.2269
2854	0.22914
2855	0.23068
2856	0.23154
2857	0.23179
2858	0.23152
2859	0.23088
2860	0.23008
2861	0.2293
2862	0.22872
2863	0.22846
2864	0.22859
2865	0.22914
2866	0.23008
2867	0.23137
2868	0.23295
2869	0.23476
2870	0.23673
2871	0.23879
2872	0.24088
2873	0.24295
2874	0.24491
2875	0.24672
2876	0.24837
2877	0.24987
2878	0.25124
2879	0.25251
2880	0.2537
2881	0.25483
2882	0.25596
2883	0.25712
2884	0.25841
2885	0.2599
2886	0.26164
2887	0.26357
2888	0.26564
2889	0.26782
2890	0.27011
2891	0.2725
2892	0.27501
2893	0.27767
2894	0.28047
2895	0.28338
2896	0.28637
2897	0.28945
2898	0.29262
2899	0.29588
2900	0.29921
2901	0.30263
2902	0.30617
2903	0.30989
2904	0.31384
2905	0.31807
2906	0.32266
2907	0.32766
2908	0.33314
2909	0.33909
2910	0.34543
2911	0.3521
2912	0.35905
2913	0.36623
2914	0.37358
2915	0.38099
2916	0.38834
2917	0.39552
2918	0.40238
2919	0.40881
2920	0.41469
2921	0.41992
2922	0.42437
2923	0.42793
2924	0.43055
2925	0.43219
2926	0.43291
2927	0.43271
2928	0.43166
2929	0.42978
2930	0.42714
2931	0.42379
2932	0.41979
2933	0.41517
2934	0.41002
2935	0.40442
2936	0.39848
2937	0.39227
2938	0.38582
2939	0.37915
2940	0.37237
2941	0.3656
2942	0.35898
2943	0.3526
2944	0.34644
2945	0.34055
2946	0.33499
2947	0.32979
2948	0.32501
2949	0.32066
2950	0.31673
2951	0.31322
2952	0.3101
2953	0.30735
2954	0.30491
2955	0.30273
2956	0.30076
2957	0.29894
2958	0.29723
2959	0.29558
2960	0.29393
2961	0.29222
2962	0.29038
2963	0.28844
2964	0.28647
2965	0.28448
2966	0.28242
2967	0.28025
2968	0.27801
2969	0.27573
2970	0.27345
2971	0.27116
2972	0.26886
2973	0.26652
2974	0.26411
2975	0.26165
2976	0.25916
2977	0.25661
2978	0.25398
2979	0.25126
2980	0.24844
2981	0.24557
2982	0.24265
2983	0.23971
2984	0.2367
2985	0.23363
2986	0.23055
2987	0.22752
2988	0.22456
2989	0.22162
2990	0.21869
2991	0.21583
2992	0.2131
2993	0.21053
2994	0.20811
2995	0.20581
2996	0.2036
2997	0.20149
2998	0.19951
2999	0.1977
3000	0.19607
3001	0.19463
3002	0.19336
3003	0.19228
3004	0.1914
3005	0.1907
3006	0.19013
3007	0.18966
3008	0.18926
3009	0.18895
3010	0.18873
3011	0.18856
3012	0.18839
3013	0.18823
3014	0.1881
3015	0.18802
3016	0.18795
3017	0.18787
3018	0.18776
3019	0.18765
3020	0.18757
3021	0.18755
3022	0.18762
3023	0.18783
3024	0.18818
3025	0.18869
3026	0.1893
3027	0.18998
3028	0.19069
3029	0.19143
3030	0.1922
3031	0.19303
3032	0.1939
3033	0.19481
3034	0.19572
3035	0.19662
3036	0.19752
3037	0.1984
3038	0.19922
3039	0.19996
3040	0.20066
3041	0.20132
3042	0.20196
3043	0.20258
3044	0.20321
3045	0.20387
3046	0.20458
3047	0.20535
3048	0.20613
3049	0.20688
3050	0.20757
3051	0.20821
3052	0.20885
3053	0.20951
3054	0.21019
3055	0.21091
3056	0.21171
3057	0.21257
3058	0.21347
3059	0.21436
3060	0.21523
3061	0.21603
3062	0.21678
3063	0.21752
3064	0.21823
3065	0.21888
3066	0.21947
3067	0.22007
3068	0.22069
3069	0.22135
3070	0.22202
3071	0.22267
3072	0.22327
3073	0.22384
3074	0.22444
3075	0.22505
3076	0.22567
3077	0.22627
3078	0.22688
3079	0.22756
3080	0.22834
3081	0.22919
3082	0.23005
3083	0.23089
3084	0.23169
3085	0.23244
3086	0.23313
3087	0.2338
3088	0.23447
3089	0.2352
3090	0.23602
3091	0.23692
3092	0.23786
3093	0.23884
3094	0.23981
3095	0.24074
3096	0.24167
3097	0.24264
3098	0.2437
3099	0.24481
3100	0.24593
3101	0.24707
3102	0.24822
3103	0.24943
3104	0.2507
3105	0.25203
3106	0.25339
3107	0.25477
3108	0.25616
3109	0.25758
3110	0.25905
3111	0.26059
3112	0.26217
3113	0.26377
3114	0.26536
3115	0.26688
3116	0.26833
3117	0.26968
3118	0.27099
3119	0.27228
3120	0.27362
3121	0.27502
3122	0.27644
3123	0.27783
3124	0.27916
3125	0.28046
3126	0.28173
3127	0.28304
3128	0.28443
3129	0.28594
3130	0.28754
3131	0.28919
3132	0.29086
3133	0.29257
3134	0.2943
3135	0.29602
3136	0.29772
3137	0.29939
3138	0.30102
3139	0.3026
3140	0.30418
3141	0.30582
3142	0.30755
3143	0.30936
3144	0.3112
3145	0.31303
3146	0.31484
3147	0.31664
3148	0.31842
3149	0.3202
3150	0.32199
3151	0.32381
3152	0.32567
3153	0.32755
3154	0.32942
3155	0.33126
3156	0.33307
3157	0.33487
3158	0.33666
3159	0.33844
3160	0.34022
3161	0.342
3162	0.34377
3163	0.34557
3164	0.34743
3165	0.34934
3166	0.35129
3167	0.35324
3168	0.35522
3169	0.35722
3170	0.35924
3171	0.36126
3172	0.36327
3173	0.36529
3174	0.36733
3175	0.36937
3176	0.37141
3177	0.37346
3178	0.37551
3179	0.37758
3180	0.37963
3181	0.38168
3182	0.38374
3183	0.38582
3184	0.38791
3185	0.38999
3186	0.39206
3187	0.39412
3188	0.39617
3189	0.39822
3190	0.40025
3191	0.40232
3192	0.40441
3193	0.40652
3194	0.40861
3195	0.41069
3196	0.41279
3197	0.41491
3198	0.41704
3199	0.41915
3200	0.42124
3201	0.42331
3202	0.42535
3203	0.42739
3204	0.42944
3205	0.4315
3206	0.43353
3207	0.43552
3208	0.43748
3209	0.43944
3210	0.4414
3211	0.44333
3212	0.44525
3213	0.44716
3214	0.44906
3215	0.45094
3216	0.4528
3217	0.45466
3218	0.4565
3219	0.45831
3220	0.4601
3221	0.4619
3222	0.46372
3223	0.46559
3224	0.4675
3225	0.46941
3226	0.47131
3227	0.4732
3228	0.47509
3229	0.47694
3230	0.47873
3231	0.48051
3232	0.48231
3233	0.4841
3234	0.48585
3235	0.48758
3236	0.48935
3237	0.49116
3238	0.49298
3239	0.49478
3240	0.49653
3241	0.49825
3242	0.4999
3243	0.50149
3244	0.50311
3245	0.5048
3246	0.50656
3247	0.50834
3248	0.51011
3249	0.51181
3250	0.51346
3251	0.51508
3252	0.51669
3253	0.51825
3254	0.51978
3255	0.52128
3256	0.52274
3257	0.52416
3258	0.5256
3259	0.5271
3260	0.52871
3261	0.53039
3262	0.53205
3263	0.53365
3264	0.53524
3265	0.53683
3266	0.53841
3267	0.53996
3268	0.54153
3269	0.5431
3270	0.54464
3271	0.54613
3272	0.54758
3273	0.54898
3274	0.55034
3275	0.55164
3276	0.55288
3277	0.55407
3278	0.55519
3279	0.55629
3280	0.55739
3281	0.55854
3282	0.55979
3283	0.56116
3284	0.56262
3285	0.56415
3286	0.56571
3287	0.56731
3288	0.56895
3289	0.57061
3290	0.57224
3291	0.57383
3292	0.57537
3293	0.57692
3294	0.57849
3295	0.58007
3296	0.58165
3297	0.58322
3298	0.58479
3299	0.58635
3300	0.58789
3301	0.5894
3302	0.5909
3303	0.59239
3304	0.59388
3305	0.59537
3306	0.59686
3307	0.59833
3308	0.59977
3309	0.60121
3310	0.60263
3311	0.604
3312	0.60531
3313	0.60657
3314	0.60782
3315	0.60913
3316	0.61052
3317	0.61198
3318	0.61346
3319	0.61496
3320	0.61649
3321	0.61805
3322	0.61963
3323	0.62121
3324	0.62277
3325	0.62428
3326	0.62577
3327	0.62727
3328	0.62882
3329	0.63043
3330	0.63206
3331	0.63368
3332	0.6353
3333	0.63694
3334	0.63857
3335	0.64018
3336	0.64175
3337	0.6433
3338	0.64485
3339	0.64643
3340	0.64803
3341	0.64961
3342	0.65116
3343	0.6527
3344	0.6542
3345	0.65563
3346	0.65702
3347	0.65836
3348	0.65965
3349	0.66096
3350	0.66233
3351	0.66379
3352	0.66529
3353	0.66678
3354	0.66824
3355	0.66972
3356	0.67125
3357	0.67285
3358	0.67447
3359	0.67609
3360	0.67771
3361	0.67937
3362	0.68107
3363	0.68283
3364	0.6846
3365	0.68635
3366	0.68806
3367	0.68972
3368	0.69131
3369	0.69283
3370	0.69431
3371	0.69573
3372	0.69708
3373	0.69838
3374	0.69961
3375	0.70073
3376	0.70175
3377	0.70269
3378	0.70357
3379	0.70444
3380	0.70533
3381	0.70623
3382	0.70712
3383	0.70804
3384	0.70895
3385	0.70979
3386	0.71055
3387	0.71122
3388	0.71185
3389	0.71247
3390	0.71312
3391	0.71377
3392	0.7144
3393	0.71499
3394	0.7155
3395	0.71589
3396	0.71614
3397	0.71627
3398	0.71635
3399	0.71641
3400	0.71642
3401	0.71638
3402	0.71633
3403	0.71634
3404	0.71637
3405	0.7164
3406	0.7164
3407	0.71633
3408	0.71615
3409	0.71586
3410	0.71557
3411	0.7153
3412	0.71506
3413	0.71483
3414	0.71461
3415	0.71437
3416	0.71402
3417	0.71356
3418	0.71302
3419	0.71246
3420	0.71194
3421	0.71147
3422	0.711
3423	0.71051
3424	0.71003
3425	0.70959
3426	0.70921
3427	0.70884
3428	0.70843
3429	0.70794
3430	0.70734
3431	0.70657
3432	0.70567
3433	0.70473
3434	0.70375
3435	0.70264
3436	0.70138
3437	0.70006
3438	0.69869
3439	0.69722
3440	0.69566
3441	0.69404
3442	0.6924
3443	0.69073
3444	0.68904
3445	0.68729
3446	0.68549
3447	0.68367
3448	0.68189
3449	0.68015
3450	0.67848
3451	0.67681
3452	0.67509
3453	0.67329
3454	0.67138
3455	0.66938
3456	0.6674
3457	0.66548
3458	0.66361
3459	0.66176
3460	0.65994
3461	0.65816
3462	0.65633
3463	0.6544
3464	0.65239
3465	0.65029
3466	0.6481
3467	0.64582
3468	0.64352
3469	0.64125
3470	0.63899
3471	0.63672
3472	0.63444
3473	0.63214
3474	0.62975
3475	0.62728
3476	0.62478
3477	0.62227
3478	0.61977
3479	0.61732
3480	0.6149
3481	0.61253
3482	0.61016
3483	0.60779
3484	0.60535
3485	0.60285
3486	0.60031
3487	0.5978
3488	0.59532
3489	0.59282
3490	0.59027
3491	0.58772
3492	0.58525
3493	0.5829
3494	0.58056
3495	0.57817
3496	0.57571
3497	0.57317
3498	0.57055
3499	0.5679
3500	0.56523
3501	0.56249
3502	0.55971
3503	0.55693
3504	0.55412
3505	0.55131
3506	0.5485
3507	0.54572
3508	0.5429
3509	0.54007
3510	0.53728
3511	0.53446
3512	0.53159
3513	0.52877
3514	0.52608
3515	0.5235
3516	0.52098
3517	0.51846
3518	0.51591
3519	0.51331
3520	0.51068
3521	0.50797
3522	0.5052
3523	0.5024
3524	0.49957
3525	0.49675
3526	0.49405
3527	0.49148
3528	0.4889
3529	0.48627
3530	0.48359
3531	0.48088
3532	0.47818
3533	0.47548
3534	0.47279
3535	0.47018
3536	0.4677
3537	0.46539
3538	0.46313
3539	0.4608
3540	0.45838
3541	0.45592
3542	0.45346
3543	0.451
3544	0.44851
3545	0.44597
3546	0.44336
3547	0.44067
3548	0.4379
3549	0.43508
3550	0.43229
3551	0.42949
3552	0.42664
3553	0.42381
3554	0.42098
3555	0.41807
3556	0.41502
3557	0.41191
3558	0.40892
3559	0.40613
3560	0.40342
3561	0.40073
3562	0.39802
3563	0.39528
3564	0.39251
3565	0.38972
3566	0.38693
3567	0.38415
3568	0.38133
3569	0.37843
3570	0.37549
3571	0.37252
3572	0.36949
3573	0.36648
3574	0.36359
3575	0.36074
3576	0.35785
3577	0.35488
3578	0.35179
3579	0.34864
3580	0.34556
3581	0.3426
3582	0.33975
3583	0.33687
3584	0.33381
3585	0.33065
3586	0.32745
3587	0.32417
3588	0.32088
3589	0.31757
3590	0.31426
3591	0.31096
3592	0.30767
3593	0.30441
3594	0.30124
3595	0.29808
3596	0.29485
3597	0.29158
3598	0.28827
3599	0.285
3600	0.28185
3601	0.2787
3602	0.27558
3603	0.27253
3604	0.26956
3605	0.26666
3606	0.26375
3607	0.26068
3608	0.25746
3609	0.25432
3610	0.2514
3611	0.24865
3612	0.24602
3613	0.24341
3614	0.24079
3615	0.23825
3616	0.2358
3617	0.23308
3618	0.22979
3619	0.22647
3620	0.22337
3621	0.22043
3622	0.21748
3623	0.21458
3624	0.21173
3625	0.20889
3626	0.2061
3627	0.20344
3628	0.20095
3629	0.19852
3630	0.19601
3631	0.19344
3632	0.19102
3633	0.18894
3634	0.18716
3635	0.18533
3636	0.1832
3637	0.18096
3638	0.17866
3639	0.17634
3640	0.1742
3641	0.17212
3642	0.17028
3643	0.16908
3644	0.1679
3645	0.16623
3646	0.16435
3647	0.16264
3648	0.16109
3649	0.15955
3650	0.15796
3651	0.15639
3652	0.15481
3653	0.15316
3654	0.15138
3655	0.14956
3656	0.14775
3657	0.14581
3658	0.14353
3659	0.14076
3660	0.1379
3661	0.13552
3662	0.13364
3663	0.132
3664	0.13011
3665	0.12823
3666	0.12657
3667	0.12495
3668	0.12307
3669	0.12116
3670	0.11972
3671	0.11854
3672	0.11736
3673	0.11618
3674	0.11507
3675	0.11401
3676	0.11275
3677	0.11118
3678	0.10979
3679	0.1087
3680	0.10759
3681	0.10641
3682	0.10522
3683	0.10408
3684	0.10318
3685	0.10242
3686	0.10145
3687	0.10003
3688	0.09835
3689	0.09713
3690	0.09597
3691	0.09454
3692	0.09307
3693	0.09177
3694	0.0905
3695	0.08915
3696	0.08781
3697	0.08641
3698	0.08479
3699	0.08317
3700	0.0814
3701	0.07954
3702	0.07835
3703	0.07761
3704	0.07697
3705	0.07655
3706	0.07629
3707	0.07596
3708	0.07559
3709	0.07533
3710	0.07508
3711	0.07467
3712	0.07424
3713	0.0738
3714	0.07319
3715	0.07253
3716	0.07197
3717	0.07144
3718	0.07088
3719	0.07034
3720	0.0695
3721	0.06823
3722	0.06704
3723	0.06599
3724	0.06449
3725	0.06312
3726	0.06245
3727	0.06218
3728	0.06217
3729	0.06229
3730	0.06243
3731	0.06275
3732	0.0632
3733	0.06312
3734	0.06254
3735	0.06227
3736	0.06251
3737	0.06278
3738	0.06261
3739	0.06232
3740	0.06209
3741	0.06168
3742	0.06127
3743	0.06093
3744	0.06041
3745	0.0598
3746	0.05941
3747	0.05883
3748	0.05789
3749	0.05734
3750	0.05725
3751	0.05734
3752	0.0575
3753	0.05755
3754	0.05737
3755	0.05706
3756	0.05653
3757	0.05567
3758	0.05499
3759	0.0547
3760	0.05442
3761	0.05396
3762	0.05335
3763	0.05289
3764	0.05241
3765	0.05194
3766	0.05178
3767	0.05162
3768	0.05111
3769	0.05052
3770	0.05017
3771	0.04987
3772	0.04942
3773	0.04909
3774	0.04893
3775	0.04877
3776	0.04857
3777	0.04827
3778	0.04783
3779	0.04747
3780	0.04728
3781	0.04698
3782	0.04651
3783	0.04619
3784	0.04607
3785	0.04575
3786	0.04526
3787	0.04489
3788	0.04471
3789	0.04444
3790	0.04367
3791	0.04265
3792	0.04194
3793	0.04179
3794	0.04191
3795	0.04173
3796	0.04124
3797	0.04086
3798	0.04078
3799	0.04086
3800	0.0409
3801	0.04087
3802	0.04091
3803	0.04109
3804	0.04096
3805	0.04034
3806	0.03991
3807	0.0398
3808	0.03973
3809	0.03938
3810	0.03878
3811	0.03843
3812	0.03826
3813	0.03794
3814	0.0375
3815	0.03732
3816	0.03743
3817	0.03762
3818	0.03772
3819	0.03756
3820	0.0373
3821	0.03727
3822	0.03737
3823	0.03722
3824	0.0369
3825	0.03674
3826	0.03649
3827	0.03597
3828	0.03528
3829	0.03467
3830	0.03467
3831	0.0349
3832	0.03475
3833	0.03416
3834	0.0337
3835	0.03387
3836	0.03426
3837	0.0345
3838	0.03456
3839	0.03459
3840	0.0347
3841	0.03473
3842	0.03427
3843	0.03335
3844	0.03254
3845	0.03209
3846	0.03172
3847	0.03127
3848	0.03103
3849	0.03095
3850	0.03055
3851	0.03014
3852	0.03004
3853	0.02974
3854	0.02935
3855	0.0292
3856	0.0292
3857	0.02946
3858	0.02952
3859	0.02915
3860	0.02898
3861	0.02909
3862	0.02914
3863	0.02888
3864	0.02849
3865	0.028
3866	0.02751
3867	0.02743
3868	0.0277
3869	0.02764
3870	0.02738
3871	0.02733
3872	0.02737
3873	0.02725
3874	0.02674
3875	0.02624
3876	0.02603
3877	0.02589
3878	0.02596
3879	0.02623
3880	0.02617
3881	0.02577
3882	0.02514
3883	0.02477
3884	0.02498
3885	0.02522
3886	0.02522
3887	0.025
3888	0.02486
3889	0.02489
3890	0.02487
3891	0.02463
3892	0.02415
3893	0.02349
3894	0.02302
3895	0.02282
3896	0.02264
3897	0.0224
3898	0.02211
3899	0.02207
3900	0.02228
3901	0.02243
3902	0.0224
3903	0.02222
3904	0.02203
3905	0.02198
3906	0.02193
3907	0.0219
3908	0.02186
3909	0.02171
3910	0.02154
3911	0.02128
3912	0.02102
3913	0.02082
3914	0.02051
3915	0.02022
3916	0.02006
3917	0.01989
3918	0.01978
3919	0.0198
3920	0.01981
3921	0.0197
3922	0.01957
3923	0.01953
3924	0.01959
3925	0.01969
3926	0.01977
3927	0.0198
3928	0.01973
3929	0.01957
3930	0.01947
3931	0.01937
3932	0.01915
3933	0.01898
3934	0.01901
3935	0.01902
3936	0.01885
3937	0.01859
3938	0.01841
3939	0.01828
3940	0.01817
3941	0.018
3942	0.01778
3943	0.01759
3944	0.01741
3945	0.01723
3946	0.01716
3947	0.01717
3948	0.01718
3949	0.01712
3950	0.01696
3951	0.01677
3952	0.01662
3953	0.0165
3954	0.01632
3955	0.01611
3956	0.016
3957	0.01599
3958	0.01596
3959	0.01584
3960	0.01567
3961	0.01552
3962	0.0154
3963	0.01532
3964	0.01531
3965	0.01528
3966	0.01525
3967	0.01526
3968	0.01527
3969	0.01524
3970	0.01516
3971	0.01503
3972	0.01485
3973	0.01466
3974	0.01449
3975	0.0144
3976	0.01438
3977	0.01438
3978	0.01436
3979	0.01432
3980	0.01426
3981	0.01419
3982	0.01412
3983	0.01404
3984	0.01395
3985	0.01386
3986	0.01378
3987	0.01368
3988	0.01356
3989	0.01347
3990	0.01338
3991	0.01329
3992	0.0132
3993	0.0131
3994	0.01301
3995	0.01291
3996	0.01281
3997	0.01271
3998	0.0126
3999	0.0125
4000	0.01239