4000.18193	0.02064
3999.21756	0.02079
3998.2532	0.02095
3997.28884	0.02111
3996.32447	0.02128
3995.36011	0.02145
3994.39574	0.02164
3993.43138	0.02182
3992.46702	0.02202
3991.50265	0.02222
3990.53829	0.02242
3989.57392	0.02264
3988.60956	0.02285
3987.6452	0.02304
3986.68083	0.02324
3985.71647	0.02347
3984.7521	0.02372
3983.78774	0.02398
3982.82338	0.02425
3981.85901	0.02453
3980.89465	0.02481
3979.93028	0.0251
3978.96592	0.0254
3978.00156	0.0257
3977.03719	0.026
3976.07283	0.0263
3975.10846	0.02659
3974.1441	0.02685
3973.17974	0.02708
3972.21537	0.02728
3971.25101	0.02744
3970.28664	0.02757
3969.32228	0.02766
3968.35792	0.02772
3967.39355	0.02779
3966.42919	0.02789
3965.46482	0.02804
3964.50046	0.0282
3963.5361	0.02839
3962.57173	0.02862
3961.60737	0.02887
3960.643	0.02915
3959.67864	0.02949
3958.71428	0.0299
3957.74991	0.03037
3956.78555	0.03092
3955.82118	0.03153
3954.85682	0.03218
3953.89246	0.03283
3952.92809	0.03347
3951.96373	0.03406
3950.99936	0.03461
3950.035	0.0351
3949.07064	0.03552
3948.10627	0.03588
3947.14191	0.03617
3946.17754	0.03639
3945.21318	0.03657
3944.24882	0.03674
3943.28445	0.03689
3942.32009	0.03699
3941.35572	0.03707
3940.39136	0.03716
3939.427	0.0373
3938.46263	0.03747
3937.49827	0.03769
3936.5339	0.038
3935.56954	0.03841
3934.60518	0.03892
3933.64081	0.03951
3932.67645	0.04012
3931.71208	0.04074
3930.74772	0.04134
3929.78336	0.04192
3928.81899	0.04248
3927.85463	0.04301
3926.89026	0.04347
3925.9259	0.04384
3924.96154	0.04405
3923.99717	0.04406
3923.03281	0.04391
3922.06844	0.04365
3921.10408	0.04331
3920.13972	0.0429
3919.17535	0.04247
3918.21099	0.0421
3917.24662	0.04185
3916.28226	0.04171
3915.3179	0.04174
3914.35353	0.04198
3913.38917	0.04243
3912.4248	0.04309
3911.46044	0.04397
3910.49608	0.04508
3909.53171	0.0464
3908.56735	0.04791
3907.60298	0.04955
3906.63862	0.05125
3905.67426	0.05291
3904.70989	0.05443
3903.74553	0.05573
3902.78116	0.05671
3901.8168	0.05733
3900.85244	0.05764
3899.88807	0.05773
3898.92371	0.05763
3897.95934	0.0574
3896.99498	0.0571
3896.03062	0.05676
3895.06625	0.05645
3894.10189	0.05619
3893.13752	0.05598
3892.17316	0.05578
3891.2088	0.05556
3890.24443	0.05536
3889.28007	0.05529
3888.3157	0.05543
3887.35134	0.05579
3886.38698	0.0563
3885.42261	0.05687
3884.45825	0.05744
3883.49388	0.058
3882.52952	0.05856
3881.56516	0.05913
3880.60079	0.05971
3879.63643	0.06028
3878.67206	0.06089
3877.7077	0.06163
3876.74333	0.06254
3875.77897	0.06351
3874.81461	0.06445
3873.85024	0.06529
3872.88588	0.06603
3871.92151	0.06668
3870.95715	0.06726
3869.99279	0.06772
3869.02842	0.06804
3868.06406	0.06837
3867.09969	0.06882
3866.13533	0.06942
3865.17097	0.07012
3864.2066	0.07081
3863.24224	0.07145
3862.27787	0.07205
3861.31351	0.07262
3860.34915	0.07319
3859.38478	0.0738
3858.42042	0.07445
3857.45605	0.0751
3856.49169	0.07574
3855.52733	0.07637
3854.56296	0.07696
3853.5986	0.07737
3852.63423	0.07744
3851.66987	0.07724
3850.70551	0.07691
3849.74114	0.07658
3848.77678	0.07632
3847.81241	0.07618
3846.84805	0.07619
3845.88369	0.07643
3844.91932	0.07693
3843.95496	0.07758
3842.99059	0.07824
3842.02623	0.07882
3841.06187	0.0793
3840.0975	0.0797
3839.13314	0.07996
3838.16877	0.08005
3837.20441	0.08001
3836.24005	0.0799
3835.27568	0.07975
3834.31132	0.07959
3833.34695	0.07946
3832.38259	0.07939
3831.41823	0.07937
3830.45386	0.07941
3829.4895	0.07954
3828.52513	0.07984
3827.56077	0.08035
3826.59641	0.08103
3825.63204	0.08187
3824.66768	0.08284
3823.70331	0.08384
3822.73895	0.08476
3821.77459	0.0855
3820.81022	0.08594
3819.84586	0.08604
3818.88149	0.08587
3817.91713	0.08552
3816.95277	0.085
3815.9884	0.08435
3815.02404	0.08363
3814.05967	0.083
3813.09531	0.08258
3812.13095	0.08244
3811.16658	0.08262
3810.20222	0.08313
3809.23785	0.08397
3808.27349	0.08505
3807.30913	0.08629
3806.34476	0.08755
3805.3804	0.08879
3804.41603	0.09
3803.45167	0.09113
3802.48731	0.09208
3801.52294	0.09269
3800.55858	0.09285
3799.59421	0.09261
3798.62985	0.09203
3797.66549	0.09118
3796.70112	0.09012
3795.73676	0.08897
3794.77239	0.0878
3793.80803	0.08671
3792.84367	0.08575
3791.8793	0.08495
3790.91494	0.08438
3789.95057	0.08408
3788.98621	0.08406
3788.02185	0.08429
3787.05748	0.08472
3786.09312	0.08532
3785.12875	0.08603
3784.16439	0.0868
3783.20003	0.08764
3782.23566	0.08857
3781.2713	0.08953
3780.30693	0.09045
3779.34257	0.09123
3778.37821	0.09185
3777.41384	0.09239
3776.44948	0.09298
3775.48511	0.09366
3774.52075	0.09441
3773.55639	0.09518
3772.59202	0.09594
3771.62766	0.09671
3770.66329	0.09746
3769.69893	0.09818
3768.73457	0.0989
3767.7702	0.0997
3766.80584	0.10059
3765.84147	0.10157
3764.87711	0.10267
3763.91275	0.10394
3762.94838	0.10543
3761.98402	0.10717
3761.01965	0.1092
3760.05529	0.11147
3759.09093	0.1139
3758.12656	0.1164
3757.1622	0.11887
3756.19783	0.1213
3755.23347	0.1237
3754.26911	0.12608
3753.30474	0.1284
3752.34038	0.13057
3751.37601	0.1325
3750.41165	0.13411
3749.44729	0.13539
3748.48292	0.13637
3747.51856	0.13708
3746.55419	0.1376
3745.58983	0.13795
3744.62547	0.13812
3743.6611	0.13811
3742.69674	0.13803
3741.73237	0.13797
3740.76801	0.13797
3739.80365	0.13806
3738.83928	0.13826
3737.87492	0.13853
3736.91055	0.1388
3735.94619	0.13897
3734.98182	0.13894
3734.01746	0.13867
3733.0531	0.1382
3732.08873	0.13758
3731.12437	0.13684
3730.16	0.13605
3729.19564	0.13529
3728.23128	0.13461
3727.26691	0.13407
3726.30255	0.1337
3725.33818	0.1335
3724.37382	0.1335
3723.40946	0.13366
3722.44509	0.13395
3721.48073	0.13439
3720.51636	0.13503
3719.552	0.13593
3718.58764	0.13706
3717.62327	0.13838
3716.65891	0.13986
3715.69454	0.14144
3714.73018	0.14305
3713.76582	0.14453
3712.80145	0.14575
3711.83709	0.14657
3710.87272	0.14694
3709.90836	0.14692
3708.944	0.14663
3707.97963	0.14621
3707.01527	0.14583
3706.0509	0.14555
3705.08654	0.14542
3704.12218	0.14548
3703.15781	0.14576
3702.19345	0.14623
3701.22908	0.14689
3700.26472	0.14776
3699.30036	0.14889
3698.33599	0.15028
3697.37163	0.15186
3696.40726	0.15358
3695.4429	0.15547
3694.47854	0.15756
3693.51417	0.15982
3692.54981	0.16216
3691.58544	0.16443
3690.62108	0.16648
3689.65672	0.16825
3688.69235	0.16976
3687.72799	0.17109
3686.76362	0.17241
3685.79926	0.17389
3684.8349	0.1756
3683.87053	0.17757
3682.90617	0.1798
3681.9418	0.18228
3680.97744	0.18497
3680.01308	0.1878
3679.04871	0.19063
3678.08435	0.19339
3677.11998	0.196
3676.15562	0.1984
3675.19126	0.20043
3674.22689	0.20207
3673.26253	0.20344
3672.29816	0.20456
3671.3338	0.20537
3670.36944	0.20577
3669.40507	0.20568
3668.44071	0.20516
3667.47634	0.20446
3666.51198	0.20382
3665.54762	0.20345
3664.58325	0.20352
3663.61889	0.20415
3662.65452	0.20541
3661.69016	0.20735
3660.7258	0.20995
3659.76143	0.21317
3658.79707	0.21695
3657.8327	0.22121
3656.86834	0.22581
3655.90398	0.23055
3654.93961	0.23532
3653.97525	0.24005
3653.01088	0.24467
3652.04652	0.24901
3651.08216	0.25292
3650.11779	0.25621
3649.15343	0.2587
3648.18906	0.26037
3647.2247	0.26129
3646.26034	0.26166
3645.29597	0.26177
3644.33161	0.26186
3643.36724	0.26209
3642.40288	0.26248
3641.43852	0.26308
3640.47415	0.26391
3639.50979	0.26504
3638.54542	0.26653
3637.58106	0.26839
3636.6167	0.27063
3635.65233	0.27322
3634.68797	0.27611
3633.7236	0.27923
3632.75924	0.28253
3631.79488	0.28599
3630.83051	0.28954
3629.86615	0.29301
3628.90178	0.29614
3627.93742	0.29881
3626.97306	0.3011
3626.00869	0.30317
3625.04433	0.30513
3624.07996	0.3071
3623.1156	0.30913
3622.15124	0.31125
3621.18687	0.3134
3620.22251	0.31552
3619.25814	0.31751
3618.29378	0.31934
3617.32942	0.32104
3616.36505	0.32265
3615.40069	0.32418
3614.43632	0.32563
3613.47196	0.32698
3612.5076	0.32825
3611.54323	0.32946
3610.57887	0.33063
3609.6145	0.33172
3608.65014	0.33268
3607.68578	0.33348
3606.72141	0.33415
3605.75705	0.33477
3604.79268	0.33553
3603.82832	0.33657
3602.86396	0.33792
3601.89959	0.33955
3600.93523	0.34144
3599.97086	0.34354
3599.0065	0.3458
3598.04214	0.34817
3597.07777	0.35062
3596.11341	0.35313
3595.14904	0.35566
3594.18468	0.35822
3593.22031	0.36081
3592.25595	0.36342
3591.29159	0.36603
3590.32722	0.36862
3589.36286	0.37111
3588.39849	0.37338
3587.43413	0.37534
3586.46977	0.37695
3585.5054	0.37832
3584.54104	0.3796
3583.57667	0.38092
3582.61231	0.38236
3581.64795	0.384
3580.68358	0.38585
3579.71922	0.38793
3578.75485	0.39023
3577.79049	0.39278
3576.82613	0.39558
3575.86176	0.39862
3574.8974	0.40187
3573.93303	0.40528
3572.96867	0.40882
3572.00431	0.41247
3571.03994	0.4162
3570.07558	0.41996
3569.11121	0.42365
3568.14685	0.42714
3567.18249	0.43025
3566.21812	0.43285
3565.25376	0.43495
3564.28939	0.43666
3563.32503	0.43813
3562.36067	0.4395
3561.3963	0.44087
3560.43194	0.44226
3559.46757	0.44372
3558.50321	0.44527
3557.53885	0.44694
3556.57448	0.44877
3555.61012	0.45076
3554.64575	0.45293
3553.68139	0.45523
3552.71703	0.45761
3551.75266	0.46001
3550.7883	0.4624
3549.82393	0.46474
3548.85957	0.46699
3547.89521	0.46906
3546.93084	0.47086
3545.96648	0.47229
3545.00211	0.47328
3544.03775	0.47385
3543.07339	0.47407
3542.10902	0.47409
3541.14466	0.47402
3540.18029	0.47392
3539.21593	0.47382
3538.25157	0.47378
3537.2872	0.47383
3536.32284	0.47398
3535.35847	0.47427
3534.39411	0.47473
3533.42975	0.4754
3532.46538	0.47627
3531.50102	0.47731
3530.53665	0.47848
3529.57229	0.47974
3528.60793	0.48107
3527.64356	0.48247
3526.6792	0.4839
3525.71483	0.48532
3524.75047	0.4867
3523.78611	0.488
3522.82174	0.48922
3521.85738	0.4904
3520.89301	0.49163
3519.92865	0.49297
3518.96429	0.49445
3517.99992	0.49606
3517.03556	0.49783
3516.07119	0.49977
3515.10683	0.50186
3514.14247	0.50412
3513.1781	0.50654
3512.21374	0.5091
3511.24937	0.5118
3510.28501	0.51459
3509.32065	0.5174
3508.35628	0.5202
3507.39192	0.52296
3506.42755	0.52569
3505.46319	0.52834
3504.49883	0.53087
3503.53446	0.53323
3502.5701	0.53535
3501.60573	0.53725
3500.64137	0.53895
3499.67701	0.54049
3498.71264	0.5419
3497.74828	0.54322
3496.78391	0.54444
3495.81955	0.54554
3494.85519	0.54653
3493.89082	0.54746
3492.92646	0.54833
3491.96209	0.54917
3490.99773	0.54999
3490.03337	0.55081
3489.069	0.55162
3488.10464	0.55243
3487.14027	0.55324
3486.17591	0.55406
3485.21155	0.55492
3484.24718	0.55584
3483.28282	0.55681
3482.31845	0.5578
3481.35409	0.55881
3480.38973	0.55983
3479.42536	0.5609
3478.461	0.56205
3477.49663	0.56331
3476.53227	0.56468
3475.56791	0.56615
3474.60354	0.5677
3473.63918	0.56931
3472.67481	0.57099
3471.71045	0.57275
3470.74609	0.57457
3469.78172	0.57645
3468.81736	0.57835
3467.85299	0.58027
3466.88863	0.58219
3465.92427	0.5841
3464.9599	0.58599
3463.99554	0.58786
3463.03117	0.5897
3462.06681	0.5915
3461.10245	0.59326
3460.13808	0.59499
3459.17372	0.59668
3458.20935	0.59836
3457.24499	0.60002
3456.28062	0.60168
3455.31626	0.60333
3454.3519	0.60497
3453.38753	0.60659
3452.42317	0.60817
3451.4588	0.60972
3450.49444	0.61124
3449.53008	0.61271
3448.56571	0.61411
3447.60135	0.61543
3446.63698	0.61664
3445.67262	0.61774
3444.70826	0.61875
3443.74389	0.61967
3442.77953	0.62052
3441.81516	0.62128
3440.8508	0.62197
3439.88644	0.62263
3438.92207	0.62327
3437.95771	0.62394
3436.99334	0.62464
3436.02898	0.6254
3435.06462	0.62621
3434.10025	0.6271
3433.13589	0.62805
3432.17152	0.62907
3431.20716	0.63014
3430.2428	0.63127
3429.27843	0.63244
3428.31407	0.63363
3427.3497	0.63484
3426.38534	0.63603
3425.42098	0.63719
3424.45661	0.63829
3423.49225	0.63932
3422.52788	0.64028
3421.56352	0.64116
3420.59916	0.64194
3419.63479	0.64261
3418.67043	0.64316
3417.70606	0.64364
3416.7417	0.64405
3415.77734	0.6444
3414.81297	0.64469
3413.84861	0.64493
3412.88424	0.64511
3411.91988	0.64524
3410.95552	0.64534
3409.99115	0.64541
3409.02679	0.64544
3408.06242	0.64545
3407.09806	0.64543
3406.1337	0.64538
3405.16933	0.64531
3404.20497	0.6452
3403.2406	0.64506
3402.27624	0.6449
3401.31188	0.6447
3400.34751	0.64448
3399.38315	0.64423
3398.41878	0.64395
3397.45442	0.64364
3396.49006	0.6433
3395.52569	0.64295
3394.56133	0.64259
3393.59696	0.64224
3392.6326	0.64187
3391.66824	0.64149
3390.70387	0.6411
3389.73951	0.64073
3388.77514	0.64036
3387.81078	0.64001
3386.84642	0.63966
3385.88205	0.63931
3384.91769	0.63895
3383.95332	0.63857
3382.98896	0.63819
3382.0246	0.63781
3381.06023	0.63743
3380.09587	0.63705
3379.1315	0.63668
3378.16714	0.6363
3377.20278	0.63592
3376.23841	0.63553
3375.27405	0.63514
3374.30968	0.63474
3373.34532	0.63434
3372.38096	0.63393
3371.41659	0.63353
3370.45223	0.63312
3369.48786	0.63269
3368.5235	0.63226
3367.55914	0.63181
3366.59477	0.63134
3365.63041	0.63084
3364.66604	0.63032
3363.70168	0.62976
3362.73732	0.62918
3361.77295	0.62856
3360.80859	0.62791
3359.84422	0.62724
3358.87986	0.62656
3357.9155	0.62585
3356.95113	0.62513
3355.98677	0.62439
3355.0224	0.62363
3354.05804	0.62287
3353.09368	0.62211
3352.12931	0.62137
3351.16495	0.62064
3350.20058	0.61995
3349.23622	0.61928
3348.27186	0.61864
3347.30749	0.61802
3346.34313	0.61743
3345.37876	0.61686
3344.4144	0.6163
3343.45004	0.61577
3342.48567	0.61526
3341.52131	0.61476
3340.55694	0.61427
3339.59258	0.61378
3338.62822	0.61329
3337.66385	0.6128
3336.69949	0.6123
3335.73512	0.61178
3334.77076	0.61124
3333.8064	0.61067
3332.84203	0.61007
3331.87767	0.60946
3330.9133	0.60884
3329.94894	0.60821
3328.98458	0.60757
3328.02021	0.60693
3327.05585	0.60628
3326.09148	0.60564
3325.12712	0.60499
3324.16276	0.60435
3323.19839	0.60371
3322.23403	0.60307
3321.26966	0.60244
3320.3053	0.60181
3319.34094	0.60118
3318.37657	0.60055
3317.41221	0.59992
3316.44784	0.59927
3315.48348	0.59863
3314.51911	0.59798
3313.55475	0.59732
3312.59039	0.59665
3311.62602	0.59596
3310.66166	0.59527
3309.69729	0.59457
3308.73293	0.59387
3307.76857	0.59317
3306.8042	0.59248
3305.83984	0.5918
3304.87547	0.59114
3303.91111	0.59049
3302.94675	0.58986
3301.98238	0.58925
3301.01802	0.58866
3300.05365	0.58809
3299.08929	0.58755
3298.12493	0.58702
3297.16056	0.58651
3296.1962	0.58603
3295.23183	0.58557
3294.26747	0.58514
3293.30311	0.58474
3292.33874	0.58437
3291.37438	0.58403
3290.41001	0.58373
3289.44565	0.58346
3288.48129	0.58322
3287.51692	0.58303
3286.55256	0.58287
3285.58819	0.58276
3284.62383	0.58269
3283.65947	0.58267
3282.6951	0.58269
3281.73074	0.58274
3280.76637	0.58283
3279.80201	0.58295
3278.83765	0.58311
3277.87328	0.58329
3276.90892	0.58349
3275.94455	0.5837
3274.98019	0.58392
3274.01583	0.58414
3273.05146	0.58435
3272.0871	0.58456
3271.12273	0.58475
3270.15837	0.58494
3269.19401	0.58511
3268.22964	0.58527
3267.26528	0.58539
3266.30091	0.58547
3265.33655	0.58551
3264.37219	0.58549
3263.40782	0.58543
3262.44346	0.58532
3261.47909	0.58517
3260.51473	0.58497
3259.55037	0.58473
3258.586	0.58445
3257.62164	0.58415
3256.65727	0.58383
3255.69291	0.5835
3254.72855	0.58316
3253.76418	0.58282
3252.79982	0.58249
3251.83545	0.58216
3250.87109	0.58184
3249.90673	0.58154
3248.94236	0.58126
3247.978	0.581
3247.01363	0.58076
3246.04927	0.58054
3245.08491	0.58032
3244.12054	0.58008
3243.15618	0.57982
3242.19181	0.57953
3241.22745	0.57923
3240.26309	0.57888
3239.29872	0.5785
3238.33436	0.57808
3237.36999	0.57761
3236.40563	0.57709
3235.44127	0.57652
3234.4769	0.57589
3233.51254	0.57521
3232.54817	0.57448
3231.58381	0.57369
3230.61945	0.57284
3229.65508	0.57192
3228.69072	0.57095
3227.72635	0.56992
3226.76199	0.56884
3225.79763	0.5677
3224.83326	0.56651
3223.8689	0.56528
3222.90453	0.564
3221.94017	0.56266
3220.97581	0.56128
3220.01144	0.55984
3219.04708	0.55836
3218.08271	0.55683
3217.11835	0.55526
3216.15399	0.55366
3215.18962	0.55202
3214.22526	0.55036
3213.26089	0.54868
3212.29653	0.54698
3211.33217	0.54528
3210.3678	0.54357
3209.40344	0.54186
3208.43907	0.54014
3207.47471	0.53843
3206.51035	0.53672
3205.54598	0.53502
3204.58162	0.53333
3203.61725	0.53166
3202.65289	0.53001
3201.68853	0.52837
3200.72416	0.52675
3199.7598	0.52513
3198.79543	0.52351
3197.83107	0.52188
3196.86671	0.52025
3195.90234	0.5186
3194.93798	0.51695
3193.97361	0.51531
3193.00925	0.51367
3192.04489	0.51203
3191.08052	0.5104
3190.11616	0.50877
3189.15179	0.50715
3188.18743	0.50553
3187.22307	0.50392
3186.2587	0.50231
3185.29434	0.50072
3184.32997	0.49913
3183.36561	0.49755
3182.40125	0.496
3181.43688	0.49446
3180.47252	0.49295
3179.50815	0.49145
3178.54379	0.48997
3177.57943	0.4885
3176.61506	0.48703
3175.6507	0.48557
3174.68633	0.48412
3173.72197	0.48267
3172.7576	0.48122
3171.79324	0.47976
3170.82888	0.47827
3169.86451	0.47675
3168.90015	0.47516
3167.93578	0.47351
3166.97142	0.47177
3166.00706	0.46992
3165.04269	0.46797
3164.07833	0.46588
3163.11396	0.46365
3162.1496	0.46129
3161.18524	0.45878
3160.22087	0.45614
3159.25651	0.45337
3158.29214	0.45048
3157.32778	0.44748
3156.36342	0.44439
3155.39905	0.44122
3154.43469	0.438
3153.47032	0.43473
3152.50596	0.43146
3151.5416	0.4282
3150.57723	0.42497
3149.61287	0.42178
3148.6485	0.41865
3147.68414	0.41558
3146.71978	0.4126
3145.75541	0.4097
3144.79105	0.40688
3143.82668	0.40416
3142.86232	0.40152
3141.89796	0.39898
3140.93359	0.39652
3139.96923	0.39415
3139.00486	0.39187
3138.0405	0.38968
3137.07614	0.38756
3136.11177	0.38552
3135.14741	0.38355
3134.18304	0.38165
3133.21868	0.37981
3132.25432	0.37803
3131.28995	0.3763
3130.32559	0.37464
3129.36122	0.37304
3128.39686	0.37149
3127.4325	0.36999
3126.46813	0.36853
3125.50377	0.36711
3124.5394	0.36573
3123.57504	0.36438
3122.61068	0.36304
3121.64631	0.36171
3120.68195	0.3604
3119.71758	0.3591
3118.75322	0.35782
3117.78886	0.35654
3116.82449	0.35528
3115.86013	0.35403
3114.89576	0.35279
3113.9314	0.35158
3112.96704	0.35039
3112.00267	0.34924
3111.03831	0.34813
3110.07394	0.34706
3109.10958	0.34605
3108.14522	0.3451
3107.18085	0.34421
3106.21649	0.34339
3105.25212	0.34263
3104.28776	0.34194
3103.3234	0.34131
3102.35903	0.34074
3101.39467	0.34022
3100.4303	0.33974
3099.46594	0.33931
3098.50158	0.33892
3097.53721	0.33859
3096.57285	0.33831
3095.60848	0.33807
3094.64412	0.33789
3093.67976	0.33775
3092.71539	0.33767
3091.75103	0.33765
3090.78666	0.33769
3089.8223	0.33781
3088.85794	0.33799
3087.89357	0.33825
3086.92921	0.33858
3085.96484	0.33898
3085.00048	0.33947
3084.03612	0.34005
3083.07175	0.3407
3082.10739	0.34144
3081.14302	0.34225
3080.17866	0.34313
3079.2143	0.34407
3078.24993	0.34507
3077.28557	0.34613
3076.3212	0.34724
3075.35684	0.34841
3074.39248	0.34961
3073.42811	0.35085
3072.46375	0.35209
3071.49938	0.35332
3070.53502	0.35453
3069.57066	0.3557
3068.60629	0.35681
3067.64193	0.35786
3066.67756	0.35884
3065.7132	0.35974
3064.74884	0.36056
3063.78447	0.36131
3062.82011	0.362
3061.85574	0.36263
3060.89138	0.3632
3059.92702	0.36371
3058.96265	0.36416
3057.99829	0.36455
3057.03392	0.36488
3056.06956	0.36516
3055.1052	0.36537
3054.14083	0.36552
3053.17647	0.36562
3052.2121	0.36566
3051.24774	0.36562
3050.28338	0.3655
3049.31901	0.3653
3048.35465	0.365
3047.39028	0.3646
3046.42592	0.36412
3045.46156	0.36356
3044.49719	0.36293
3043.53283	0.36225
3042.56846	0.36154
3041.6041	0.3608
3040.63974	0.36006
3039.67537	0.3593
3038.71101	0.35854
3037.74664	0.35776
3036.78228	0.35696
3035.81792	0.35613
3034.85355	0.35525
3033.88919	0.35432
3032.92482	0.35333
3031.96046	0.35229
3030.99609	0.35118
3030.03173	0.35002
3029.06737	0.34881
3028.103	0.34758
3027.13864	0.34632
3026.17427	0.34504
3025.20991	0.34376
3024.24555	0.34248
3023.28118	0.34123
3022.31682	0.34
3021.35245	0.33881
3020.38809	0.33765
3019.42373	0.33653
3018.45936	0.33545
3017.495	0.33442
3016.53063	0.33341
3015.56627	0.33244
3014.60191	0.3315
3013.63754	0.33059
3012.67318	0.32971
3011.70881	0.32886
3010.74445	0.32806
3009.78009	0.32733
3008.81572	0.3267
3007.85136	0.3262
3006.88699	0.32585
3005.92263	0.32569
3004.95827	0.32573
3003.9939	0.32597
3003.02954	0.32643
3002.06517	0.3271
3001.10081	0.32799
3000.13645	0.32908
2999.17208	0.33037
2998.20772	0.33183
2997.24335	0.33346
2996.27899	0.33523
2995.31463	0.33712
2994.35026	0.33913
2993.3859	0.34122
2992.42153	0.3434
2991.45717	0.34563
2990.49281	0.34792
2989.52844	0.35024
2988.56408	0.35258
2987.59971	0.35492
2986.63535	0.35726
2985.67099	0.35957
2984.70662	0.36183
2983.74226	0.36401
2982.77789	0.36606
2981.81353	0.36795
2980.84917	0.36963
2979.8848	0.37108
2978.92044	0.37229
2977.95607	0.37325
2976.99171	0.37399
2976.02735	0.37454
2975.06298	0.37495
2974.09862	0.37525
2973.13425	0.37551
2972.16989	0.37575
2971.20553	0.37603
2970.24116	0.3764
2969.2768	0.37688
2968.31243	0.37752
2967.34807	0.37833
2966.38371	0.37929
2965.41934	0.3804
2964.45498	0.3816
2963.49061	0.38285
2962.52625	0.38407
2961.56189	0.38518
2960.59752	0.38613
2959.63316	0.38686
2958.66879	0.38735
2957.70443	0.38761
2956.74007	0.38769
2955.7757	0.38766
2954.81134	0.38763
2953.84697	0.38771
2952.88261	0.38799
2951.91825	0.38857
2950.95388	0.38951
2949.98952	0.39089
2949.02515	0.39277
2948.06079	0.39524
2947.09643	0.39837
2946.13206	0.40221
2945.1677	0.40675
2944.20333	0.41198
2943.23897	0.41784
2942.27461	0.42421
2941.31024	0.43099
2940.34588	0.43803
2939.38151	0.44521
2938.41715	0.45239
2937.45279	0.4595
2936.48842	0.46644
2935.52406	0.47315
2934.55969	0.47955
2933.59533	0.48554
2932.63097	0.49104
2931.6666	0.49594
2930.70224	0.50012
2929.73787	0.50346
2928.77351	0.50587
2927.80915	0.50726
2926.84478	0.50762
2925.88042	0.50697
2924.91605	0.50534
2923.95169	0.50278
2922.98733	0.49934
2922.02296	0.49507
2921.0586	0.49005
2920.09423	0.48435
2919.12987	0.47807
2918.16551	0.47132
2917.20114	0.46421
2916.23678	0.45692
2915.27241	0.44961
2914.30805	0.44244
2913.34369	0.43556
2912.37932	0.42907
2911.41496	0.42305
2910.45059	0.41754
2909.48623	0.41255
2908.52187	0.40808
2907.5575	0.40409
2906.59314	0.40055
2905.62877	0.39742
2904.66441	0.39466
2903.70005	0.39223
2902.73568	0.39008
2901.77132	0.38815
2900.80695	0.38636
2899.84259	0.38466
2898.87823	0.383
2897.91386	0.38132
2896.9495	0.37958
2895.98513	0.37774
2895.02077	0.37579
2894.05641	0.37374
2893.09204	0.37161
2892.12768	0.36943
2891.16331	0.36724
2890.19895	0.36506
2889.23458	0.36291
2888.27022	0.36079
2887.30586	0.35873
2886.34149	0.35671
2885.37713	0.35474
2884.41276	0.35281
2883.4484	0.35093
2882.48404	0.34908
2881.51967	0.34724
2880.55531	0.34539
2879.59094	0.34352
2878.62658	0.34158
2877.66222	0.33957
2876.69785	0.33747
2875.73349	0.33525
2874.76912	0.33293
2873.80476	0.33048
2872.8404	0.32793
2871.87603	0.32531
2870.91167	0.32264
2869.9473	0.31996
2868.98294	0.31731
2868.01858	0.31472
2867.05421	0.31222
2866.08985	0.30984
2865.12548	0.30759
2864.16112	0.30549
2863.19676	0.30353
2862.23239	0.30171
2861.26803	0.30002
2860.30366	0.29843
2859.3393	0.29692
2858.37494	0.29544
2857.41057	0.29397
2856.44621	0.29246
2855.48184	0.29089
2854.51748	0.28921
2853.55312	0.28742
2852.58875	0.2855
2851.62439	0.28345
2850.66002	0.28127
2849.69566	0.27898
2848.7313	0.2766
2847.76693	0.27415
2846.80257	0.27167
2845.8382	0.26919
2844.87384	0.26674
2843.90948	0.26435
2842.94511	0.26203
2841.98075	0.25981
2841.01638	0.2577
2840.05202	0.25571
2839.08766	0.25383
2838.12329	0.25206
2837.15893	0.2504
2836.19456	0.24884
2835.2302	0.24736
2834.26584	0.24595
2833.30147	0.24459
2832.33711	0.24328
2831.37274	0.24199
2830.40838	0.24073
2829.44402	0.23948
2828.47965	0.23824
2827.51529	0.23701
2826.55092	0.23578
2825.58656	0.23456
2824.6222	0.23335
2823.65783	0.23214
2822.69347	0.23095
2821.7291	0.22978
2820.76474	0.22861
2819.80038	0.22747
2818.83601	0.22633
2817.87165	0.22521
2816.90728	0.22409
2815.94292	0.22299
2814.97856	0.22189
2814.01419	0.2208
2813.04983	0.2197
2812.08546	0.21861
2811.1211	0.21751
2810.15674	0.21642
2809.19237	0.21531
2808.22801	0.2142
2807.26364	0.21309
2806.29928	0.21197
2805.33492	0.21085
2804.37055	0.20972
2803.40619	0.20859
2802.44182	0.20745
2801.47746	0.20631
2800.5131	0.20516
2799.54873	0.204
2798.58437	0.20284
2797.62	0.20167
2796.65564	0.20049
2795.69128	0.1993
2794.72691	0.1981
2793.76255	0.19689
2792.79818	0.19567
2791.83382	0.19444
2790.86946	0.1932
2789.90509	0.19195
2788.94073	0.19068
2787.97636	0.1894
2787.012	0.18811
2786.04764	0.18681
2785.08327	0.1855
2784.11891	0.18418
2783.15454	0.18285
2782.19018	0.18152
2781.22582	0.18019
2780.26145	0.17886
2779.29709	0.17753
2778.33272	0.17622
2777.36836	0.17492
2776.404	0.17364
2775.43963	0.17238
2774.47527	0.17115
2773.5109	0.16996
2772.54654	0.1688
2771.58218	0.16769
2770.61781	0.16663
2769.65345	0.16562
2768.68908	0.16467
2767.72472	0.16377
2766.76036	0.16292
2765.79599	0.16213
2764.83163	0.1614
2763.86726	0.16072
2762.9029	0.16008
2761.93854	0.1595
2760.97417	0.15896
2760.00981	0.15846
2759.04544	0.158
2758.08108	0.15756
2757.11672	0.15715
2756.15235	0.15677
2755.18799	0.1564
2754.22362	0.15604
2753.25926	0.1557
2752.2949	0.15535
2751.33053	0.15502
2750.36617	0.15468
2749.4018	0.15433
2748.43744	0.15398
2747.47307	0.15362
2746.50871	0.15324
2745.54435	0.15285
2744.57998	0.15243
2743.61562	0.152
2742.65125	0.15155
2741.68689	0.15108
2740.72253	0.15059
2739.75816	0.15008
2738.7938	0.14956
2737.82943	0.14902
2736.86507	0.14847
2735.90071	0.1479
2734.93634	0.14732
2733.97198	0.14674
2733.00761	0.14615
2732.04325	0.14555
2731.07889	0.14496
2730.11452	0.14438
2729.15016	0.14379
2728.18579	0.14322
2727.22143	0.14264
2726.25707	0.14208
2725.2927	0.14151
2724.32834	0.14094
2723.36397	0.14037
2722.39961	0.1398
2721.43525	0.13923
2720.47088	0.13866
2719.50652	0.13808
2718.54215	0.1375
2717.57779	0.13691
2716.61343	0.13632
2715.64906	0.13573
2714.6847	0.13513
2713.72033	0.13454
2712.75597	0.13395
2711.79161	0.13336
2710.82724	0.13278
2709.86288	0.13221
2708.89851	0.13164
2707.93415	0.13107
2706.96979	0.13051
2706.00542	0.12996
2705.04106	0.1294
2704.07669	0.12884
2703.11233	0.12827
2702.14797	0.12769
2701.1836	0.12709
2700.21924	0.12647
2699.25487	0.12581
2698.29051	0.12512
2697.32615	0.1244
2696.36178	0.12363
2695.39742	0.12283
2694.43305	0.12198
2693.46869	0.12109
2692.50433	0.12017
2691.53996	0.11921
2690.5756	0.11823
2689.61123	0.11723
2688.64687	0.11621
2687.68251	0.11517
2686.71814	0.11414
2685.75378	0.11311
2684.78941	0.11208
2683.82505	0.11108
2682.86069	0.1101
2681.89632	0.10914
2680.93196	0.10821
2679.96759	0.10732
2679.00323	0.10647
2678.03887	0.10564
2677.0745	0.10485
2676.11014	0.1041
2675.14577	0.10338
2674.18141	0.1027
2673.21705	0.10205
2672.25268	0.10144
2671.28832	0.10086
2670.32395	0.10033
2669.35959	0.09983
2668.39523	0.09938
2667.43086	0.09898
2666.4665	0.09863
2665.50213	0.09833
2664.53777	0.09808
2663.57341	0.0979
2662.60904	0.09778
2661.64468	0.09772
2660.68031	0.09772
2659.71595	0.09779
2658.75159	0.09791
2657.78722	0.09809
2656.82286	0.09832
2655.85849	0.09858
2654.89413	0.09887
2653.92977	0.09918
2652.9654	0.09948
2652.00104	0.09977
2651.03667	0.10003
2650.07231	0.10025
2649.10795	0.10041
2648.14358	0.1005
2647.17922	0.1005
2646.21485	0.10041
2645.25049	0.10022
2644.28613	0.09992
2643.32176	0.0995
2642.3574	0.09897
2641.39303	0.09834
2640.42867	0.0976
2639.46431	0.09678
2638.49994	0.09588
2637.53558	0.09492
2636.57121	0.09392
2635.60685	0.0929
2634.64249	0.09187
2633.67812	0.09085
2632.71376	0.08987
2631.74939	0.08893
2630.78503	0.08805
2629.82067	0.08724
2628.8563	0.08651
2627.89194	0.08586
2626.92757	0.0853
2625.96321	0.08482
2624.99885	0.08443
2624.03448	0.08411
2623.07012	0.08385
2622.10575	0.08365
2621.14139	0.0835
2620.17703	0.08339
2619.21266	0.08331
2618.2483	0.08325
2617.28393	0.0832
2616.31957	0.08315
2615.35521	0.0831
2614.39084	0.08303
2613.42648	0.08296
2612.46211	0.08287
2611.49775	0.08276
2610.53339	0.08263
2609.56902	0.08248
2608.60466	0.0823
2607.64029	0.0821
2606.67593	0.08187
2605.71156	0.08161
2604.7472	0.08131
2603.78284	0.08097
2602.81847	0.08059
2601.85411	0.08017
2600.88974	0.07972
2599.92538	0.07922
2598.96102	0.07869
2597.99665	0.07813
2597.03229	0.07754
2596.06792	0.07693
2595.10356	0.07629
2594.1392	0.07564
2593.17483	0.07497
2592.21047	0.0743
2591.2461	0.07362
2590.28174	0.07294
2589.31738	0.07227
2588.35301	0.07161
2587.38865	0.07095
2586.42428	0.0703
2585.45992	0.06967
2584.49556	0.06903
2583.53119	0.0684
2582.56683	0.06777
2581.60246	0.06715
2580.6381	0.06652
2579.67374	0.0659
2578.70937	0.06527
2577.74501	0.06465
2576.78064	0.06403
2575.81628	0.06341
2574.85192	0.0628
2573.88755	0.06219
2572.92319	0.06159
2571.95882	0.06099
2570.99446	0.0604
2570.0301	0.05982
2569.06573	0.05925
2568.10137	0.05869
2567.137	0.05814
2566.17264	0.05759
2565.20828	0.05706
2564.24391	0.05653
2563.27955	0.05601
2562.31518	0.05549
2561.35082	0.05498
2560.38646	0.05447
2559.42209	0.05396
2558.45773	0.05345
2557.49336	0.05294
2556.529	0.05242
2555.56464	0.05191
2554.60027	0.05139
2553.63591	0.05087
2552.67154	0.05034
2551.70718	0.04981
2550.74282	0.04928
2549.77845	0.04875
2548.81409	0.04821
2547.84972	0.04767
2546.88536	0.04713
2545.921	0.04659
2544.95663	0.04604
2543.99227	0.0455
2543.0279	0.04495
2542.06354	0.04439
2541.09918	0.04384
2540.13481	0.04328
2539.17045	0.04271
2538.20608	0.04215
2537.24172	0.04158
2536.27736	0.04101
2535.31299	0.04044
2534.34863	0.03987
2533.38426	0.0393
2532.4199	0.03873
2531.45554	0.03817
2530.49117	0.03761
2529.52681	0.03706
2528.56244	0.03652
2527.59808	0.03599
2526.63372	0.03547
2525.66935	0.03497
2524.70499	0.03447
2523.74062	0.03399
2522.77626	0.03352
2521.8119	0.03305
2520.84753	0.0326
2519.88317	0.03216
2518.9188	0.03172
2517.95444	0.0313
2516.99008	0.03089
2516.02571	0.03049
2515.06135	0.0301
2514.09698	0.02973
2513.13262	0.02937
2512.16826	0.02904
2511.20389	0.02872
2510.23953	0.02842
2509.27516	0.02814
2508.3108	0.02789
2507.34644	0.02766
2506.38207	0.02746
2505.41771	0.02728
2504.45334	0.02712
2503.48898	0.02698
2502.52462	0.02687
2501.56025	0.02677
2500.59589	0.02669
2499.63152	0.02662
2498.66716	0.02655
2497.7028	0.02649
2496.73843	0.02644
2495.77407	0.02639
2494.8097	0.02633
2493.84534	0.02627
2492.88098	0.02621
2491.91661	0.02614
2490.95225	0.02606
2489.98788	0.02597
2489.02352	0.02587
2488.05916	0.02576
2487.09479	0.02563
2486.13043	0.02549
2485.16606	0.02535
2484.2017	0.02519
2483.23734	0.02502
2482.27297	0.02484
2481.30861	0.02465
2480.34424	0.02445
2479.37988	0.02425
2478.41552	0.02404
2477.45115	0.02382
2476.48679	0.0236
2475.52242	0.02338
2474.55806	0.02316
2473.5937	0.02294
2472.62933	0.02273
2471.66497	0.02252
2470.7006	0.02231
2469.73624	0.02211
2468.77187	0.02192
2467.80751	0.02174
2466.84315	0.02157
2465.87878	0.0214
2464.91442	0.02124
2463.95005	0.02109
2462.98569	0.02096
2462.02133	0.02083
2461.05696	0.02071
2460.0926	0.02059
2459.12823	0.02049
2458.16387	0.0204
2457.19951	0.02031
2456.23514	0.02024
2455.27078	0.02018
2454.30641	0.02012
2453.34205	0.02008
2452.37769	0.02004
2451.41332	0.02
2450.44896	0.01997
2449.48459	0.01995
2448.52023	0.01993
2447.55587	0.01991
2446.5915	0.01989
2445.62714	0.01987
2444.66277	0.01985
2443.69841	0.01984
2442.73405	0.01982
2441.76968	0.0198
2440.80532	0.01978
2439.84095	0.01976
2438.87659	0.01974
2437.91223	0.01971
2436.94786	0.01969
2435.9835	0.01966
2435.01913	0.01964
2434.05477	0.01962
2433.09041	0.01959
2432.12604	0.01957
2431.16168	0.01955
2430.19731	0.01953
2429.23295	0.0195
2428.26859	0.01948
2427.30422	0.01946
2426.33986	0.01943
2425.37549	0.01941
2424.41113	0.01939
2423.44677	0.01936
2422.4824	0.01934
2421.51804	0.01932
2420.55367	0.01929
2419.58931	0.01927
2418.62495	0.01925
2417.66058	0.01923
2416.69622	0.0192
2415.73185	0.01918
2414.76749	0.01916
2413.80313	0.01913
2412.83876	0.01911
2411.8744	0.01909
2410.91003	0.01906
2409.94567	0.01904
2408.98131	0.01902
2408.01694	0.01899
2407.05258	0.01897
2406.08821	0.01895
2405.12385	0.01893
2404.15949	0.0189
2403.19512	0.01888
2402.23076	0.01886
2401.26639	0.01883
2400.30203	0.01881
2399.33767	0.01879
2398.3733	0.01876
2397.40894	0.01874
2396.44457	0.01872
2395.48021	0.01869
2394.51585	0.01867
2393.55148	0.01865
2392.58712	0.01863
2391.62275	0.0186
2390.65839	0.01858
2389.69403	0.01856
2388.72966	0.01853
2387.7653	0.01851
2386.80093	0.01849
2385.83657	0.01846
2384.87221	0.01844
2383.90784	0.01842
2382.94348	0.01839
2381.97911	0.01837
2381.01475	0.01835
2380.05039	0.01833
2379.08602	0.0183
2378.12166	0.01828
2377.15729	0.01826
2376.19293	0.01823
2375.22857	0.01821
2374.2642	0.01819
2373.29984	0.01816
2372.33547	0.01814
2371.37111	0.01812
2370.40675	0.01809
2369.44238	0.01807
2368.47802	0.01805
2367.51365	0.01803
2366.54929	0.018
2365.58493	0.01798
2364.62056	0.01796
2363.6562	0.01793
2362.69183	0.01791
2361.72747	0.01789
2360.76311	0.01786
2359.79874	0.01784
2358.83438	0.01782
2357.87001	0.01779
2356.90565	0.01777
2355.94129	0.01775
2354.97692	0.01773
2354.01256	0.0177
2353.04819	0.01768
2352.08383	0.01766
2351.11947	0.01763
2350.1551	0.01761
2349.19074	0.01759
2348.22637	0.01756
2347.26201	0.01754
2346.29765	0.01752
2345.33328	0.01749
2344.36892	0.01747
2343.40455	0.01745
2342.44019	0.01743
2341.47583	0.0174
2340.51146	0.01738
2339.5471	0.01736
2338.58273	0.01733
2337.61837	0.01731
2336.65401	0.01729
2335.68964	0.01726
2334.72528	0.01724
2333.76091	0.01722
2332.79655	0.01719
2331.83219	0.01717
2330.86782	0.01715
2329.90346	0.01713
2328.93909	0.0171
2327.97473	0.01708
2327.01036	0.01706
2326.046	0.01703
2325.08164	0.01701
2324.11727	0.01699
2323.15291	0.01696
2322.18854	0.01694
2321.22418	0.01692
2320.25982	0.0169
2319.29545	0.01687
2318.33109	0.01685
2317.36672	0.01683
2316.40236	0.0168
2315.438	0.01678
2314.47363	0.01676
2313.50927	0.01673
2312.5449	0.01671
2311.58054	0.01669
2310.61618	0.01666
2309.65181	0.01664
2308.68745	0.01662
2307.72308	0.0166
2306.75872	0.01657
2305.79436	0.01655
2304.82999	0.01653
2303.86563	0.0165
2302.90126	0.01648
2301.9369	0.01646
2300.97254	0.01643
2300.00817	0.01641
2299.04381	0.01639
2298.07944	0.01636
2297.11508	0.01634
2296.15072	0.01632
2295.18635	0.0163
2294.22199	0.01627
2293.25762	0.01625
2292.29326	0.01623
2291.3289	0.0162
2290.36453	0.01618
2289.40017	0.01616
2288.4358	0.01613
2287.47144	0.01611
2286.50708	0.01609
2285.54271	0.01606
2284.57835	0.01604
2283.61398	0.01602
2282.64962	0.016
2281.68526	0.01597
2280.72089	0.01595
2279.75653	0.01593
2278.79216	0.0159
2277.8278	0.01588
2276.86344	0.01586
2275.89907	0.01583
2274.93471	0.01581
2273.97034	0.01579
2273.00598	0.01576
2272.04162	0.01574
2271.07725	0.01572
2270.11289	0.0157
2269.14852	0.01567
2268.18416	0.01565
2267.2198	0.01563
2266.25543	0.0156
2265.29107	0.01558
2264.3267	0.01556
2263.36234	0.01553
2262.39798	0.01551
2261.43361	0.01549
2260.46925	0.01546
2259.50488	0.01544
2258.54052	0.01542
2257.57616	0.0154
2256.61179	0.01537
2255.64743	0.01535
2254.68306	0.01533
2253.7187	0.0153
2252.75434	0.01528
2251.78997	0.01526
2250.82561	0.01523
2249.86124	0.01521
2248.89688	0.01519
2247.93252	0.01516
2246.96815	0.01514
2246.00379	0.01512
2245.03942	0.0151
2244.07506	0.01508
2243.1107	0.01505
2242.14633	0.01502
2241.18197	0.015
2240.2176	0.01496
2239.25324	0.01493
2238.28888	0.0149
2237.32451	0.01486
2236.36015	0.01483
2235.39578	0.0148
2234.43142	0.01478
2233.46706	0.01476
2232.50269	0.01475
2231.53833	0.01475
2230.57396	0.01477
2229.6096	0.01479
2228.64524	0.01482
2227.68087	0.01487
2226.71651	0.01493
2225.75214	0.015
2224.78778	0.01509
2223.82342	0.01518
2222.85905	0.01527
2221.89469	0.01537
2220.93032	0.01546
2219.96596	0.01555
2219.0016	0.01564
2218.03723	0.01572
2217.07287	0.01581
2216.1085	0.01588
2215.14414	0.01596
2214.17978	0.01603
2213.21541	0.0161
2212.25105	0.01618
2211.28668	0.01626
2210.32232	0.01635
2209.35796	0.01645
2208.39359	0.01656
2207.42923	0.01668
2206.46486	0.0168
2205.5005	0.01694
2204.53614	0.01709
2203.57177	0.01725
2202.60741	0.01742
2201.64304	0.01759
2200.67868	0.01776
2199.71432	0.01794
2198.74995	0.01811
2197.78559	0.01828
2196.82122	0.01844
2195.85686	0.0186
2194.8925	0.01875
2193.92813	0.0189
2192.96377	0.01905
2191.9994	0.01918
2191.03504	0.01931
2190.07068	0.01942
2189.10631	0.01954
2188.14195	0.01964
2187.17758	0.01974
2186.21322	0.01983
2185.24885	0.01992
2184.28449	0.01999
2183.32013	0.02007
2182.35576	0.02013
2181.3914	0.02019
2180.42703	0.02024
2179.46267	0.02029
2178.49831	0.02034
2177.53394	0.02038
2176.56958	0.02042
2175.60521	0.02046
2174.64085	0.0205
2173.67649	0.02054
2172.71212	0.02058
2171.74776	0.02061
2170.78339	0.02065
2169.81903	0.02068
2168.85467	0.0207
2167.8903	0.02072
2166.92594	0.02074
2165.96157	0.02074
2164.99721	0.02073
2164.03285	0.02071
2163.06848	0.02067
2162.10412	0.02062
2161.13975	0.02056
2160.17539	0.02048
2159.21103	0.02038
2158.24666	0.02027
2157.2823	0.02015
2156.31793	0.02002
2155.35357	0.01988
2154.38921	0.01973
2153.42484	0.01958
2152.46048	0.01944
2151.49611	0.0193
2150.53175	0.01917
2149.56739	0.01904
2148.60302	0.01893
2147.63866	0.01883
2146.67429	0.01874
2145.70993	0.01867
2144.74557	0.0186
2143.7812	0.01855
2142.81684	0.0185
2141.85247	0.01846
2140.88811	0.01843
2139.92375	0.01841
2138.95938	0.01838
2137.99502	0.01836
2137.03065	0.01833
2136.06629	0.0183
2135.10193	0.01826
2134.13756	0.01821
2133.1732	0.01816
2132.20883	0.01811
2131.24447	0.01805
2130.28011	0.01798
2129.31574	0.01792
2128.35138	0.01785
2127.38701	0.01779
2126.42265	0.01772
2125.45829	0.01764
2124.49392	0.01757
2123.52956	0.0175
2122.56519	0.01742
2121.60083	0.01735
2120.63647	0.01728
2119.6721	0.0172
2118.70774	0.01713
2117.74337	0.01706
2116.77901	0.017
2115.81465	0.01693
2114.85028	0.01686
2113.88592	0.01679
2112.92155	0.01672
2111.95719	0.01666
2110.99283	0.01659
2110.02846	0.01654
2109.0641	0.01648
2108.09973	0.01644
2107.13537	0.0164
2106.17101	0.01638
2105.20664	0.01637
2104.24228	0.01637
2103.27791	0.01639
2102.31355	0.01642
2101.34919	0.01647
2100.38482	0.01653
2099.42046	0.0166
2098.45609	0.01668
2097.49173	0.01678
2096.52737	0.01688
2095.563	0.01698
2094.59864	0.01709
2093.63427	0.0172
2092.66991	0.01729
2091.70555	0.01739
2090.74118	0.01747
2089.77682	0.01753
2088.81245	0.01758
2087.84809	0.01761
2086.88373	0.01762
2085.91936	0.0176
2084.955	0.01757
2083.99063	0.01754
2083.02627	0.0175
2082.06191	0.01746
2081.09754	0.01742
2080.13318	0.0174
2079.16881	0.0174
2078.20445	0.01741
2077.24009	0.01744
2076.27572	0.0175
2075.31136	0.01759
2074.34699	0.0177
2073.38263	0.01783
2072.41827	0.01799
2071.4539	0.01816
2070.48954	0.01834
2069.52517	0.01854
2068.56081	0.01873
2067.59645	0.01891
2066.63208	0.01908
2065.66772	0.01923
2064.70335	0.01934
2063.73899	0.01941
2062.77463	0.01944
2061.81026	0.01943
2060.8459	0.01941
2059.88153	0.01936
2058.91717	0.01929
2057.95281	0.01921
2056.98844	0.01913
2056.02408	0.01905
2055.05971	0.01898
2054.09535	0.01891
2053.13099	0.01885
2052.16662	0.0188
2051.20226	0.01877
2050.23789	0.01874
2049.27353	0.01872
2048.30917	0.0187
2047.3448	0.01869
2046.38044	0.01867
2045.41607	0.01864
2044.45171	0.01859
2043.48734	0.01851
2042.52298	0.0184
2041.55862	0.01825
2040.59425	0.01806
2039.62989	0.01784
2038.66552	0.01758
2037.70116	0.0173
2036.7368	0.01699
2035.77243	0.01669
2034.80807	0.01638
2033.8437	0.01609
2032.87934	0.01582
2031.91498	0.01558
2030.95061	0.01536
2029.98625	0.01518
2029.02188	0.01503
2028.05752	0.01492
2027.09316	0.01484
2026.12879	0.01479
2025.16443	0.01478
2024.20006	0.01479
2023.2357	0.01483
2022.27134	0.01488
2021.30697	0.01493
2020.34261	0.01499
2019.37824	0.01503
2018.41388	0.01505
2017.44952	0.01504
2016.48515	0.01499
2015.52079	0.0149
2014.55642	0.01479
2013.59206	0.01464
2012.6277	0.01447
2011.66333	0.01429
2010.69897	0.0141
2009.7346	0.01391
2008.77024	0.01373
2007.80588	0.01357
2006.84151	0.01343
2005.87715	0.01333
2004.91278	0.01327
2003.94842	0.01327
2002.98406	0.01332
2002.01969	0.01342
2001.05533	0.01357
2000.09096	0.01377
1999.1266	0.014
1998.16224	0.01426
1997.19787	0.01454
1996.23351	0.01482
1995.26914	0.01509
1994.30478	0.01535
1993.34042	0.01558
1992.37605	0.01576
1991.41169	0.01587
1990.44732	0.01592
1989.48296	0.01592
1988.5186	0.01585
1987.55423	0.01572
1986.58987	0.01556
1985.6255	0.01538
1984.66114	0.0152
1983.69678	0.01505
1982.73241	0.01493
1981.76805	0.01485
1980.80368	0.01482
1979.83932	0.01484
1978.87496	0.01491
1977.91059	0.01504
1976.94623	0.01521
1975.98186	0.01542
1975.0175	0.01567
1974.05314	0.01594
1973.08877	0.01624
1972.12441	0.01656
1971.16004	0.01687
1970.19568	0.01717
1969.23132	0.01745
1968.26695	0.01768
1967.30259	0.01787
1966.33822	0.01799
1965.37386	0.01804
1964.4095	0.01804
1963.44513	0.01799
1962.48077	0.01792
1961.5164	0.01784
1960.55204	0.01777
1959.58768	0.01772
1958.62331	0.01769
1957.65895	0.01769
1956.69458	0.01773
1955.73022	0.01779
1954.76586	0.01787
1953.80149	0.01797
1952.83713	0.01808
1951.87276	0.0182
1950.9084	0.01834
1949.94404	0.01849
1948.97967	0.01864
1948.01531	0.01879
1947.05094	0.01892
1946.08658	0.01901
1945.12222	0.01901
1944.15785	0.01891
1943.19349	0.01869
1942.22912	0.01836
1941.26476	0.01795
1940.3004	0.01747
1939.33603	0.01696
1938.37167	0.01646
1937.4073	0.01598
1936.44294	0.01556
1935.47858	0.01522
1934.51421	0.01498
1933.54985	0.01484
1932.58548	0.0148
1931.62112	0.01485
1930.65676	0.015
1929.69239	0.01523
1928.72803	0.01555
1927.76366	0.01595
1926.7993	0.01643
1925.83494	0.01697
1924.87057	0.01754
1923.90621	0.01811
1922.94184	0.01863
1921.97748	0.01905
1921.01312	0.01937
1920.04875	0.01963
1919.08439	0.01983
1918.12002	0.01996
1917.15566	0.02001
1916.1913	0.02
1915.22693	0.01996
1914.26257	0.01992
1913.2982	0.01992
1912.33384	0.01993
1911.36948	0.01996
1910.40511	0.01998
1909.44075	0.02
1908.47638	0.02001
1907.51202	0.02005
1906.54766	0.02013
1905.58329	0.02027
1904.61893	0.02048
1903.65456	0.02076
1902.6902	0.02112
1901.72583	0.02153
1900.76147	0.02199
1899.79711	0.02248
1898.83274	0.023
1897.86838	0.02357
1896.90401	0.02416
1895.93965	0.02475
1894.97529	0.0253
1894.01092	0.0258
1893.04656	0.02627
1892.08219	0.02673
1891.11783	0.02712
1890.15347	0.02739
1889.1891	0.02749
1888.22474	0.02742
1887.26037	0.02724
1886.29601	0.027
1885.33165	0.02677
1884.36728	0.02658
1883.40292	0.02647
1882.43855	0.02646
1881.47419	0.02658
1880.50983	0.02683
1879.54546	0.02722
1878.5811	0.02776
1877.61673	0.02844
1876.65237	0.02925
1875.68801	0.03018
1874.72364	0.03121
1873.75928	0.03231
1872.79491	0.03344
1871.83055	0.03457
1870.86619	0.03566
1869.90182	0.03662
1868.93746	0.03739
1867.97309	0.03789
1867.00873	0.03809
1866.04437	0.03803
1865.08	0.03778
1864.11564	0.03744
1863.15127	0.03706
1862.18691	0.0367
1861.22255	0.03641
1860.25818	0.03624
1859.29382	0.03621
1858.32945	0.03634
1857.36509	0.03666
1856.40073	0.0372
1855.43636	0.03798
1854.472	0.03902
1853.50763	0.04031
1852.54327	0.04183
1851.57891	0.0435
1850.61454	0.04528
1849.65018	0.04713
1848.68581	0.04903
1847.72145	0.0509
1846.75709	0.05265
1845.79272	0.05427
1844.82836	0.05576
1843.86399	0.05709
1842.89963	0.05832
1841.93527	0.05951
1840.9709	0.06074
1840.00654	0.06205
1839.04217	0.06346
1838.07781	0.06498
1837.11345	0.06661
1836.14908	0.06836
1835.18472	0.07025
1834.22035	0.07231
1833.25599	0.07451
1832.29163	0.07682
1831.32726	0.07922
1830.3629	0.08166
1829.39853	0.08406
1828.43417	0.08644
1827.46981	0.08891
1826.50544	0.09162
1825.54108	0.09467
1824.57671	0.09815
1823.61235	0.10218
1822.64799	0.1069
1821.68362	0.11241
1820.71926	0.11882
1819.75489	0.12623
1818.79053	0.13466
1817.82617	0.1441
1816.8618	0.15443
1815.89744	0.16555
1814.93307	0.17729
1813.96871	0.18942
1813.00435	0.20168
1812.03998	0.21384
1811.07562	0.2256
1810.11125	0.23668
1809.14689	0.24682
1808.18253	0.25584
1807.21816	0.26358
1806.2538	0.26997
1805.28943	0.27508
1804.32507	0.27908
1803.36071	0.28212
1802.39634	0.28435
1801.43198	0.28595
1800.46761	0.28715
1799.50325	0.2882
1798.53889	0.2893
1797.57452	0.29064
1796.61016	0.29236
1795.64579	0.29455
1794.68143	0.2972
1793.71707	0.30031
1792.7527	0.30388
1791.78834	0.30784
1790.82397	0.31213
1789.85961	0.31675
1788.89525	0.32172
1787.93088	0.32703
1786.96652	0.33266
1786.00215	0.33856
1785.03779	0.34465
1784.07343	0.3508
1783.10906	0.35693
1782.1447	0.36301
1781.18033	0.36896
1780.21597	0.37468
1779.25161	0.38002
1778.28724	0.38489
1777.32288	0.3892
1776.35851	0.39284
1775.39415	0.39568
1774.42979	0.39755
1773.46542	0.39829
1772.50106	0.39777
1771.53669	0.39591
1770.57233	0.3928
1769.60797	0.38876
1768.6436	0.38413
1767.67924	0.37934
1766.71487	0.37484
1765.75051	0.371
1764.78615	0.36811
1763.82178	0.36638
1762.85742	0.3659
1761.89305	0.36663
1760.92869	0.36852
1759.96432	0.3715
1758.99996	0.37547
1758.0356	0.38021
1757.07123	0.38538
1756.10687	0.39051
1755.1425	0.39519
1754.17814	0.39905
1753.21378	0.40168
1752.24941	0.40264
1751.28505	0.4016
1750.32068	0.39836
1749.35632	0.39289
1748.39196	0.38535
1747.42759	0.37609
1746.46323	0.36554
1745.49886	0.35409
1744.5345	0.34207
1743.57014	0.32979
1742.60577	0.31752
1741.64141	0.3055
1740.67704	0.29389
1739.71268	0.28269
1738.74832	0.27195
1737.78395	0.26176
1736.81959	0.25218
1735.85522	0.24318
1734.89086	0.23466
1733.9265	0.22646
1732.96213	0.21841
1731.99777	0.21058
1731.0334	0.20298
1730.06904	0.19561
1729.10468	0.18847
1728.14031	0.18167
1727.17595	0.17538
1726.21158	0.16977
1725.24722	0.16506
1724.28286	0.16143
1723.31849	0.15904
1722.35413	0.1579
1721.38976	0.15797
1720.4254	0.15921
1719.46104	0.16163
1718.49667	0.16508
1717.53231	0.16933
1716.56794	0.17418
1715.60358	0.17967
1714.63922	0.18579
1713.67485	0.19252
1712.71049	0.19985
1711.74612	0.20774
1710.78176	0.2162
1709.8174	0.22526
1708.85303	0.23503
1707.88867	0.24556
1706.9243	0.25672
1705.95994	0.26841
1704.99558	0.28064
1704.03121	0.2934
1703.06685	0.30665
1702.10248	0.32028
1701.13812	0.33412
1700.17376	0.3479
1699.20939	0.36117
1698.24503	0.37358
1697.28066	0.38482
1696.3163	0.39453
1695.35194	0.40234
1694.38757	0.40795
1693.42321	0.41129
1692.45884	0.41233
1691.49448	0.41098
1690.53012	0.40723
1689.56575	0.40118
1688.60139	0.39301
1687.63702	0.38303
1686.67266	0.37161
1685.7083	0.35908
1684.74393	0.34569
1683.77957	0.33161
1682.8152	0.31733
1681.85084	0.3034
1680.88648	0.29018
1679.92211	0.27788
1678.95775	0.26669
1677.99338	0.25672
1677.02902	0.24802
1676.06466	0.24042
1675.10029	0.23374
1674.13593	0.2279
1673.17156	0.22287
1672.2072	0.2186
1671.24284	0.21503
1670.27847	0.21206
1669.31411	0.2095
1668.34974	0.20717
1667.38538	0.20511
1666.42102	0.20342
1665.45665	0.2022
1664.49229	0.20151
1663.52792	0.20131
1662.56356	0.20152
1661.5992	0.20209
1660.63483	0.20307
1659.67047	0.2046
1658.7061	0.20662
1657.74174	0.20895
1656.77738	0.21147
1655.81301	0.2141
1654.84865	0.21673
1653.88428	0.21914
1652.91992	0.22106
1651.95556	0.22242
1650.99119	0.2234
1650.02683	0.22403
1649.06246	0.22426
1648.0981	0.22403
1647.13374	0.2232
1646.16937	0.22168
1645.20501	0.21954
1644.24064	0.21698
1643.27628	0.21413
1642.31192	0.21105
1641.34755	0.20779
1640.38319	0.20439
1639.41882	0.20086
1638.45446	0.1972
1637.4901	0.19343
1636.52573	0.18953
1635.56137	0.18546
1634.597	0.18127
1633.63264	0.1771
1632.66828	0.17305
1631.70391	0.16914
1630.73955	0.16536
1629.77518	0.16175
1628.81082	0.15839
1627.84646	0.15531
1626.88209	0.15245
1625.91773	0.14976
1624.95336	0.14723
1623.989	0.14479
1623.02464	0.14242
1622.06027	0.14021
1621.09591	0.13825
1620.13154	0.13659
1619.16718	0.13522
1618.20281	0.1341
1617.23845	0.13316
1616.27409	0.13226
1615.30972	0.13136
1614.34536	0.13052
1613.38099	0.12977
1612.41663	0.12913
1611.45227	0.12867
1610.4879	0.12838
1609.52354	0.1282
1608.55917	0.12804
1607.59481	0.12783
1606.63045	0.12753
1605.66608	0.12711
1604.70172	0.12656
1603.73735	0.12589
1602.77299	0.12511
1601.80863	0.12422
1600.84426	0.12324
1599.8799	0.12222
1598.91553	0.12121
1597.95117	0.12023
1596.98681	0.11929
1596.02244	0.11841
1595.05808	0.11762
1594.09371	0.11698
1593.12935	0.11659
1592.16499	0.11652
1591.20062	0.11681
1590.23626	0.11745
1589.27189	0.11845
1588.30753	0.11983
1587.34317	0.12156
1586.3788	0.12364
1585.41444	0.12607
1584.45007	0.12889
1583.48571	0.13215
1582.52135	0.13592
1581.55698	0.14008
1580.59262	0.14446
1579.62825	0.14906
1578.66389	0.15393
1577.69953	0.1591
1576.73516	0.16451
1575.7708	0.17011
1574.80643	0.17594
1573.84207	0.18212
1572.87771	0.18873
1571.91334	0.19576
1570.94898	0.20316
1569.98461	0.21087
1569.02025	0.21872
1568.05589	0.22658
1567.09152	0.23434
1566.12716	0.24189
1565.16279	0.24904
1564.19843	0.25561
1563.23407	0.26146
1562.2697	0.26641
1561.30534	0.27033
1560.34097	0.27315
1559.37661	0.27476
1558.41225	0.27491
1557.44788	0.27372
1556.48352	0.27155
1555.51915	0.26857
1554.55479	0.26488
1553.59043	0.26066
1552.62606	0.25617
1551.6617	0.25174
1550.69733	0.24755
1549.73297	0.24366
1548.76861	0.24013
1547.80424	0.23704
1546.83988	0.23443
1545.87551	0.2323
1544.91115	0.23058
1543.94679	0.2291
1542.98242	0.2277
1542.01806	0.22625
1541.05369	0.22469
1540.08933	0.22299
1539.12497	0.22099
1538.1606	0.21875
1537.19624	0.21644
1536.23187	0.21419
1535.26751	0.21209
1534.30315	0.21034
1533.33878	0.20901
1532.37442	0.20806
1531.41005	0.20757
1530.44569	0.20764
1529.48133	0.20826
1528.51696	0.20926
1527.5526	0.21054
1526.58823	0.21209
1525.62387	0.21395
1524.65951	0.21617
1523.69514	0.21872
1522.73078	0.22157
1521.76641	0.22459
1520.80205	0.22763
1519.83769	0.2307
1518.87332	0.23389
1517.90896	0.23722
1516.94459	0.24062
1515.98023	0.24409
1515.01587	0.24782
1514.0515	0.25204
1513.08714	0.25677
1512.12277	0.26201
1511.15841	0.26772
1510.19405	0.27392
1509.22968	0.28062
1508.26532	0.28775
1507.30095	0.29516
1506.33659	0.3026
1505.37223	0.30999
1504.40786	0.31741
1503.4435	0.32489
1502.47913	0.33234
1501.51477	0.33966
1500.55041	0.3467
1499.58604	0.35331
1498.62168	0.35924
1497.65731	0.36428
1496.69295	0.36833
1495.72859	0.37122
1494.76422	0.37272
1493.79986	0.37276
1492.83549	0.37147
1491.87113	0.36904
1490.90677	0.36566
1489.9424	0.36141
1488.97804	0.3565
1488.01367	0.35117
1487.04931	0.34561
1486.08495	0.33994
1485.12058	0.3343
1484.15622	0.32881
1483.19185	0.32362
1482.22749	0.31891
1481.26312	0.3148
1480.29876	0.31122
1479.3344	0.30815
1478.37003	0.30562
1477.40567	0.30369
1476.4413	0.30241
1475.47694	0.30178
1474.51258	0.30183
1473.54821	0.30254
1472.58385	0.30382
1471.61948	0.30564
1470.65512	0.30807
1469.69076	0.31118
1468.72639	0.31495
1467.76203	0.31934
1466.79766	0.32423
1465.8333	0.32952
1464.86894	0.33502
1463.90457	0.34043
1462.94021	0.34555
1461.97584	0.35021
1461.01148	0.35418
1460.04712	0.35725
1459.08275	0.35914
1458.11839	0.35959
1457.15402	0.35843
1456.18966	0.35568
1455.2253	0.35156
1454.26093	0.34631
1453.29657	0.34015
1452.3322	0.33327
1451.36784	0.32584
1450.40348	0.31803
1449.43911	0.31005
1448.47475	0.30212
1447.51038	0.29448
1446.54602	0.28731
1445.58166	0.28073
1444.61729	0.27483
1443.65293	0.26967
1442.68856	0.26527
1441.7242	0.2616
1440.75984	0.25859
1439.79547	0.25622
1438.83111	0.25441
1437.86674	0.25305
1436.90238	0.25201
1435.93802	0.25113
1434.97365	0.25037
1434.00929	0.2498
1433.04492	0.2495
1432.08056	0.24956
1431.1162	0.24998
1430.15183	0.25075
1429.18747	0.25183
1428.2231	0.25323
1427.25874	0.25496
1426.29438	0.25701
1425.33001	0.25936
1424.36565	0.26196
1423.40128	0.26478
1422.43692	0.26776
1421.47256	0.27088
1420.50819	0.27404
1419.54383	0.27712
1418.57946	0.27996
1417.6151	0.28241
1416.65074	0.28441
1415.68637	0.28596
1414.72201	0.28707
1413.75764	0.28777
1412.79328	0.28809
1411.82892	0.2881
1410.86455	0.2878
1409.90019	0.28719
1408.93582	0.28627
1407.97146	0.28509
1407.0071	0.28373
1406.04273	0.28227
1405.07837	0.28075
1404.114	0.2792
1403.14964	0.27767
1402.18528	0.27619
1401.22091	0.27477
1400.25655	0.27339
1399.29218	0.27202
1398.32782	0.27056
1397.36346	0.26892
1396.39909	0.26699
1395.43473	0.2647
1394.47036	0.26202
1393.506	0.25906
1392.54164	0.25597
1391.57727	0.25285
1390.61291	0.24979
1389.64854	0.24686
1388.68418	0.24415
1387.71982	0.24177
1386.75545	0.23981
1385.79109	0.23844
1384.82672	0.23787
1383.86236	0.23831
1382.898	0.23992
1381.93363	0.24284
1380.96927	0.24715
1380.0049	0.25287
1379.04054	0.25992
1378.07618	0.26813
1377.11181	0.27723
1376.14745	0.28693
1375.18308	0.29685
1374.21872	0.30662
1373.25436	0.31585
1372.28999	0.32422
1371.32563	0.33149
1370.36126	0.33747
1369.3969	0.34195
1368.43254	0.3447
1367.46817	0.34561
1366.50381	0.34466
1365.53944	0.3419
1364.57508	0.33749
1363.61072	0.33162
1362.64635	0.32458
1361.68199	0.31676
1360.71762	0.30857
1359.75326	0.30046
1358.7889	0.29283
1357.82453	0.28599
1356.86017	0.28018
1355.8958	0.27556
1354.93144	0.2722
1353.96708	0.27013
1353.00271	0.26931
1352.03835	0.26965
1351.07398	0.27104
1350.10962	0.27335
1349.14526	0.27641
1348.18089	0.28003
1347.21653	0.284
1346.25216	0.28811
1345.2878	0.29217
1344.32344	0.29603
1343.35907	0.29957
1342.39471	0.30271
1341.43034	0.30536
1340.46598	0.30748
1339.50161	0.30907
1338.53725	0.31019
1337.57289	0.31098
1336.60852	0.31154
1335.64416	0.31193
1334.67979	0.31218
1333.71543	0.3123
1332.75107	0.31232
1331.7867	0.31224
1330.82234	0.31206
1329.85797	0.31178
1328.89361	0.31139
1327.92925	0.31088
1326.96488	0.31022
1326.00052	0.3094
1325.03615	0.3084
1324.07179	0.30727
1323.10743	0.30601
1322.14306	0.30468
1321.1787	0.3033
1320.21433	0.30191
1319.24997	0.30052
1318.28561	0.29915
1317.32124	0.2978
1316.35688	0.29651
1315.39251	0.29533
1314.42815	0.2943
1313.46379	0.29339
1312.49942	0.29258
1311.53506	0.29184
1310.57069	0.29111
1309.60633	0.29036
1308.64197	0.28955
1307.6776	0.28866
1306.71324	0.28767
1305.74887	0.28661
1304.78451	0.28548
1303.82015	0.28433
1302.85578	0.28321
1301.89142	0.28219
1300.92705	0.28137
1299.96269	0.28084
1298.99833	0.28065
1298.03396	0.28085
1297.0696	0.28146
1296.10523	0.28244
1295.14087	0.28379
1294.17651	0.28546
1293.21214	0.28736
1292.24778	0.28938
1291.28341	0.29138
1290.31905	0.29319
1289.35469	0.29462
1288.39032	0.29552
1287.42596	0.29572
1286.46159	0.29512
1285.49723	0.29364
1284.53287	0.29125
1283.5685	0.28798
1282.60414	0.28385
1281.63977	0.27893
1280.67541	0.27332
1279.71105	0.26719
1278.74668	0.26071
1277.78232	0.25407
1276.81795	0.2475
1275.85359	0.24118
1274.88923	0.23532
1273.92486	0.23009
1272.9605	0.22564
1271.99613	0.22211
1271.03177	0.21957
1270.06741	0.21812
1269.10304	0.21778
1268.13868	0.21857
1267.17431	0.22048
1266.20995	0.22349
1265.24559	0.22754
1264.28122	0.23259
1263.31686	0.23857
1262.35249	0.2454
1261.38813	0.25298
1260.42377	0.2612
1259.4594	0.26996
1258.49504	0.27911
1257.53067	0.28854
1256.56631	0.29809
1255.60195	0.30758
1254.63758	0.31682
1253.67322	0.32561
1252.70885	0.33372
1251.74449	0.34093
1250.78013	0.34704
1249.81576	0.35189
1248.8514	0.35531
1247.88703	0.35724
1246.92267	0.35762
1245.95831	0.35646
1244.99394	0.3538
1244.02958	0.34972
1243.06521	0.3443
1242.10085	0.33769
1241.13649	0.33005
1240.17212	0.3216
1239.20776	0.31257
1238.24339	0.30321
1237.27903	0.29379
1236.31467	0.28454
1235.3503	0.27568
1234.38594	0.26739
1233.42157	0.2598
1232.45721	0.253
1231.49285	0.24706
1230.52848	0.24201
1229.56412	0.23786
1228.59975	0.23462
1227.63539	0.23226
1226.67103	0.23077
1225.70666	0.23011
1224.7423	0.23024
1223.77793	0.23111
1222.81357	0.23269
1221.84921	0.23494
1220.88484	0.23785
1219.92048	0.24141
1218.95611	0.24565
1217.99175	0.25062
1217.02739	0.25633
1216.06302	0.26283
1215.09866	0.27009
1214.13429	0.27808
1213.16993	0.2867
1212.20557	0.29585
1211.2412	0.30538
1210.27684	0.31509
1209.31247	0.32481
1208.34811	0.33431
1207.38375	0.34338
1206.41938	0.3518
1205.45502	0.35934
1204.49065	0.36583
1203.52629	0.37111
1202.56193	0.37504
1201.59756	0.37756
1200.6332	0.3787
1199.66883	0.37854
1198.70447	0.37725
1197.7401	0.37506
1196.77574	0.37222
1195.81138	0.36902
1194.84701	0.36573
1193.88265	0.36261
1192.91828	0.35988
1191.95392	0.3577
1190.98956	0.35622
1190.02519	0.35552
1189.06083	0.35567
1188.09646	0.35669
1187.1321	0.35856
1186.16774	0.36126
1185.20337	0.36472
1184.23901	0.3689
1183.27464	0.37372
1182.31028	0.37914
1181.34592	0.38514
1180.38155	0.39173
1179.41719	0.39903
1178.45282	0.40718
1177.48846	0.41639
1176.5241	0.42692
1175.55973	0.43902
1174.59537	0.45291
1173.631	0.46876
1172.66664	0.48666
1171.70228	0.50663
1170.73791	0.52859
1169.77355	0.55237
1168.80918	0.57768
1167.84482	0.60414
1166.88046	0.6313
1165.91609	0.65861
1164.95173	0.68548
1163.98736	0.71124
1163.023	0.73521
1162.05864	0.75671
1161.09427	0.77507
1160.12991	0.78969
1159.16554	0.80008
1158.20118	0.80589
1157.23682	0.80695
1156.27245	0.80327
1155.30809	0.795
1154.34372	0.78248
1153.37936	0.76616
1152.415	0.74657
1151.45063	0.72433
1150.48627	0.70012
1149.5219	0.67463
1148.55754	0.64859
1147.59318	0.6227
1146.62881	0.59765
1145.66445	0.57403
1144.70008	0.55237
1143.73572	0.53311
1142.77136	0.51658
1141.80699	0.50298
1140.84263	0.49238
1139.87826	0.48471
1138.9139	0.47982
1137.94954	0.47746
1136.98517	0.47733
1136.02081	0.47916
1135.05644	0.48265
1134.09208	0.48756
1133.12772	0.4937
1132.16335	0.50093
1131.19899	0.50917
1130.23462	0.51832
1129.27026	0.52836
1128.3059	0.53927
1127.34153	0.55104
1126.37717	0.56368
1125.4128	0.57718
1124.44844	0.59147
1123.48408	0.60648
1122.51971	0.62207
1121.55535	0.63802
1120.59098	0.65408
1119.62662	0.6699
1118.66226	0.68509
1117.69789	0.69922
1116.73353	0.71182
1115.76916	0.72248
1114.8048	0.73084
1113.84044	0.73665
1112.87607	0.73978
1111.91171	0.74023
1110.94734	0.73808
1109.98298	0.73355
1109.01862	0.72689
1108.05425	0.71847
1107.08989	0.70866
1106.12552	0.69791
1105.16116	0.68664
1104.1968	0.67527
1103.23243	0.66419
1102.26807	0.65369
1101.3037	0.64402
1100.33934	0.63537
1099.37498	0.62786
1098.41061	0.62157
1097.44625	0.61655
1096.48188	0.61282
1095.51752	0.6104
1094.55316	0.60932
1093.58879	0.60962
1092.62443	0.61134
1091.66006	0.61452
1090.6957	0.61914
1089.73134	0.62509
1088.76697	0.63218
1087.80261	0.6401
1086.83824	0.64849
1085.87388	0.65693
1084.90952	0.66501
1083.94515	0.67228
1082.98079	0.67836
1082.01642	0.6829
1081.05206	0.6856
1080.0877	0.68629
1079.12333	0.68491
1078.15897	0.68155
1077.1946	0.67646
1076.23024	0.67005
1075.26588	0.66288
1074.30151	0.6556
1073.33715	0.64892
1072.37278	0.64351
1071.40842	0.63997
1070.44406	0.6388
1069.47969	0.64032
1068.51533	0.64464
1067.55096	0.65166
1066.5866	0.66105
1065.62224	0.67234
1064.65787	0.68495
1063.69351	0.69825
1062.72914	0.71164
1061.76478	0.72454
1060.80042	0.73645
1059.83605	0.74698
1058.87169	0.75587
1057.90732	0.76305
1056.94296	0.76858
1055.97859	0.77269
1055.01423	0.77575
1054.04987	0.77821
1053.0855	0.78058
1052.12114	0.78331
1051.15677	0.7868
1050.19241	0.79134
1049.22805	0.79709
1048.26368	0.80408
1047.29932	0.81229
1046.33495	0.82156
1045.37059	0.83169
1044.40623	0.84244
1043.44186	0.8536
1042.4775	0.86499
1041.51313	0.87652
1040.54877	0.88811
1039.58441	0.89971
1038.62004	0.91126
1037.65568	0.92268
1036.69131	0.93392
1035.72695	0.9449
1034.76259	0.95549
1033.79822	0.96555
1032.83386	0.97486
1031.86949	0.98318
1030.90513	0.99019
1029.94077	0.99556
1028.9764	0.99894
1028.01204	1
1027.04767	0.99844
1026.08331	0.99401
1025.11895	0.98654
1024.15458	0.97599
1023.19022	0.96244
1022.22585	0.94609
1021.26149	0.92731
1020.29713	0.90654
1019.33276	0.88433
1018.3684	0.86129
1017.40403	0.83804
1016.43967	0.81518
1015.47531	0.79329
1014.51094	0.77289
1013.54658	0.7544
1012.58221	0.73816
1011.61785	0.72439
1010.65349	0.71322
1009.68912	0.70468
1008.72476	0.69875
1007.76039	0.69536
1006.79603	0.69435
1005.83167	0.69552
1004.8673	0.69858
1003.90294	0.70316
1002.93857	0.70883
1001.97421	0.71515
1001.00985	0.72165
1000.04548	0.72792
999.08112	0.73357
998.11675	0.7383
997.15239	0.74188
996.18803	0.74416
995.22366	0.74506
994.2593	0.74456
993.29493	0.74267
992.33057	0.7394
991.36621	0.73477
990.40184	0.72881
989.43748	0.72158
988.47311	0.71315
987.50875	0.70359
986.54439	0.69301
985.58002	0.68149
984.61566	0.66911
983.65129	0.6559
982.68693	0.64184
981.72257	0.62689
980.7582	0.61101
979.79384	0.59415
978.82947	0.57632
977.86511	0.55757
976.90075	0.53798
975.93638	0.51767
974.97202	0.49681
974.00765	0.47556
973.04329	0.45413
972.07893	0.43277
971.11456	0.41172
970.1502	0.39127
969.18583	0.3717
968.22147	0.35328
967.25711	0.33625
966.29274	0.32085
965.32838	0.30725
964.36401	0.29557
963.39965	0.28585
962.43529	0.27804
961.47092	0.27205
960.50656	0.26771
959.54219	0.26484
958.57783	0.26321
957.61347	0.26261
956.6491	0.26279
955.68474	0.26348
954.72037	0.26442
953.75601	0.26528
952.79165	0.26578
951.82728	0.26566
950.86292	0.26476
949.89855	0.26303
948.93419	0.26047
947.96983	0.25718
947.00546	0.25325
946.0411	0.24885
945.07673	0.2441
944.11237	0.23912
943.14801	0.234
942.18364	0.22878
941.21928	0.2235
940.25491	0.21816
939.29055	0.21274
938.32619	0.20728
937.36182	0.20179
936.39746	0.19632
935.43309	0.1909
934.46873	0.18556
933.50437	0.18028
932.54	0.17505
931.57564	0.16987
930.61127	0.16471
929.64691	0.15955
928.68255	0.1544
927.71818	0.14928
926.75382	0.14423
925.78945	0.13926
924.82509	0.13439
923.86073	0.12963
922.89636	0.12499
921.932	0.12048
920.96763	0.11607
920.00327	0.11175
919.03891	0.1075
918.07454	0.10332
917.11018	0.09925
916.14581	0.09531
915.18145	0.09156
914.21708	0.08802
913.25272	0.08474
912.28836	0.08173
911.32399	0.07901
910.35963	0.07655
909.39526	0.07434
908.4309	0.07237
907.46654	0.07059
906.50217	0.06894
905.53781	0.06732
904.57344	0.06565
903.60908	0.06386
902.64472	0.06192
901.68035	0.0598
900.71599	0.05749
899.75162	0.05502
898.78726	0.05243
897.8229	0.04976
896.85853	0.04708
895.89417	0.04442
894.9298	0.04184
893.96544	0.03938
893.00108	0.03707
892.03671	0.03492
891.07235	0.03292
890.10798	0.03105
889.14362	0.02927
888.17926	0.02757
887.21489	0.02594
886.25053	0.02441
885.28616	0.02302
884.3218	0.02186
883.35744	0.02105
882.39307	0.02066
881.42871	0.0208
880.46434	0.02155
879.49998	0.02299
878.53562	0.02518
877.57125	0.02813
876.60689	0.03185
875.64252	0.0363
874.67816	0.04144
873.7138	0.04721
872.74943	0.0535
871.78507	0.06016
870.8207	0.06703
869.85634	0.07389
868.89198	0.08049
867.92761	0.08658
866.96325	0.09188
865.99888	0.09621
865.03452	0.09942
864.07016	0.10151
863.10579	0.10253
862.14143	0.10261
861.17706	0.10196
860.2127	0.10077
859.24834	0.09923
858.28397	0.09752
857.31961	0.09579
856.35524	0.09418
855.39088	0.09281
854.42652	0.09178
853.46215	0.09115
852.49779	0.091
851.53342	0.09134
850.56906	0.09218
849.6047	0.09345
848.64033	0.09503
847.67597	0.09676
846.7116	0.09844
845.74724	0.09987
844.78288	0.10087
843.81851	0.1013
842.85415	0.10104
841.88978	0.10009
840.92542	0.09848
839.96106	0.09626
838.99669	0.09354
838.03233	0.0904
837.06796	0.08696
836.1036	0.08332
835.13924	0.07959
834.17487	0.07585
833.21051	0.07221
832.24614	0.06877
831.28178	0.06561
830.31742	0.06282
829.35305	0.06044
828.38869	0.05851
827.42432	0.05706
826.45996	0.05609
825.4956	0.05557
824.53123	0.05546
823.56687	0.05571
822.6025	0.05627
821.63814	0.0571
820.67378	0.05813
819.70941	0.05933
818.74505	0.06066
817.78068	0.06213
816.81632	0.06371
815.85196	0.06538
814.88759	0.06711
813.92323	0.0689
812.95886	0.07071
811.9945	0.07253
811.03014	0.0743
810.06577	0.07598
809.10141	0.07754
808.13704	0.07896
807.17268	0.08021
806.20832	0.08126
805.24395	0.0821
804.27959	0.08274
803.31522	0.08319
802.35086	0.08346
801.3865	0.08354
800.42213	0.08344
799.45777	0.08318
798.4934	0.08279
797.52904	0.08229
796.56468	0.08172
795.60031	0.0811
794.63595	0.08046
793.67158	0.07983
792.70722	0.0792
791.74286	0.07857
790.77849	0.07793
789.81413	0.07729
788.84976	0.07668
787.8854	0.07611
786.92104	0.07559
785.95667	0.07514
784.99231	0.0748
784.02794	0.07461
783.06358	0.07457
782.09922	0.07476
781.13485	0.07524
780.17049	0.07612
779.20612	0.07751
778.24176	0.0795
777.2774	0.08218
776.31303	0.08558
775.34867	0.08973
774.3843	0.0946
773.41994	0.10012
772.45557	0.10615
771.49121	0.11253
770.52685	0.11907
769.56248	0.12558
768.59812	0.13186
767.63375	0.13772
766.66939	0.14302
765.70503	0.1476
764.74066	0.15133
763.7763	0.15407
762.81193	0.15571
761.84757	0.15618
760.88321	0.15551
759.91884	0.15375
758.95448	0.15108
757.99011	0.14769
757.02575	0.14384
756.06139	0.13978
755.09702	0.13574
754.13266	0.13189
753.16829	0.12839
752.20393	0.12536
751.23957	0.1229
750.2752	0.12105
749.31084	0.11981
748.34647	0.11918
747.38211	0.11912
746.41775	0.11962
745.45338	0.12063
744.48902	0.12209
743.52465	0.12394
742.56029	0.12613
741.59593	0.12859
740.63156	0.13124
739.6672	0.13401
738.70283	0.13683
737.73847	0.13969
736.77411	0.14257
735.80974	0.14547
734.84538	0.14836
733.88101	0.15125
732.91665	0.15414
731.95229	0.15701
730.98792	0.15989
730.02356	0.16277
729.05919	0.1657
728.09483	0.16871
727.13047	0.17182
726.1661	0.17502
725.20174	0.17832
724.23737	0.18173
723.27301	0.18527
722.30865	0.18895
721.34428	0.19276
720.37992	0.19668
719.41555	0.20068
718.45119	0.20467
717.48683	0.20854
716.52246	0.21214
715.5581	0.21533
714.59373	0.21805
713.62937	0.22027
712.66501	0.22201
711.70064	0.22327
710.73628	0.22413
709.77191	0.22467
708.80755	0.22497
707.84319	0.22514
706.87882	0.22525
705.91446	0.22535
704.95009	0.2255
703.98573	0.22571
703.02137	0.226
702.057	0.22632
701.09264	0.22662
700.12827	0.22684
699.16391	0.22689
698.19955	0.22665
697.23518	0.22595
696.27082	0.22464
695.30645	0.22257
694.34209	0.21961
693.37773	0.21575
692.41336	0.21104
691.449	0.20565
690.48463	0.19981
689.52027	0.19375
688.55591	0.18765
687.59154	0.18166
686.62718	0.17592
685.66281	0.17058
684.69845	0.16574
683.73409	0.16146
682.76972	0.1578
681.80536	0.15475
680.84099	0.15232
679.87663	0.15048
678.91227	0.14915
677.9479	0.14824
676.98354	0.14763
676.01917	0.14722
675.05481	0.14689
674.09045	0.14651
673.12608	0.14598
672.16172	0.14524
671.19735	0.14428
670.23299	0.14318
669.26863	0.142
668.30426	0.14082
667.3399	0.13973
666.37553	0.13877
665.41117	0.13791
664.44681	0.13713
663.48244	0.13644
662.51808	0.13583
661.55371	0.1353
660.58935	0.13484
659.62499	0.13441
658.66062	0.13397
657.69626	0.1335
656.73189	0.133
655.76753	0.13243
654.80317	0.13175
653.8388	0.13094
652.87444	0.12999
651.91007	0.12888
650.94571	0.12762
649.98135	0.12619
649.01698	0.12461
648.05262	0.12291
647.08825	0.12116
646.12389	0.11937
645.15953	0.11759
644.19516	0.11584
643.2308	0.11413
642.26643	0.1125
641.30207	0.11099
640.33771	0.10958
639.37334	0.10829
638.40898	0.1071
637.44461	0.10604
636.48025	0.1051
635.51589	0.10429
634.55152	0.10362
633.58716	0.10314
632.62279	0.10285
631.65843	0.10278
630.69406	0.10293
629.7297	0.1033
628.76534	0.10392
627.80097	0.10481
626.83661	0.10597
625.87224	0.1074
624.90788	0.10914
623.94352	0.11123
622.97915	0.11372
622.01479	0.11661
621.05042	0.11991
620.08606	0.12362
619.1217	0.12772
618.15733	0.13218
617.19297	0.1369
616.2286	0.14177
615.26424	0.14671
614.29988	0.15166
613.33551	0.15654
612.37115	0.16121
611.40678	0.16557
610.44242	0.16951
609.47806	0.17296
608.51369	0.17579
607.54933	0.17791
606.58496	0.17923
605.6206	0.17973
604.65624	0.1794
603.69187	0.17826
602.72751	0.17635
601.76314	0.17378
600.79878	0.17069
599.83442	0.1673
598.87005	0.1638
597.90569	0.16042
596.94132	0.15738
595.97696	0.1549
595.0126	0.15319
594.04823	0.15237
593.08387	0.15255
592.1195	0.15382
591.15514	0.15625
590.19078	0.15987
589.22641	0.1647
588.26205	0.1707
587.29768	0.17782
586.33332	0.18598
585.36896	0.19506
584.40459	0.20485
583.44023	0.21512
582.47586	0.22563
581.5115	0.23609
580.54714	0.24621
579.58277	0.2557
578.61841	0.26434
577.65404	0.27197
576.68968	0.27843
575.72532	0.28357
574.76095	0.28727
573.79659	0.28938
572.83222	0.28982
571.86786	0.2885
570.9035	0.28537
569.93913	0.28044
568.97477	0.27378
568.0104	0.26556
567.04604	0.25603
566.08168	0.24546
565.11731	0.23412
564.15295	0.22232
563.18858	0.21034
562.22422	0.19843
561.25986	0.18679
560.29549	0.17558
559.33113	0.16492
558.36676	0.1549
557.4024	0.14559
556.43804	0.13704
555.47367	0.12929
554.50931	0.12236
553.54494	0.11624
552.58058	0.11092
551.61622	0.10635
550.65185	0.10247
549.68749	0.09923
548.72312	0.09656
547.75876	0.0944
546.7944	0.09272
545.83003	0.09151
544.86567	0.0908
543.9013	0.09069
542.93694	0.09121
541.97258	0.09239
541.00821	0.09424
540.04385	0.09676
539.07948	0.09991
538.11512	0.10364
537.15076	0.10783
536.18639	0.11239
535.22203	0.11718
534.25766	0.1221
533.2933	0.12699
532.32894	0.13173
531.36457	0.13623
530.40021	0.14041
529.43584	0.14416
528.47148	0.14734
527.50712	0.14985
526.54275	0.15158
525.57839	0.15244
524.61402	0.15234
523.64966	0.15128
522.6853	0.14931
521.72093	0.14655
520.75657	0.14311
519.7922	0.13911
518.82784	0.13465
517.86348	0.12983
516.89911	0.12483
515.93475	0.11979
514.97038	0.11485
514.00602	0.1101
513.04166	0.10563
512.07729	0.10153
511.11293	0.09787
510.14856	0.09468
509.1842	0.09198
508.21984	0.0898
507.25547	0.08811
506.29111	0.08686
505.32674	0.08595
504.36238	0.08535
503.39802	0.085
502.43365	0.08486
501.46929	0.08491
500.50492	0.08514
499.54056	0.08555
498.5762	0.08616
497.61183	0.08695
496.64747	0.08788
495.6831	0.0889
494.71874	0.08992
493.75437	0.09093
492.79001	0.0919
491.82565	0.09278
490.86128	0.09349
489.89692	0.09396
488.93255	0.09415
487.96819	0.09403
487.00383	0.09352
486.03946	0.09257
485.0751	0.09112
484.11073	0.08916
483.14637	0.08667
482.18201	0.08372
481.21764	0.08038
480.25328	0.07673
479.28891	0.07287
478.32455	0.06891
477.36019	0.06496
476.39582	0.06113
475.43146	0.05752
474.46709	0.05421
473.50273	0.05123
472.53837	0.04858
471.574	0.04629
470.60964	0.04449
469.64527	0.04329
468.68091	0.04269
467.71655	0.04263
466.75218	0.0431
465.78782	0.04411
464.82345	0.04561
463.85909	0.04751
462.89473	0.0497
461.93036	0.05211
460.966	0.05474
460.00163	0.05755
459.03727	0.06045
458.07291	0.06329
457.10854	0.06591
456.14418	0.06824
455.17981	0.07023
454.21545	0.07175
453.25109	0.07267
452.28672	0.07289
451.32236	0.07238
450.35799	0.07113
449.39363	0.06915
448.42927	0.06652
447.4649	0.06335
446.50054	0.05974
445.53617	0.05575
444.57181	0.05142
443.60745	0.04688
442.64308	0.04231
441.67872	0.03788
440.71435	0.03358
439.74999	0.02948
438.78563	0.02569
437.82126	0.02238
436.8569	0.01961
435.89253	0.0173
434.92817	0.01542
433.96381	0.014
432.99944	0.01317
432.03508	0.01296
431.07071	0.01329
430.10635	0.01414
429.14199	0.01553
428.17762	0.01749
427.21326	0.01996
426.24889	0.02283
425.28453	0.026
424.32017	0.02944
423.3558	0.03309
422.39144	0.0366
421.42707	0.03988
420.46271	0.04287
419.49835	0.04553
418.53398	0.04774
417.56962	0.04936
416.60525	0.05037
415.64089	0.05081
414.67653	0.05069
413.71216	0.04998
412.7478	0.04866
411.78343	0.04679
410.81907	0.04507
409.85471	0.04295
408.89034	0.04043
407.92598	0.03752
406.96161	0.03421
405.99725	0.03051
405.03289	0.02641
404.06852	0.02192
403.10416	0.01703
402.13979	0.01175
401.17543	0.00607
400.21107	0