401	0
402	0.0025
403	0.00896
404	0.01019
405	0.00774
406	0.00985
407	0.01744
408	0.02244
409	0.02193
410	0.02197
411	0.02667
412	0.03283
413	0.03473
414	0.03308
415	0.03558
416	0.04232
417	0.044
418	0.0382
419	0.03715
420	0.04454
421	0.04873
422	0.04717
423	0.04408
424	0.04494
425	0.04847
426	0.04846
427	0.04587
428	0.04686
429	0.0529
430	0.05884
431	0.05834
432	0.05251
433	0.05212
434	0.06069
435	0.06513
436	0.06013
437	0.05631
438	0.05845
439	0.06221
440	0.06392
441	0.06215
442	0.0609
443	0.06398
444	0.06628
445	0.06328
446	0.05966
447	0.06152
448	0.06676
449	0.06896
450	0.06758
451	0.06705
452	0.07006
453	0.07377
454	0.07319
455	0.06923
456	0.06811
457	0.07293
458	0.07537
459	0.06973
460	0.06531
461	0.06835
462	0.07524
463	0.0773
464	0.07532
465	0.077
466	0.0842
467	0.09033
468	0.08944
469	0.08563
470	0.08747
471	0.09413
472	0.09823
473	0.09676
474	0.09646
475	0.10165
476	0.10671
477	0.10632
478	0.1034
479	0.10418
480	0.10927
481	0.11186
482	0.10795
483	0.10436
484	0.10883
485	0.11561
486	0.11494
487	0.109
488	0.10728
489	0.11234
490	0.11674
491	0.11525
492	0.11223
493	0.11405
494	0.11917
495	0.12051
496	0.11583
497	0.11173
498	0.11365
499	0.11768
500	0.11771
501	0.11464
502	0.11456
503	0.11901
504	0.12228
505	0.12099
506	0.11899
507	0.12184
508	0.12768
509	0.12947
510	0.1262
511	0.12478
512	0.1299
513	0.13669
514	0.13773
515	0.13386
516	0.13402
517	0.14172
518	0.14873
519	0.14831
520	0.14588
521	0.14878
522	0.15506
523	0.15801
524	0.15589
525	0.15452
526	0.15882
527	0.16386
528	0.16256
529	0.15731
530	0.15597
531	0.16005
532	0.16222
533	0.15838
534	0.15386
535	0.15519
536	0.16081
537	0.16324
538	0.16019
539	0.15784
540	0.16077
541	0.16476
542	0.16347
543	0.15944
544	0.16001
545	0.16636
546	0.17085
547	0.1681
548	0.16399
549	0.16594
550	0.17173
551	0.17373
552	0.17071
553	0.16887
554	0.17211
555	0.1764
556	0.17582
557	0.17183
558	0.17159
559	0.17663
560	0.1807
561	0.17976
562	0.17834
563	0.18227
564	0.18941
565	0.1927
566	0.19052
567	0.18959
568	0.19536
569	0.20331
570	0.20514
571	0.20195
572	0.20166
573	0.20731
574	0.21303
575	0.2133
576	0.21108
577	0.21291
578	0.21817
579	0.22064
580	0.21823
581	0.2155
582	0.21663
583	0.21908
584	0.21811
585	0.21441
586	0.21325
587	0.2166
588	0.22024
589	0.21958
590	0.21604
591	0.2144
592	0.21546
593	0.21463
594	0.20956
595	0.20397
596	0.2029
597	0.20422
598	0.20223
599	0.19714
600	0.19395
601	0.19493
602	0.19697
603	0.19607
604	0.19318
605	0.19269
606	0.19535
607	0.19693
608	0.19486
609	0.19172
610	0.19111
611	0.19223
612	0.19126
613	0.18697
614	0.1825
615	0.18101
616	0.1823
617	0.18165
618	0.17417
619	0.16478
620	0.16046
621	0.15845
622	0.15343
623	0.14711
624	0.14392
625	0.14343
626	0.14169
627	0.13757
628	0.13413
629	0.13364
630	0.13424
631	0.13302
632	0.13
633	0.12765
634	0.1273
635	0.1274
636	0.12564
637	0.12289
638	0.12207
639	0.12341
640	0.12419
641	0.12317
642	0.1221
643	0.1233
644	0.12631
645	0.12817
646	0.12811
647	0.12926
648	0.13361
649	0.13749
650	0.13682
651	0.13432
652	0.13432
653	0.13661
654	0.13814
655	0.13708
656	0.13485
657	0.13391
658	0.1344
659	0.13432
660	0.13241
661	0.1301
662	0.12906
663	0.12824
664	0.12581
665	0.12355
666	0.12655
667	0.14389
668	0.18063
669	0.18174
670	0.15368
671	0.13294
672	0.12559
673	0.12516
674	0.12508
675	0.12377
676	0.12344
677	0.12474
678	0.12511
679	0.12337
680	0.1214
681	0.12121
682	0.12205
683	0.12197
684	0.12018
685	0.11796
686	0.11652
687	0.11561
688	0.11411
689	0.11144
690	0.10864
691	0.10715
692	0.10677
693	0.10617
694	0.105
695	0.10426
696	0.10492
697	0.10666
698	0.10809
699	0.10899
700	0.11079
701	0.11437
702	0.11843
703	0.12084
704	0.12127
705	0.12179
706	0.12347
707	0.12463
708	0.12348
709	0.12065
710	0.11795
711	0.11598
712	0.1133
713	0.1085
714	0.1025
715	0.09778
716	0.09514
717	0.09277
718	0.08977
719	0.08823
720	0.08827
721	0.08555
722	0.07913
723	0.07266
724	0.0687
725	0.06774
726	0.06818
727	0.06713
728	0.06398
729	0.06163
730	0.06221
731	0.06349
732	0.06233
733	0.06015
734	0.06042
735	0.0633
736	0.066
737	0.06679
738	0.06769
739	0.07157
740	0.07817
741	0.08465
742	0.09005
743	0.09682
744	0.10626
745	0.11492
746	0.11858
747	0.1184
748	0.11933
749	0.1237
750	0.12912
751	0.13241
752	0.13429
753	0.13779
754	0.14353
755	0.14779
756	0.1469
757	0.14261
758	0.13991
759	0.13958
760	0.13709
761	0.13061
762	0.12357
763	0.11938
764	0.11652
765	0.11075
766	0.1019
767	0.09412
768	0.08981
769	0.08663
770	0.0814
771	0.07499
772	0.07127
773	0.07157
774	0.07244
775	0.07074
776	0.06803
777	0.06723
778	0.06702
779	0.06327
780	0.05554
781	0.04849
782	0.04574
783	0.04519
784	0.04205
785	0.03553
786	0.0306
787	0.0299
788	0.02965
789	0.02609
790	0.02102
791	0.0189
792	0.02055
793	0.02192
794	0.01993
795	0.01697
796	0.01704
797	0.01975
798	0.02083
799	0.01853
800	0.0163
801	0.0174
802	0.01966
803	0.0186
804	0.01429
805	0.01161
806	0.01307
807	0.01516
808	0.01347
809	0.00971
810	0.0091
811	0.01278
812	0.01592
813	0.01508
814	0.01387
815	0.01682
816	0.02294
817	0.02716
818	0.02764
819	0.02809
820	0.03154
821	0.03535
822	0.03523
823	0.03182
824	0.02998
825	0.03207
826	0.03481
827	0.03474
828	0.03392
829	0.03696
830	0.04401
831	0.05074
832	0.05485
833	0.05944
834	0.06806
835	0.07871
836	0.08624
837	0.08973
838	0.09351
839	0.10068
840	0.10831
841	0.11159
842	0.11107
843	0.11168
844	0.11557
845	0.11945
846	0.12006
847	0.11934
848	0.12145
849	0.12664
850	0.13085
851	0.13197
852	0.13282
853	0.13656
854	0.14181
855	0.14462
856	0.14432
857	0.14444
858	0.14712
859	0.1494
860	0.14693
861	0.14008
862	0.13356
863	0.12979
864	0.12547
865	0.11711
866	0.10706
867	0.10045
868	0.09762
869	0.09427
870	0.08806
871	0.08172
872	0.07865
873	0.0774
874	0.07345
875	0.06593
876	0.05901
877	0.05594
878	0.055
879	0.05306
880	0.05098
881	0.05277
882	0.06026
883	0.0706
884	0.07932
885	0.0847
886	0.08768
887	0.08756
888	0.08157
889	0.07026
890	0.05903
891	0.05276
892	0.05053
893	0.04801
894	0.04364
895	0.04037
896	0.04063
897	0.04251
898	0.04283
899	0.04187
900	0.04282
901	0.04704
902	0.0521
903	0.05535
904	0.05761
905	0.06175
906	0.06819
907	0.0743
908	0.0782
909	0.08157
910	0.08703
911	0.09429
912	0.10057
913	0.10498
914	0.10999
915	0.11764
916	0.12674
917	0.13446
918	0.14024
919	0.1466
920	0.15508
921	0.16361
922	0.1699
923	0.17488
924	0.1808
925	0.18793
926	0.19443
927	0.19922
928	0.20351
929	0.20901
930	0.21552
931	0.22101
932	0.22438
933	0.227
934	0.23095
935	0.23644
936	0.24233
937	0.24828
938	0.25518
939	0.26342
940	0.27197
941	0.27949
942	0.28607
943	0.29266
944	0.29904
945	0.30313
946	0.3034
947	0.30057
948	0.29648
949	0.29143
950	0.28468
951	0.27591
952	0.26559
953	0.25435
954	0.24259
955	0.23082
956	0.21989
957	0.21078
958	0.20414
959	0.20002
960	0.19813
961	0.19826
962	0.20048
963	0.20477
964	0.21101
965	0.21889
966	0.22813
967	0.23842
968	0.24938
969	0.26069
970	0.27233
971	0.28422
972	0.296
973	0.30729
974	0.31844
975	0.33013
976	0.3421
977	0.35361
978	0.3647
979	0.37601
980	0.3879
981	0.39988
982	0.41145
983	0.4229
984	0.43485
985	0.44677
986	0.4571
987	0.46533
988	0.47299
989	0.48209
990	0.49323
991	0.50577
992	0.51945
993	0.53511
994	0.55326
995	0.57293
996	0.59266
997	0.61222
998	0.63273
999	0.65458
1000	0.6765
1001	0.69736
1002	0.71745
1003	0.73766
1004	0.75819
1005	0.77784
1006	0.79531
1007	0.81093
1008	0.82566
1009	0.83903
1010	0.84945
1011	0.85641
1012	0.86136
1013	0.86576
1014	0.86901
1015	0.86975
1016	0.86894
1017	0.86978
1018	0.87405
1019	0.88014
1020	0.88572
1021	0.89109
1022	0.89838
1023	0.90832
1024	0.91898
1025	0.92839
1026	0.93706
1027	0.9464
1028	0.95601
1029	0.964
1030	0.97004
1031	0.97578
1032	0.98213
1033	0.98816
1034	0.99224
1035	0.99415
1036	0.9954
1037	0.99752
1038	0.99969
1039	1
1040	0.99852
1041	0.99704
1042	0.99617
1043	0.99398
1044	0.98851
1045	0.98025
1046	0.97072
1047	0.95972
1048	0.94631
1049	0.93115
1050	0.91682
1051	0.90528
1052	0.89593
1053	0.88699
1054	0.87821
1055	0.87111
1056	0.86645
1057	0.86279
1058	0.85838
1059	0.85331
1060	0.84887
1061	0.8457
1062	0.84277
1063	0.8387
1064	0.83368
1065	0.82829
1066	0.82219
1067	0.81493
1068	0.8072
1069	0.8008
1070	0.7971
1071	0.7959
1072	0.79599
1073	0.79735
1074	0.80183
1075	0.8102
1076	0.82042
1077	0.83004
1078	0.83881
1079	0.84807
1080	0.85704
1081	0.86222
1082	0.86148
1083	0.85623
1084	0.84933
1085	0.84133
1086	0.83096
1087	0.81819
1088	0.80476
1089	0.79181
1090	0.77885
1091	0.76518
1092	0.75135
1093	0.73909
1094	0.7291
1095	0.72038
1096	0.71218
1097	0.70526
1098	0.70059
1099	0.69806
1100	0.69659
1101	0.6951
1102	0.69342
1103	0.69182
1104	0.68959
1105	0.68544
1106	0.67938
1107	0.67325
1108	0.66869
1109	0.66518
1110	0.66173
1111	0.6586
1112	0.65657
1113	0.65561
1114	0.65454
1115	0.65219
1116	0.64869
1117	0.64479
1118	0.64045
1119	0.63471
1120	0.62752
1121	0.62016
1122	0.61381
1123	0.60818
1124	0.60238
1125	0.59621
1126	0.59042
1127	0.58537
1128	0.58022
1129	0.57424
1130	0.56777
1131	0.56174
1132	0.55658
1133	0.55174
1134	0.5466
1135	0.54172
1136	0.53825
1137	0.53644
1138	0.53548
1139	0.53486
1140	0.53538
1141	0.53791
1142	0.54239
1143	0.5477
1144	0.55336
1145	0.56018
1146	0.56875
1147	0.57845
1148	0.58823
1149	0.59788
1150	0.60781
1151	0.61798
1152	0.62762
1153	0.63598
1154	0.64293
1155	0.6484
1156	0.65185
1157	0.65255
1158	0.65037
1159	0.64585
1160	0.63945
1161	0.63091
1162	0.62
1163	0.60743
1164	0.5943
1165	0.58095
1166	0.56717
1167	0.55297
1168	0.53879
1169	0.52481
1170	0.511
1171	0.49722
1172	0.48359
1173	0.47034
1174	0.45688
1175	0.4425
1176	0.42731
1177	0.41208
1178	0.39731
1179	0.38309
1180	0.36937
1181	0.35641
1182	0.34485
1183	0.33481
1184	0.32575
1185	0.31738
1186	0.31021
1187	0.30469
1188	0.30066
1189	0.29703
1190	0.29329
1191	0.28986
1192	0.28683
1193	0.28329
1194	0.27882
1195	0.27426
1196	0.27091
1197	0.26911
1198	0.2681
1199	0.26738
1200	0.26754
1201	0.26958
1202	0.27352
1203	0.27826
1204	0.28324
1205	0.28883
1206	0.29528
1207	0.30155
1208	0.30603
1209	0.3084
1210	0.30978
1211	0.31079
1212	0.31063
1213	0.30832
1214	0.30433
1215	0.30025
1216	0.29649
1217	0.2918
1218	0.28527
1219	0.27806
1220	0.27223
1221	0.26805
1222	0.26418
1223	0.26004
1224	0.25701
1225	0.25643
1226	0.25774
1227	0.25936
1228	0.26101
1229	0.26406
1230	0.26956
1231	0.27612
1232	0.281
1233	0.28288
1234	0.28314
1235	0.28355
1236	0.28391
1237	0.28326
1238	0.28226
1239	0.2826
1240	0.28435
1241	0.28602
1242	0.28671
1243	0.28756
1244	0.29036
1245	0.29493
1246	0.29899
1247	0.30143
1248	0.30341
1249	0.3055
1250	0.30613
1251	0.30384
1252	0.2996
1253	0.29614
1254	0.29494
1255	0.29495
1256	0.29463
1257	0.29401
1258	0.29411
1259	0.29437
1260	0.29239
1261	0.28711
1262	0.28066
1263	0.27574
1264	0.27256
1265	0.26935
1266	0.2652
1267	0.26144
1268	0.2595
1269	0.25837
1270	0.2558
1271	0.25129
1272	0.24685
1273	0.24418
1274	0.24223
1275	0.23905
1276	0.23499
1277	0.23206
1278	0.23094
1279	0.23012
1280	0.22818
1281	0.22593
1282	0.22529
1283	0.22641
1284	0.22742
1285	0.22739
1286	0.22752
1287	0.22931
1288	0.23231
1289	0.23494
1290	0.23686
1291	0.23944
1292	0.24374
1293	0.24879
1294	0.25278
1295	0.25569
1296	0.25922
1297	0.26405
1298	0.26847
1299	0.27079
1300	0.27163
1301	0.27303
1302	0.27524
1303	0.27641
1304	0.27548
1305	0.2737
1306	0.27291
1307	0.27296
1308	0.27233
1309	0.27072
1310	0.26995
1311	0.27137
1312	0.27416
1313	0.27674
1314	0.27925
1315	0.28338
1316	0.28981
1317	0.29743
1318	0.30477
1319	0.31188
1320	0.31987
1321	0.32902
1322	0.33824
1323	0.34654
1324	0.35466
1325	0.36392
1326	0.37386
1327	0.38233
1328	0.3883
1329	0.39264
1330	0.39609
1331	0.39779
1332	0.39656
1333	0.39265
1334	0.38781
1335	0.38339
1336	0.37869
1337	0.37272
1338	0.36627
1339	0.35987
1340	0.35311
1341	0.34623
1342	0.33992
1343	0.33437
1344	0.33007
1345	0.32702
1346	0.32422
1347	0.32137
1348	0.31937
1349	0.31873
1350	0.3184
1351	0.31691
1352	0.31385
1353	0.3106
1354	0.30827
1355	0.30618
1356	0.30375
1357	0.30197
1358	0.30183
1359	0.30369
1360	0.30647
1361	0.30912
1362	0.31152
1363	0.31382
1364	0.31611
1365	0.31835
1366	0.32047
1367	0.32312
1368	0.32701
1369	0.33179
1370	0.33675
1371	0.34216
1372	0.34875
1373	0.35654
1374	0.36389
1375	0.36824
1376	0.36986
1377	0.37066
1378	0.37083
1379	0.36985
1380	0.36792
1381	0.36628
1382	0.36611
1383	0.3672
1384	0.36866
1385	0.37012
1386	0.37176
1387	0.37253
1388	0.37182
1389	0.37091
1390	0.37018
1391	0.36968
1392	0.3703
1393	0.37216
1394	0.37374
1395	0.37376
1396	0.37383
1397	0.37562
1398	0.37784
1399	0.37815
1400	0.37704
1401	0.37627
1402	0.37534
1403	0.37386
1404	0.37142
1405	0.36665
1406	0.36194
1407	0.3596
1408	0.35831
1409	0.35784
1410	0.35845
1411	0.35869
1412	0.35608
1413	0.35039
1414	0.34366
1415	0.33764
1416	0.33269
1417	0.32856
1418	0.32457
1419	0.31775
1420	0.3093
1421	0.3047
1422	0.30277
1423	0.30022
1424	0.29577
1425	0.29135
1426	0.28851
1427	0.2863
1428	0.2845
1429	0.28262
1430	0.27936
1431	0.276
1432	0.27374
1433	0.27155
1434	0.27
1435	0.27045
1436	0.27006
1437	0.26541
1438	0.26276
1439	0.2635
1440	0.26487
1441	0.26665
1442	0.26889
1443	0.27133
1444	0.27354
1445	0.27522
1446	0.27675
1447	0.27806
1448	0.2784
1449	0.27856
1450	0.27974
1451	0.28161
1452	0.28363
1453	0.28615
1454	0.28951
1455	0.29348
1456	0.29676
1457	0.29726
1458	0.2941
1459	0.28974
1460	0.28689
1461	0.28587
1462	0.28578
1463	0.28623
1464	0.28579
1465	0.28119
1466	0.27527
1467	0.27148
1468	0.26723
1469	0.26232
1470	0.25859
1471	0.25608
1472	0.25085
1473	0.2401
1474	0.23044
1475	0.22584
1476	0.22147
1477	0.21669
1478	0.21454
1479	0.21483
1480	0.21556
1481	0.21385
1482	0.2083
1483	0.20115
1484	0.19432
1485	0.18884
1486	0.18434
1487	0.17781
1488	0.17032
1489	0.16558
1490	0.15791
1491	0.14685
1492	0.14046
1493	0.13693
1494	0.13511
1495	0.13469
1496	0.1328
1497	0.1291
1498	0.12655
1499	0.124
1500	0.12189
1501	0.12083
1502	0.1196
1503	0.1195
1504	0.12224
1505	0.12762
1506	0.1323
1507	0.12911
1508	0.12434
1509	0.12268
1510	0.12273
1511	0.12339
1512	0.12335
1513	0.12378
1514	0.12675
1515	0.13149
1516	0.13596
1517	0.13695
1518	0.13792
1519	0.14295
1520	0.14989
1521	0.15647
1522	0.15976
1523	0.16328
1524	0.16876
1525	0.17396
1526	0.17781
1527	0.18031
1528	0.18113
1529	0.18021
1530	0.17871
1531	0.17718
1532	0.17577
1533	0.17223
1534	0.16458
1535	0.15834
1536	0.15587
1537	0.15651
1538	0.16005
1539	0.1631
1540	0.1575
1541	0.15195
1542	0.14807
1543	0.14579
1544	0.14439
1545	0.13892
1546	0.13293
1547	0.13209
1548	0.1339
1549	0.13517
1550	0.13367
1551	0.13226
1552	0.13476
1553	0.13856
1554	0.13897
1555	0.13635
1556	0.13674
1557	0.14101
1558	0.14582
1559	0.13932
1560	0.12766
1561	0.12444
1562	0.12572
1563	0.1268
1564	0.12595
1565	0.12235
1566	0.11956
1567	0.12014
1568	0.12244
1569	0.1219
1570	0.11456
1571	0.11084
1572	0.11092
1573	0.11116
1574	0.11206
1575	0.11382
1576	0.11354
1577	0.11035
1578	0.10886
1579	0.1088
1580	0.10987
1581	0.11237
1582	0.11533
1583	0.11793
1584	0.12062
1585	0.12421
1586	0.12838
1587	0.13182
1588	0.13399
1589	0.13572
1590	0.13825
1591	0.14142
1592	0.14414
1593	0.14625
1594	0.14845
1595	0.15117
1596	0.15387
1597	0.15565
1598	0.15661
1599	0.15814
1600	0.16077
1601	0.1636
1602	0.16546
1603	0.1664
1604	0.16779
1605	0.17044
1606	0.1735
1607	0.17588
1608	0.17797
1609	0.18051
1610	0.18318
1611	0.1853
1612	0.18669
1613	0.188
1614	0.1906
1615	0.19468
1616	0.19706
1617	0.19401
1618	0.19183
1619	0.19272
1620	0.19444
1621	0.19665
1622	0.1994
1623	0.20089
1624	0.20012
1625	0.20094
1626	0.20324
1627	0.20529
1628	0.20624
1629	0.20709
1630	0.20822
1631	0.20884
1632	0.20941
1633	0.21145
1634	0.21468
1635	0.2148
1636	0.20975
1637	0.20508
1638	0.20275
1639	0.20142
1640	0.20052
1641	0.19965
1642	0.1995
1643	0.20086
1644	0.20406
1645	0.20839
1646	0.2127
1647	0.21565
1648	0.21822
1649	0.22326
1650	0.2315
1651	0.24192
1652	0.25429
1653	0.2731
1654	0.28799
1655	0.28779
1656	0.28503
1657	0.27996
1658	0.27341
1659	0.26742
1660	0.26359
1661	0.26249
1662	0.26219
1663	0.26022
1664	0.25805
1665	0.25756
1666	0.25843
1667	0.26084
1668	0.26368
1669	0.26365
1670	0.26153
1671	0.25998
1672	0.25888
1673	0.25952
1674	0.26115
1675	0.25945
1676	0.25527
1677	0.25483
1678	0.25582
1679	0.25627
1680	0.25508
1681	0.25391
1682	0.25597
1683	0.25941
1684	0.25626
1685	0.24356
1686	0.24022
1687	0.24076
1688	0.23993
1689	0.23776
1690	0.23541
1691	0.23396
1692	0.23404
1693	0.23598
1694	0.23978
1695	0.24427
1696	0.24796
1697	0.2523
1698	0.25796
1699	0.26306
1700	0.25989
1701	0.25059
1702	0.24958
1703	0.2497
1704	0.24746
1705	0.24393
1706	0.24035
1707	0.2371
1708	0.23714
1709	0.24011
1710	0.24436
1711	0.25009
1712	0.25816
1713	0.2691
1714	0.28336
1715	0.3006
1716	0.31677
1717	0.32804
1718	0.33293
1719	0.33336
1720	0.33414
1721	0.33582
1722	0.33744
1723	0.33767
1724	0.33542
1725	0.33132
1726	0.32594
1727	0.32007
1728	0.3155
1729	0.31184
1730	0.3067
1731	0.30319
1732	0.30442
1733	0.30653
1734	0.30005
1735	0.28869
1736	0.28666
1737	0.28682
1738	0.28696
1739	0.28564
1740	0.28093
1741	0.27716
1742	0.2767
1743	0.27523
1744	0.27201
1745	0.27013
1746	0.27016
1747	0.27049
1748	0.26974
1749	0.26841
1750	0.26754
1751	0.26534
1752	0.26278
1753	0.26262
1754	0.26412
1755	0.26663
1756	0.26909
1757	0.27002
1758	0.27109
1759	0.27409
1760	0.27882
1761	0.28332
1762	0.28557
1763	0.28737
1764	0.29049
1765	0.29482
1766	0.30092
1767	0.30891
1768	0.3191
1769	0.33081
1770	0.34019
1771	0.34279
1772	0.33219
1773	0.31434
1774	0.30454
1775	0.30196
1776	0.30153
1777	0.30369
1778	0.30904
1779	0.31693
1780	0.32607
1781	0.33484
1782	0.3423
1783	0.34863
1784	0.35315
1785	0.35438
1786	0.35287
1787	0.34999
1788	0.34599
1789	0.34196
1790	0.33818
1791	0.33264
1792	0.32253
1793	0.3088
1794	0.2992
1795	0.29234
1796	0.28285
1797	0.27269
1798	0.26513
1799	0.25748
1800	0.24754
1801	0.23722
1802	0.22695
1803	0.21707
1804	0.20872
1805	0.20074
1806	0.19239
1807	0.18392
1808	0.17597
1809	0.16956
1810	0.16287
1811	0.15386
1812	0.14537
1813	0.13905
1814	0.13353
1815	0.12817
1816	0.12298
1817	0.11808
1818	0.11358
1819	0.10962
1820	0.10582
1821	0.10218
1822	0.09929
1823	0.09757
1824	0.09602
1825	0.09231
1826	0.08781
1827	0.08619
1828	0.08684
1829	0.086
1830	0.0812
1831	0.07652
1832	0.07462
1833	0.0734
1834	0.07178
1835	0.0703
1836	0.06916
1837	0.06777
1838	0.06595
1839	0.06425
1840	0.06289
1841	0.06225
1842	0.06308
1843	0.06414
1844	0.06189
1845	0.05739
1846	0.05618
1847	0.05599
1848	0.05455
1849	0.05273
1850	0.05159
1851	0.05099
1852	0.05038
1853	0.04952
1854	0.04849
1855	0.04763
1856	0.04711
1857	0.04675
1858	0.0461
1859	0.04527
1860	0.04465
1861	0.04421
1862	0.04365
1863	0.04296
1864	0.04261
1865	0.04297
1866	0.04401
1867	0.04511
1868	0.04509
1869	0.04269
1870	0.03993
1871	0.03898
1872	0.03862
1873	0.03807
1874	0.03757
1875	0.03731
1876	0.03709
1877	0.0367
1878	0.03619
1879	0.03579
1880	0.03551
1881	0.03521
1882	0.03488
1883	0.03465
1884	0.03448
1885	0.03413
1886	0.03361
1887	0.03353
1888	0.03404
1889	0.0338
1890	0.03209
1891	0.03081
1892	0.03051
1893	0.03071
1894	0.03106
1895	0.03048
1896	0.02919
1897	0.02847
1898	0.02829
1899	0.02812
1900	0.02772
1901	0.02721
1902	0.0268
1903	0.02662
1904	0.02642
1905	0.02605
1906	0.0258
1907	0.02587
1908	0.02608
1909	0.02595
1910	0.02512
1911	0.02419
1912	0.02382
1913	0.02372
1914	0.02345
1915	0.02335
1916	0.02401
1917	0.0247
1918	0.02369
1919	0.02219
1920	0.02204
1921	0.02285
1922	0.02344
1923	0.02253
1924	0.02112
1925	0.02052
1926	0.02044
1927	0.02053
1928	0.0205
1929	0.02016
1930	0.01983
1931	0.01985
1932	0.02003
1933	0.01993
1934	0.01951
1935	0.01918
1936	0.0191
1937	0.01911
1938	0.01894
1939	0.01879
1940	0.01926
1941	0.02029
1942	0.02034
1943	0.01892
1944	0.0181
1945	0.01818
1946	0.01816
1947	0.01779
1948	0.01732
1949	0.01707
1950	0.01708
1951	0.01717
1952	0.01706
1953	0.0168
1954	0.0166
1955	0.01653
1956	0.01655
1957	0.01639
1958	0.01603
1959	0.01583
1960	0.01597
1961	0.01606
1962	0.01576
1963	0.0154
1964	0.01549
1965	0.01613
1966	0.01664
1967	0.01622
1968	0.01534
1969	0.01502
1970	0.01517
1971	0.01513
1972	0.01481
1973	0.01453
1974	0.01458
1975	0.01475
1976	0.01466
1977	0.01425
1978	0.014
1979	0.01405
1980	0.01413
1981	0.01391
1982	0.01354
1983	0.01338
1984	0.01349
1985	0.01362
1986	0.0136
1987	0.01359
1988	0.01354
1989	0.01358
1990	0.01392
1991	0.01403
1992	0.01337
1993	0.01264
1994	0.01251
1995	0.01245
1996	0.01219
1997	0.01204
1998	0.0121
1999	0.01218
2000	0.01197
2001	0.0117
2002	0.01165
2003	0.01185
2004	0.01193
2005	0.01168
2006	0.01141
2007	0.01145
2008	0.01164
2009	0.01165
2010	0.01144
2011	0.01132
2012	0.01146
2013	0.0117
2014	0.01191
2015	0.01213
2016	0.01232
2017	0.01231
2018	0.01217
2019	0.01198
2020	0.01184
2021	0.01194
2022	0.01218
2023	0.01236
2024	0.01238
2025	0.01241
2026	0.01261
2027	0.01293
2028	0.01312
2029	0.01309
2030	0.01306
2031	0.0133
2032	0.01361
2033	0.01368
2034	0.01356
2035	0.01355
2036	0.0138
2037	0.01406
2038	0.01413
2039	0.01423
2040	0.01452
2041	0.01484
2042	0.0149
2043	0.01479
2044	0.01471
2045	0.01482
2046	0.01505
2047	0.01517
2048	0.01513
2049	0.01515
2050	0.01539
2051	0.01566
2052	0.01575
2053	0.01567
2054	0.01572
2055	0.01593
2056	0.0162
2057	0.01629
2058	0.0162
2059	0.01625
2060	0.01647
2061	0.01662
2062	0.01663
2063	0.01669
2064	0.01686
2065	0.01688
2066	0.01676
2067	0.01669
2068	0.01668
2069	0.01676
2070	0.01687
2071	0.01687
2072	0.01675
2073	0.01667
2074	0.01673
2075	0.01692
2076	0.01704
2077	0.01702
2078	0.01687
2079	0.01679
2080	0.01678
2081	0.01668
2082	0.01652
2083	0.01644
2084	0.0165
2085	0.01659
2086	0.01659
2087	0.01653
2088	0.0166
2089	0.0167
2090	0.01664
2091	0.01648
2092	0.01638
2093	0.01639
2094	0.0164
2095	0.01635
2096	0.01629
2097	0.01625
2098	0.01616
2099	0.01603
2100	0.01595
2101	0.01595
2102	0.01599
2103	0.01602
2104	0.016
2105	0.01596
2106	0.0159
2107	0.01589
2108	0.01591
2109	0.01592
2110	0.01589
2111	0.01581
2112	0.01577
2113	0.01574
2114	0.01578
2115	0.01581
2116	0.0158
2117	0.01579
2118	0.01574
2119	0.01565
2120	0.01558
2121	0.01554
2122	0.01548
2123	0.01541
2124	0.0154
2125	0.01547
2126	0.01551
2127	0.01543
2128	0.01529
2129	0.01527
2130	0.01535
2131	0.01539
2132	0.01532
2133	0.01525
2134	0.01526
2135	0.01534
2136	0.01535
2137	0.0152
2138	0.01506
2139	0.01509
2140	0.01515
2141	0.01514
2142	0.01502
2143	0.015
2144	0.01515
2145	0.01527
2146	0.01518
2147	0.01499
2148	0.01494
2149	0.0151
2150	0.01524
2151	0.01518
2152	0.01502
2153	0.01502
2154	0.01513
2155	0.01514
2156	0.01497
2157	0.01482
2158	0.01487
2159	0.01504
2160	0.01499
2161	0.01469
2162	0.01447
2163	0.01453
2164	0.01473
2165	0.01464
2166	0.01434
2167	0.01422
2168	0.01445
2169	0.01458
2170	0.01439
2171	0.01405
2172	0.01396
2173	0.01408
2174	0.01405
2175	0.01374
2176	0.01348
2177	0.0136
2178	0.01388
2179	0.01382
2180	0.01342
2181	0.01316
2182	0.01326
2183	0.0134
2184	0.01322
2185	0.0129
2186	0.01276
2187	0.01293
2188	0.01311
2189	0.0129
2190	0.01247
2191	0.01232
2192	0.01251
2193	0.01252
2194	0.01228
2195	0.012
2196	0.01196
2197	0.01213
2198	0.01215
2199	0.01188
2200	0.01163
2201	0.01169
2202	0.01191
2203	0.0119
2204	0.01162
2205	0.0114
2206	0.01146
2207	0.01157
2208	0.01141
2209	0.01108
2210	0.01098
2211	0.01122
2212	0.01143
2213	0.01125
2214	0.01092
2215	0.01085
2216	0.01111
2217	0.01132
2218	0.01121
2219	0.01096
2220	0.01101
2221	0.01126
2222	0.01129
2223	0.01098
2224	0.01078
2225	0.01097
2226	0.01127
2227	0.01127
2228	0.01101
2229	0.0109
2230	0.01108
2231	0.01125
2232	0.01113
2233	0.01084
2234	0.01074
2235	0.01096
2236	0.01116
2237	0.01105
2238	0.01083
2239	0.01085
2240	0.01111
2241	0.01123
2242	0.01102
2243	0.01081
2244	0.01093
2245	0.01129
2246	0.01147
2247	0.01136
2248	0.01135
2249	0.01163
2250	0.01201
2251	0.0122
2252	0.01217
2253	0.01228
2254	0.01262
2255	0.01294
2256	0.01303
2257	0.01307
2258	0.01337
2259	0.01384
2260	0.01418
2261	0.01427
2262	0.01437
2263	0.01472
2264	0.01515
2265	0.01526
2266	0.01512
2267	0.01508
2268	0.01537
2269	0.01568
2270	0.01561
2271	0.01535
2272	0.01532
2273	0.01552
2274	0.01558
2275	0.01533
2276	0.01487
2277	0.01454
2278	0.01431
2279	0.01397
2280	0.01332
2281	0.0126
2282	0.01215
2283	0.01209
2284	0.01256
2285	0.01351
2286	0.01483
2287	0.01461
2288	0.01462
2289	0.01464
2290	0.01466
2291	0.01468
2292	0.01469
2293	0.01471
2294	0.01471
2295	0.0147
2296	0.0147
2297	0.01469
2298	0.01469
2299	0.01468
2300	0.01468
2301	0.01468
2302	0.01467
2303	0.01467
2304	0.01466
2305	0.01466
2306	0.01465
2307	0.01465
2308	0.01464
2309	0.01464
2310	0.01463
2311	0.01463
2312	0.01463
2313	0.01462
2314	0.01462
2315	0.01461
2316	0.01461
2317	0.0146
2318	0.0146
2319	0.01459
2320	0.01459
2321	0.01459
2322	0.01458
2323	0.01458
2324	0.01457
2325	0.01457
2326	0.01456
2327	0.01456
2328	0.01455
2329	0.01455
2330	0.01455
2331	0.01454
2332	0.01454
2333	0.01453
2334	0.01453
2335	0.01452
2336	0.01452
2337	0.01451
2338	0.01451
2339	0.01451
2340	0.0145
2341	0.0145
2342	0.01449
2343	0.01449
2344	0.01448
2345	0.01448
2346	0.01447
2347	0.01447
2348	0.01446
2349	0.01446
2350	0.01446
2351	0.01445
2352	0.01445
2353	0.01444
2354	0.01444
2355	0.01443
2356	0.01443
2357	0.01442
2358	0.01442
2359	0.01442
2360	0.01441
2361	0.01441
2362	0.0144
2363	0.0144
2364	0.01439
2365	0.01439
2366	0.01438
2367	0.01438
2368	0.01438
2369	0.01437
2370	0.01437
2371	0.01436
2372	0.01436
2373	0.01435
2374	0.01435
2375	0.01434
2376	0.01434
2377	0.01433
2378	0.01433
2379	0.01433
2380	0.01432
2381	0.01432
2382	0.01431
2383	0.01431
2384	0.0143
2385	0.0143
2386	0.01429
2387	0.01429
2388	0.01429
2389	0.01428
2390	0.01428
2391	0.01427
2392	0.01427
2393	0.01426
2394	0.01426
2395	0.01425
2396	0.01425
2397	0.01425
2398	0.01424
2399	0.01424
2400	0.01423
2401	0.01423
2402	0.01422
2403	0.01422
2404	0.01421
2405	0.01421
2406	0.01421
2407	0.0142
2408	0.0142
2409	0.01419
2410	0.01419
2411	0.01418
2412	0.01418
2413	0.01417
2414	0.01417
2415	0.01416
2416	0.01416
2417	0.01416
2418	0.01415
2419	0.01415
2420	0.01414
2421	0.01414
2422	0.01413
2423	0.01413
2424	0.01412
2425	0.01412
2426	0.01412
2427	0.01411
2428	0.01411
2429	0.0141
2430	0.0141
2431	0.01409
2432	0.01409
2433	0.01408
2434	0.01408
2435	0.01408
2436	0.01407
2437	0.01407
2438	0.01406
2439	0.01406
2440	0.01405
2441	0.01405
2442	0.01404
2443	0.01402
2444	0.01391
2445	0.01391
2446	0.01401
2447	0.01405
2448	0.014
2449	0.01397
2450	0.01407
2451	0.01419
2452	0.01423
2453	0.0142
2454	0.0142
2455	0.01427
2456	0.0144
2457	0.01447
2458	0.01442
2459	0.01438
2460	0.01446
2461	0.01461
2462	0.01468
2463	0.01461
2464	0.01447
2465	0.01448
2466	0.01456
2467	0.01455
2468	0.01451
2469	0.01452
2470	0.01454
2471	0.01458
2472	0.01461
2473	0.0146
2474	0.01457
2475	0.01461
2476	0.01464
2477	0.01451
2478	0.01432
2479	0.0143
2480	0.01448
2481	0.01462
2482	0.01453
2483	0.01431
2484	0.01424
2485	0.01437
2486	0.01444
2487	0.01431
2488	0.01416
2489	0.01421
2490	0.01436
2491	0.01449
2492	0.0144
2493	0.01421
2494	0.0142
2495	0.01426
2496	0.0142
2497	0.01406
2498	0.01398
2499	0.01402
2500	0.01407
2501	0.01401
2502	0.01383
2503	0.01374
2504	0.01386
2505	0.01398
2506	0.01392
2507	0.01371
2508	0.01358
2509	0.01359
2510	0.01361
2511	0.01353
2512	0.01344
2513	0.01348
2514	0.01357
2515	0.01352
2516	0.01332
2517	0.0132
2518	0.01337
2519	0.01355
2520	0.01352
2521	0.01327
2522	0.0131
2523	0.01312
2524	0.01319
2525	0.01314
2526	0.013
2527	0.01301
2528	0.01312
2529	0.01318
2530	0.01307
2531	0.01293
2532	0.01293
2533	0.01302
2534	0.01306
2535	0.01298
2536	0.01295
2537	0.01306
2538	0.01323
2539	0.01323
2540	0.01301
2541	0.01289
2542	0.01299
2543	0.01313
2544	0.01302
2545	0.01285
2546	0.01294
2547	0.01327
2548	0.01345
2549	0.0134
2550	0.01333
2551	0.01343
2552	0.01365
2553	0.01378
2554	0.01369
2555	0.01361
2556	0.0137
2557	0.0139
2558	0.01389
2559	0.01364
2560	0.01347
2561	0.01358
2562	0.01374
2563	0.01371
2564	0.01358
2565	0.01357
2566	0.01373
2567	0.0139
2568	0.01389
2569	0.01371
2570	0.01367
2571	0.01382
2572	0.01392
2573	0.0138
2574	0.01361
2575	0.01361
2576	0.01388
2577	0.01411
2578	0.01404
2579	0.0138
2580	0.01376
2581	0.01393
2582	0.01402
2583	0.01389
2584	0.01378
2585	0.0139
2586	0.01413
2587	0.01413
2588	0.01396
2589	0.01382
2590	0.01387
2591	0.01394
2592	0.01385
2593	0.01373
2594	0.01374
2595	0.01393
2596	0.01411
2597	0.01402
2598	0.01384
2599	0.01385
2600	0.01397
2601	0.01404
2602	0.01392
2603	0.01382
2604	0.0139
2605	0.01417
2606	0.01424
2607	0.01405
2608	0.01388
2609	0.01396
2610	0.01417
2611	0.01425
2612	0.01416
2613	0.01417
2614	0.01442
2615	0.0147
2616	0.01471
2617	0.01456
2618	0.01456
2619	0.0148
2620	0.01507
2621	0.01504
2622	0.01484
2623	0.01488
2624	0.0153
2625	0.01564
2626	0.01573
2627	0.01574
2628	0.01581
2629	0.01595
2630	0.0161
2631	0.01613
2632	0.01622
2633	0.01653
2634	0.01694
2635	0.01717
2636	0.01723
2637	0.01739
2638	0.01764
2639	0.01783
2640	0.01788
2641	0.01783
2642	0.01788
2643	0.01814
2644	0.01842
2645	0.01851
2646	0.01851
2647	0.01856
2648	0.01874
2649	0.01892
2650	0.01899
2651	0.01912
2652	0.01935
2653	0.01969
2654	0.01997
2655	0.0201
2656	0.02015
2657	0.02036
2658	0.02073
2659	0.02099
2660	0.02107
2661	0.02117
2662	0.02146
2663	0.02181
2664	0.02203
2665	0.02211
2666	0.02224
2667	0.02247
2668	0.0227
2669	0.0228
2670	0.02284
2671	0.02301
2672	0.02336
2673	0.02368
2674	0.02373
2675	0.02368
2676	0.02383
2677	0.02418
2678	0.0244
2679	0.02447
2680	0.02457
2681	0.02465
2682	0.02462
2683	0.02455
2684	0.02449
2685	0.02451
2686	0.02465
2687	0.02491
2688	0.0251
2689	0.02515
2690	0.02521
2691	0.02536
2692	0.02554
2693	0.02567
2694	0.02577
2695	0.02591
2696	0.02616
2697	0.02651
2698	0.02681
2699	0.02704
2700	0.02718
2701	0.02736
2702	0.02754
2703	0.02762
2704	0.02772
2705	0.02798
2706	0.02832
2707	0.02855
2708	0.02875
2709	0.02903
2710	0.02943
2711	0.0297
2712	0.02978
2713	0.0298
2714	0.02997
2715	0.03034
2716	0.03064
2717	0.03079
2718	0.03093
2719	0.03116
2720	0.03143
2721	0.03175
2722	0.0321
2723	0.03234
2724	0.0326
2725	0.03308
2726	0.03354
2727	0.03364
2728	0.03353
2729	0.03356
2730	0.0338
2731	0.03407
2732	0.03419
2733	0.03425
2734	0.03443
2735	0.03472
2736	0.03503
2737	0.03528
2738	0.03545
2739	0.03562
2740	0.03577
2741	0.03586
2742	0.03595
2743	0.0361
2744	0.03629
2745	0.03646
2746	0.0367
2747	0.03708
2748	0.0374
2749	0.03759
2750	0.03773
2751	0.03776
2752	0.03774
2753	0.03789
2754	0.0382
2755	0.03848
2756	0.03867
2757	0.03892
2758	0.03931
2759	0.03965
2760	0.03979
2761	0.0399
2762	0.04012
2763	0.04049
2764	0.04091
2765	0.04119
2766	0.04137
2767	0.04159
2768	0.04186
2769	0.04216
2770	0.04248
2771	0.04289
2772	0.04344
2773	0.04406
2774	0.04459
2775	0.04499
2776	0.04523
2777	0.04544
2778	0.04576
2779	0.0462
2780	0.04662
2781	0.04708
2782	0.04758
2783	0.04801
2784	0.04832
2785	0.04866
2786	0.04912
2787	0.04986
2788	0.05076
2789	0.05145
2790	0.05182
2791	0.05211
2792	0.05259
2793	0.05307
2794	0.05364
2795	0.05433
2796	0.05505
2797	0.05585
2798	0.05671
2799	0.05731
2800	0.05771
2801	0.05827
2802	0.05903
2803	0.05986
2804	0.06069
2805	0.06153
2806	0.06248
2807	0.0636
2808	0.06485
2809	0.06615
2810	0.06743
2811	0.06863
2812	0.06976
2813	0.07084
2814	0.07199
2815	0.07328
2816	0.07481
2817	0.07628
2818	0.0776
2819	0.07895
2820	0.08039
2821	0.08192
2822	0.08342
2823	0.08479
2824	0.086
2825	0.08711
2826	0.08828
2827	0.08946
2828	0.09055
2829	0.09158
2830	0.09275
2831	0.09407
2832	0.09536
2833	0.09652
2834	0.09781
2835	0.09934
2836	0.101
2837	0.10289
2838	0.10502
2839	0.10734
2840	0.10988
2841	0.11274
2842	0.11594
2843	0.11964
2844	0.12411
2845	0.12951
2846	0.13594
2847	0.14316
2848	0.15069
2849	0.15798
2850	0.16455
2851	0.16998
2852	0.17428
2853	0.17769
2854	0.18045
2855	0.18271
2856	0.18437
2857	0.18554
2858	0.18658
2859	0.18786
2860	0.18923
2861	0.19039
2862	0.19162
2863	0.19347
2864	0.19604
2865	0.19895
2866	0.20208
2867	0.20539
2868	0.20898
2869	0.21301
2870	0.21731
2871	0.2215
2872	0.22545
2873	0.22926
2874	0.2328
2875	0.23578
2876	0.23813
2877	0.24025
2878	0.2424
2879	0.24467
2880	0.24684
2881	0.24868
2882	0.25033
2883	0.25203
2884	0.25384
2885	0.25555
2886	0.25707
2887	0.25868
2888	0.26066
2889	0.26284
2890	0.26491
2891	0.26698
2892	0.26931
2893	0.27189
2894	0.27462
2895	0.27734
2896	0.27998
2897	0.28253
2898	0.28515
2899	0.28774
2900	0.29016
2901	0.29248
2902	0.29496
2903	0.29766
2904	0.30022
2905	0.30259
2906	0.30514
2907	0.30819
2908	0.31171
2909	0.31566
2910	0.32004
2911	0.32509
2912	0.33115
2913	0.33825
2914	0.34603
2915	0.354
2916	0.36193
2917	0.36965
2918	0.37683
2919	0.38317
2920	0.38872
2921	0.39384
2922	0.39859
2923	0.4028
2924	0.40617
2925	0.40851
2926	0.41005
2927	0.41104
2928	0.41143
2929	0.4111
2930	0.40994
2931	0.408
2932	0.40552
2933	0.40254
2934	0.39892
2935	0.3948
2936	0.39049
2937	0.38587
2938	0.38066
2939	0.37493
2940	0.36899
2941	0.36297
2942	0.35683
2943	0.35042
2944	0.34381
2945	0.33718
2946	0.33073
2947	0.32422
2948	0.31742
2949	0.31062
2950	0.30427
2951	0.29859
2952	0.29352
2953	0.28873
2954	0.28424
2955	0.28055
2956	0.27776
2957	0.27541
2958	0.27336
2959	0.272
2960	0.27165
2961	0.27211
2962	0.27299
2963	0.27415
2964	0.27564
2965	0.27738
2966	0.27891
2967	0.27983
2968	0.28015
2969	0.27996
2970	0.27931
2971	0.27801
2972	0.27586
2973	0.27306
2974	0.26998
2975	0.26661
2976	0.26261
2977	0.25807
2978	0.25349
2979	0.24906
2980	0.24446
2981	0.23938
2982	0.23397
2983	0.22834
2984	0.22281
2985	0.21748
2986	0.21223
2987	0.20684
2988	0.20144
2989	0.19631
2990	0.19148
2991	0.18677
2992	0.18208
2993	0.17743
2994	0.1729
2995	0.16847
2996	0.16427
2997	0.16029
2998	0.15651
2999	0.15283
3000	0.14918
3001	0.14554
3002	0.14226
3003	0.13959
3004	0.1372
3005	0.13462
3006	0.13207
3007	0.12988
3008	0.12819
3009	0.12677
3010	0.12531
3011	0.12376
3012	0.12219
3013	0.12078
3014	0.11952
3015	0.11823
3016	0.11691
3017	0.1158
3018	0.11502
3019	0.11442
3020	0.11376
3021	0.11294
3022	0.1122
3023	0.11189
3024	0.11179
3025	0.11141
3026	0.11074
3027	0.11022
3028	0.11034
3029	0.1109
3030	0.11131
3031	0.11123
3032	0.11125
3033	0.11172
3034	0.11214
3035	0.11227
3036	0.11228
3037	0.1124
3038	0.11278
3039	0.11327
3040	0.11376
3041	0.11429
3042	0.11482
3043	0.11519
3044	0.11527
3045	0.11516
3046	0.11515
3047	0.11531
3048	0.11549
3049	0.11557
3050	0.1156
3051	0.11563
3052	0.11564
3053	0.11577
3054	0.11617
3055	0.11661
3056	0.11686
3057	0.11697
3058	0.11707
3059	0.11707
3060	0.11713
3061	0.11751
3062	0.11829
3063	0.11905
3064	0.11933
3065	0.11961
3066	0.12035
3067	0.12111
3068	0.12148
3069	0.12153
3070	0.12167
3071	0.12212
3072	0.12265
3073	0.12302
3074	0.12335
3075	0.12396
3076	0.12498
3077	0.12604
3078	0.12687
3079	0.12759
3080	0.12832
3081	0.12901
3082	0.1296
3083	0.13021
3084	0.13094
3085	0.13175
3086	0.13264
3087	0.13347
3088	0.13423
3089	0.13516
3090	0.1364
3091	0.13765
3092	0.13856
3093	0.1393
3094	0.14023
3095	0.14148
3096	0.1428
3097	0.14404
3098	0.14532
3099	0.14678
3100	0.14832
3101	0.14964
3102	0.15066
3103	0.15169
3104	0.15296
3105	0.15451
3106	0.15622
3107	0.15793
3108	0.15965
3109	0.16141
3110	0.16317
3111	0.1649
3112	0.16673
3113	0.16891
3114	0.17134
3115	0.17343
3116	0.17486
3117	0.17612
3118	0.17756
3119	0.17911
3120	0.18086
3121	0.1826
3122	0.18397
3123	0.18517
3124	0.18678
3125	0.18864
3126	0.19024
3127	0.19161
3128	0.19327
3129	0.19536
3130	0.19755
3131	0.19952
3132	0.20124
3133	0.20286
3134	0.20463
3135	0.20664
3136	0.20859
3137	0.21037
3138	0.21225
3139	0.21426
3140	0.21614
3141	0.2177
3142	0.21922
3143	0.22106
3144	0.22316
3145	0.2252
3146	0.2271
3147	0.22911
3148	0.23133
3149	0.23365
3150	0.23595
3151	0.23826
3152	0.24056
3153	0.24286
3154	0.24513
3155	0.24743
3156	0.24968
3157	0.25194
3158	0.25428
3159	0.25657
3160	0.25866
3161	0.26067
3162	0.26279
3163	0.26513
3164	0.26745
3165	0.26963
3166	0.27179
3167	0.2742
3168	0.27678
3169	0.27931
3170	0.28174
3171	0.28429
3172	0.28706
3173	0.28989
3174	0.29265
3175	0.29544
3176	0.29851
3177	0.30176
3178	0.30479
3179	0.3075
3180	0.31019
3181	0.31301
3182	0.316
3183	0.31895
3184	0.32171
3185	0.32436
3186	0.32711
3187	0.32992
3188	0.33263
3189	0.33514
3190	0.33747
3191	0.33987
3192	0.34237
3193	0.34485
3194	0.34723
3195	0.34961
3196	0.35207
3197	0.3544
3198	0.35642
3199	0.35831
3200	0.36046
3201	0.36299
3202	0.36558
3203	0.36785
3204	0.36995
3205	0.37212
3206	0.37439
3207	0.37666
3208	0.37889
3209	0.38107
3210	0.38322
3211	0.38542
3212	0.38773
3213	0.39004
3214	0.39232
3215	0.39465
3216	0.39691
3217	0.39915
3218	0.40153
3219	0.40404
3220	0.40633
3221	0.4085
3222	0.4107
3223	0.41297
3224	0.41536
3225	0.41792
3226	0.42059
3227	0.42315
3228	0.42569
3229	0.42833
3230	0.43108
3231	0.43391
3232	0.43671
3233	0.4394
3234	0.44203
3235	0.44466
3236	0.44716
3237	0.44967
3238	0.45246
3239	0.45542
3240	0.45826
3241	0.46094
3242	0.46365
3243	0.4665
3244	0.46938
3245	0.47218
3246	0.47489
3247	0.47758
3248	0.48016
3249	0.48266
3250	0.48512
3251	0.48761
3252	0.49023
3253	0.49281
3254	0.49532
3255	0.49776
3256	0.50003
3257	0.50213
3258	0.50415
3259	0.50621
3260	0.50821
3261	0.51013
3262	0.51196
3263	0.51374
3264	0.5155
3265	0.51729
3266	0.51913
3267	0.52095
3268	0.5228
3269	0.52471
3270	0.52659
3271	0.52846
3272	0.53032
3273	0.53194
3274	0.53327
3275	0.53463
3276	0.536
3277	0.53744
3278	0.53914
3279	0.5408
3280	0.54238
3281	0.54401
3282	0.54572
3283	0.5473
3284	0.54873
3285	0.55029
3286	0.55201
3287	0.55375
3288	0.5555
3289	0.55727
3290	0.55897
3291	0.56053
3292	0.5619
3293	0.56308
3294	0.56418
3295	0.56536
3296	0.5666
3297	0.56775
3298	0.5687
3299	0.56957
3300	0.57065
3301	0.5719
3302	0.57325
3303	0.57469
3304	0.57627
3305	0.57793
3306	0.57947
3307	0.58111
3308	0.58273
3309	0.58412
3310	0.58547
3311	0.58703
3312	0.58873
3313	0.59049
3314	0.59219
3315	0.59389
3316	0.59564
3317	0.59753
3318	0.59956
3319	0.60156
3320	0.60351
3321	0.60549
3322	0.60752
3323	0.60966
3324	0.61196
3325	0.61428
3326	0.61649
3327	0.61847
3328	0.62046
3329	0.62265
3330	0.62499
3331	0.62739
3332	0.62998
3333	0.63265
3334	0.63521
3335	0.63769
3336	0.64019
3337	0.64269
3338	0.64505
3339	0.64719
3340	0.64918
3341	0.65117
3342	0.6531
3343	0.65493
3344	0.65661
3345	0.65821
3346	0.65979
3347	0.66146
3348	0.66314
3349	0.66477
3350	0.66626
3351	0.66769
3352	0.66909
3353	0.67041
3354	0.67186
3355	0.67339
3356	0.67475
3357	0.67612
3358	0.67768
3359	0.67945
3360	0.68121
3361	0.68287
3362	0.68441
3363	0.68589
3364	0.68749
3365	0.68924
3366	0.69086
3367	0.69228
3368	0.69368
3369	0.69516
3370	0.69668
3371	0.69821
3372	0.69964
3373	0.70103
3374	0.70238
3375	0.70366
3376	0.70498
3377	0.70628
3378	0.70735
3379	0.70835
3380	0.70944
3381	0.71038
3382	0.71127
3383	0.71231
3384	0.71328
3385	0.71384
3386	0.71428
3387	0.71473
3388	0.71534
3389	0.71615
3390	0.71725
3391	0.71831
3392	0.71886
3393	0.71896
3394	0.71923
3395	0.71983
3396	0.72043
3397	0.72086
3398	0.7212
3399	0.72151
3400	0.72183
3401	0.72222
3402	0.72251
3403	0.7226
3404	0.72271
3405	0.72302
3406	0.72351
3407	0.724
3408	0.72449
3409	0.72504
3410	0.72538
3411	0.72562
3412	0.726
3413	0.72659
3414	0.72725
3415	0.72776
3416	0.72794
3417	0.7281
3418	0.72851
3419	0.72903
3420	0.72927
3421	0.72919
3422	0.72913
3423	0.72924
3424	0.72943
3425	0.72948
3426	0.72937
3427	0.72933
3428	0.72946
3429	0.72965
3430	0.72972
3431	0.72951
3432	0.72897
3433	0.72825
3434	0.72758
3435	0.72688
3436	0.72617
3437	0.72561
3438	0.72484
3439	0.72361
3440	0.72236
3441	0.72133
3442	0.72025
3443	0.71896
3444	0.71771
3445	0.71663
3446	0.71543
3447	0.7135
3448	0.71119
3449	0.70942
3450	0.70793
3451	0.70627
3452	0.70453
3453	0.70272
3454	0.70079
3455	0.6989
3456	0.69704
3457	0.69514
3458	0.69324
3459	0.69157
3460	0.69
3461	0.68813
3462	0.68583
3463	0.6833
3464	0.68106
3465	0.67918
3466	0.67747
3467	0.67548
3468	0.67339
3469	0.67134
3470	0.66907
3471	0.66662
3472	0.66433
3473	0.66222
3474	0.65985
3475	0.6572
3476	0.65464
3477	0.65244
3478	0.65051
3479	0.64871
3480	0.64683
3481	0.64435
3482	0.64111
3483	0.63788
3484	0.63545
3485	0.63348
3486	0.63142
3487	0.62884
3488	0.62556
3489	0.62227
3490	0.61944
3491	0.61676
3492	0.61405
3493	0.61155
3494	0.60941
3495	0.60713
3496	0.60423
3497	0.60112
3498	0.59848
3499	0.59597
3500	0.59335
3501	0.59098
3502	0.58856
3503	0.58532
3504	0.58151
3505	0.57805
3506	0.5751
3507	0.57256
3508	0.57008
3509	0.56697
3510	0.56337
3511	0.56009
3512	0.55715
3513	0.55436
3514	0.55163
3515	0.54884
3516	0.54605
3517	0.54311
3518	0.53976
3519	0.53641
3520	0.53382
3521	0.5319
3522	0.52973
3523	0.52664
3524	0.52339
3525	0.52064
3526	0.51786
3527	0.51472
3528	0.51127
3529	0.50773
3530	0.50437
3531	0.50126
3532	0.4983
3533	0.49561
3534	0.49332
3535	0.49101
3536	0.48794
3537	0.48432
3538	0.48115
3539	0.47837
3540	0.47573
3541	0.47362
3542	0.47208
3543	0.47064
3544	0.46875
3545	0.46609
3546	0.46247
3547	0.45807
3548	0.45407
3549	0.45151
3550	0.44994
3551	0.4482
3552	0.44504
3553	0.44081
3554	0.43704
3555	0.43419
3556	0.43176
3557	0.42929
3558	0.42682
3559	0.42433
3560	0.42154
3561	0.41895
3562	0.41678
3563	0.41479
3564	0.41333
3565	0.41212
3566	0.40946
3567	0.40396
3568	0.39746
3569	0.39359
3570	0.39162
3571	0.38906
3572	0.38621
3573	0.38361
3574	0.38071
3575	0.37757
3576	0.37455
3577	0.37163
3578	0.36893
3579	0.3663
3580	0.36339
3581	0.3608
3582	0.35868
3583	0.35647
3584	0.35488
3585	0.35439
3586	0.35305
3587	0.34881
3588	0.34227
3589	0.33668
3590	0.33426
3591	0.33364
3592	0.33272
3593	0.33083
3594	0.32821
3595	0.32432
3596	0.31969
3597	0.3165
3598	0.31446
3599	0.31257
3600	0.31
3601	0.30612
3602	0.30182
3603	0.29799
3604	0.29509
3605	0.29336
3606	0.29167
3607	0.28892
3608	0.28486
3609	0.27929
3610	0.27445
3611	0.27219
3612	0.26967
3613	0.26588
3614	0.26259
3615	0.26069
3616	0.26021
3617	0.25999
3618	0.25803
3619	0.25338
3620	0.24847
3621	0.24605
3622	0.24467
3623	0.2428
3624	0.2411
3625	0.24009
3626	0.23989
3627	0.2404
3628	0.23901
3629	0.2308
3630	0.22219
3631	0.22098
3632	0.22049
3633	0.21803
3634	0.21358
3635	0.20948
3636	0.20687
3637	0.20441
3638	0.20134
3639	0.1982
3640	0.19569
3641	0.19336
3642	0.1904
3643	0.18743
3644	0.18618
3645	0.18688
3646	0.18792
3647	0.18758
3648	0.18638
3649	0.18471
3650	0.17961
3651	0.17128
3652	0.16659
3653	0.16553
3654	0.16555
3655	0.16495
3656	0.16133
3657	0.15655
3658	0.15476
3659	0.15349
3660	0.15162
3661	0.14957
3662	0.14756
3663	0.14554
3664	0.1437
3665	0.14238
3666	0.14205
3667	0.14261
3668	0.14327
3669	0.14269
3670	0.13844
3671	0.1332
3672	0.13274
3673	0.13547
3674	0.13749
3675	0.13414
3676	0.12562
3677	0.12384
3678	0.1244
3679	0.1229
3680	0.11996
3681	0.11807
3682	0.11726
3683	0.11657
3684	0.11574
3685	0.11564
3686	0.11707
3687	0.11857
3688	0.11777
3689	0.11612
3690	0.1156
3691	0.11331
3692	0.11034
3693	0.109
3694	0.1084
3695	0.10781
3696	0.10702
3697	0.10615
3698	0.10561
3699	0.10579
3700	0.10591
3701	0.10405
3702	0.1013
3703	0.10089
3704	0.10126
3705	0.10068
3706	0.09997
3707	0.10032
3708	0.10137
3709	0.10187
3710	0.10179
3711	0.09972
3712	0.09347
3713	0.08776
3714	0.08595
3715	0.08499
3716	0.08519
3717	0.08667
3718	0.08798
3719	0.08901
3720	0.09081
3721	0.09267
3722	0.09306
3723	0.09286
3724	0.09343
3725	0.0941
3726	0.0934
3727	0.0916
3728	0.0904
3729	0.09069
3730	0.09213
3731	0.0924
3732	0.09063
3733	0.09128
3734	0.09322
3735	0.09166
3736	0.08703
3737	0.08287
3738	0.08052
3739	0.07975
3740	0.07869
3741	0.07742
3742	0.07842
3743	0.08014
3744	0.07634
3745	0.06918
3746	0.06963
3747	0.07355
3748	0.07501
3749	0.07405
3750	0.07343
3751	0.07212
3752	0.06648
3753	0.06273
3754	0.06361
3755	0.06457
3756	0.06386
3757	0.06367
3758	0.06455
3759	0.06323
3760	0.05984
3761	0.05881
3762	0.05919
3763	0.05985
3764	0.0606
3765	0.05983
3766	0.05782
3767	0.05799
3768	0.05965
3769	0.05944
3770	0.05668
3771	0.05456
3772	0.05429
3773	0.05404
3774	0.05365
3775	0.05351
3776	0.0539
3777	0.05502
3778	0.05589
3779	0.05471
3780	0.05236
3781	0.05133
3782	0.05159
3783	0.0522
3784	0.05219
3785	0.05119
3786	0.05013
3787	0.04944
3788	0.04899
3789	0.04857
3790	0.04817
3791	0.04778
3792	0.04763
3793	0.04809
3794	0.04946
3795	0.05078
3796	0.05026
3797	0.04853
3798	0.04878
3799	0.05126
3800	0.05325
3801	0.05151
3802	0.04724
3803	0.04571
3804	0.0472
3805	0.04917
3806	0.0488
3807	0.04485
3808	0.04247
3809	0.04262
3810	0.04265
3811	0.04237
3812	0.04245
3813	0.0438
3814	0.04646
3815	0.04753
3816	0.04372
3817	0.04173
3818	0.0448
3819	0.04834
3820	0.04985
3821	0.04581
3822	0.04008
3823	0.03993
3824	0.04121
3825	0.04195
3826	0.04134
3827	0.03957
3828	0.03877
3829	0.03974
3830	0.04077
3831	0.04002
3832	0.039
3833	0.03993
3834	0.04087
3835	0.04157
3836	0.04357
3837	0.04412
3838	0.04223
3839	0.04133
3840	0.03977
3841	0.03785
3842	0.03811
3843	0.03752
3844	0.03506
3845	0.03412
3846	0.03442
3847	0.03477
3848	0.03548
3849	0.03704
3850	0.03973
3851	0.04271
3852	0.04476
3853	0.04195
3854	0.03342
3855	0.03034
3856	0.03264
3857	0.03268
3858	0.03197
3859	0.03264
3860	0.03379
3861	0.03409
3862	0.0345
3863	0.03605
3864	0.0358
3865	0.03217
3866	0.03073
3867	0.03306
3868	0.03584
3869	0.03601
3870	0.03145
3871	0.02989
3872	0.03222
3873	0.0328
3874	0.03017
3875	0.02744
3876	0.02765
3877	0.02883
3878	0.03056
3879	0.03169
3880	0.03023
3881	0.02807
3882	0.02843
3883	0.03013
3884	0.03134
3885	0.02995
3886	0.02648
3887	0.0252
3888	0.02638
3889	0.02842
3890	0.02977
3891	0.02852
3892	0.02644
3893	0.02585
3894	0.02543
3895	0.02516
3896	0.02601
3897	0.0278
3898	0.02882
3899	0.02808
3900	0.02799
3901	0.02836
3902	0.02806
3903	0.02791
3904	0.02672
3905	0.0245
3906	0.02301
3907	0.02245
3908	0.02235
3909	0.02231
3910	0.02226
3911	0.02219
3912	0.02201
3913	0.02197
3914	0.02265
3915	0.02379
3916	0.02393
3917	0.02284
3918	0.02244
3919	0.02234
3920	0.02145
3921	0.02131
3922	0.02227
3923	0.02314
3924	0.02283
3925	0.02115
3926	0.0201
3927	0.0204
3928	0.02112
3929	0.02177
3930	0.02229
3931	0.02228
3932	0.02131
3933	0.02026
3934	0.01976
3935	0.01945
3936	0.01925
3937	0.01921
3938	0.01913
3939	0.01912
3940	0.01967
3941	0.02056
3942	0.02054
3943	0.01945
3944	0.01872
3945	0.01886
3946	0.01928
3947	0.01947
3948	0.01955
3949	0.01942
3950	0.01894
3951	0.01855
3952	0.01819
3953	0.01773
3954	0.01765
3955	0.01775
3956	0.01759
3957	0.01723
3958	0.01698
3959	0.01712
3960	0.0175
3961	0.01759
3962	0.01721
3963	0.01683
3964	0.01664
3965	0.01655
3966	0.01661
3967	0.0167
3968	0.01658
3969	0.0163
3970	0.01617
3971	0.01631
3972	0.01641
3973	0.01632
3974	0.0161
3975	0.0158
3976	0.01561
3977	0.01575
3978	0.01592
3979	0.01581
3980	0.0156
3981	0.0154
3982	0.01527
3983	0.01532
3984	0.01545
3985	0.01535
3986	0.01507
3987	0.01487
3988	0.01489
3989	0.01494
3990	0.01484
3991	0.01474
3992	0.01479
3993	0.01484
3994	0.01476
3995	0.01466
3996	0.0147
3997	0.01471
3998	0.01455
3999	0.01438
4000	0.01431