4000.18193	0.01225
3999.21756	0.01207
3998.2532	0.01191
3997.28884	0.01176
3996.32447	0.01163
3995.36011	0.01151
3994.39574	0.0114
3993.43138	0.01131
3992.46702	0.01123
3991.50265	0.01117
3990.53829	0.01112
3989.57392	0.01109
3988.60956	0.01107
3987.6452	0.01121
3986.68083	0.01137
3985.71647	0.01149
3984.7521	0.01158
3983.78774	0.01161
3982.82338	0.01153
3981.85901	0.01142
3980.89465	0.01135
3979.93028	0.01124
3978.96592	0.01099
3978.00156	0.01065
3977.03719	0.01036
3976.07283	0.01019
3975.10846	0.01014
3974.1441	0.01023
3973.17974	0.01039
3972.21537	0.01049
3971.25101	0.01051
3970.28664	0.01049
3969.32228	0.01046
3968.35792	0.01043
3967.39355	0.01039
3966.42919	0.0104
3965.46482	0.01054
3964.50046	0.0107
3963.5361	0.01078
3962.57173	0.0109
3961.60737	0.01112
3960.643	0.01128
3959.67864	0.01128
3958.71428	0.01109
3957.74991	0.01068
3956.78555	0.01018
3955.82118	0.00983
3954.85682	0.00979
3953.89246	0.00977
3952.92809	0.0095
3951.96373	0.00909
3950.99936	0.00871
3950.035	0.00832
3949.07064	0.00788
3948.10627	0.00755
3947.14191	0.00745
3946.17754	0.00758
3945.21318	0.00791
3944.24882	0.00845
3943.28445	0.00908
3942.32009	0.00959
3941.35572	0.00993
3940.39136	0.0101
3939.427	0.01016
3938.46263	0.01018
3937.49827	0.01024
3936.5339	0.01043
3935.56954	0.01039
3934.60518	0.00993
3933.64081	0.0094
3932.67645	0.00912
3931.71208	0.00899
3930.74772	0.00854
3929.78336	0.00793
3928.81899	0.00763
3927.85463	0.00744
3926.89026	0.007
3925.9259	0.00648
3924.96154	0.00618
3923.99717	0.00621
3923.03281	0.00651
3922.06844	0.00702
3921.10408	0.00758
3920.13972	0.00803
3919.17535	0.00849
3918.21099	0.00924
3917.24662	0.01035
3916.28226	0.01162
3915.3179	0.01282
3914.35353	0.01372
3913.38917	0.01398
3912.4248	0.01328
3911.46044	0.01218
3910.49608	0.01124
3909.53171	0.01013
3908.56735	0.00864
3907.60298	0.00693
3906.63862	0.00548
3905.67426	0.00434
3904.70989	0.00318
3903.74553	0.00224
3902.78116	0.00169
3901.8168	0.00106
3900.85244	3.81066E-4
3899.88807	0
3898.92371	2.08935E-4
3897.95934	0.00126
3896.99498	0.003
3896.03062	0.00478
3895.06625	0.00643
3894.10189	0.00787
3893.13752	0.00908
3892.17316	0.01007
3891.2088	0.01035
3890.24443	0.00979
3889.28007	0.0089
3888.3157	0.0082
3887.35134	0.00769
3886.38698	0.00745
3885.42261	0.00762
3884.45825	0.00783
3883.49388	0.00818
3882.52952	0.00896
3881.56516	0.0101
3880.60079	0.01034
3879.63643	0.00929
3878.67206	0.00764
3877.7077	0.00662
3876.74333	0.00675
3875.77897	0.00719
3874.81461	0.00727
3873.85024	0.00681
3872.88588	0.00574
3871.92151	0.00451
3870.95715	0.00358
3869.99279	0.00324
3869.02842	0.0033
3868.06406	0.00306
3867.09969	0.00287
3866.13533	0.00379
3865.17097	0.00613
3864.2066	0.00792
3863.24224	0.00833
3862.27787	0.00754
3861.31351	0.00607
3860.34915	0.0048
3859.38478	0.00389
3858.42042	0.0029
3857.45605	0.00144
3856.49169	6.45845E-4
3855.52733	0.00114
3854.56296	0.0023
3853.5986	0.00344
3852.63423	0.00425
3851.66987	0.00498
3850.70551	0.00565
3849.74114	0.00619
3848.77678	0.00651
3847.81241	0.0069
3846.84805	0.00771
3845.88369	0.00864
3844.91932	0.0093
3843.95496	0.01013
3842.99059	0.01132
3842.02623	0.01168
3841.06187	0.01006
3840.0975	0.00811
3839.13314	0.007
3838.16877	0.00656
3837.20441	0.00641
3836.24005	0.00662
3835.27568	0.00748
3834.31132	0.00914
3833.34695	0.01178
3832.38259	0.0146
3831.41823	0.01607
3830.45386	0.0167
3829.4895	0.01716
3828.52513	0.01746
3827.56077	0.01748
3826.59641	0.01673
3825.63204	0.01516
3824.66768	0.01348
3823.70331	0.01221
3822.73895	0.01129
3821.77459	0.01079
3820.81022	0.01091
3819.84586	0.01151
3818.88149	0.01263
3817.91713	0.01407
3816.95277	0.01542
3815.9884	0.01675
3815.02404	0.01821
3814.05967	0.02012
3813.09531	0.02252
3812.13095	0.02429
3811.16658	0.02523
3810.20222	0.02564
3809.23785	0.02516
3808.27349	0.02375
3807.30913	0.0223
3806.34476	0.02101
3805.3804	0.01999
3804.41603	0.01894
3803.45167	0.01752
3802.48731	0.0165
3801.52294	0.0163
3800.55858	0.01684
3799.59421	0.01795
3798.62985	0.01963
3797.66549	0.02188
3796.70112	0.02458
3795.73676	0.02713
3794.77239	0.02889
3793.80803	0.03034
3792.84367	0.03228
3791.8793	0.0348
3790.91494	0.03726
3789.95057	0.03848
3788.98621	0.03809
3788.02185	0.0374
3787.05748	0.03711
3786.09312	0.03708
3785.12875	0.03691
3784.16439	0.03644
3783.20003	0.03615
3782.23566	0.03647
3781.2713	0.03711
3780.30693	0.0374
3779.34257	0.03742
3778.37821	0.03757
3777.41384	0.03801
3776.44948	0.03833
3775.48511	0.03839
3774.52075	0.03835
3773.55639	0.03819
3772.59202	0.03804
3771.62766	0.03836
3770.66329	0.0389
3769.69893	0.03909
3768.73457	0.03904
3767.7702	0.03862
3766.80584	0.03767
3765.84147	0.03676
3764.87711	0.03655
3763.91275	0.03736
3762.94838	0.03827
3761.98402	0.03845
3761.01965	0.03801
3760.05529	0.03688
3759.09093	0.03512
3758.12656	0.0328
3757.1622	0.03037
3756.19783	0.02875
3755.23347	0.02693
3754.26911	0.02461
3753.30474	0.02217
3752.34038	0.02018
3751.37601	0.01885
3750.41165	0.01833
3749.44729	0.01876
3748.48292	0.01991
3747.51856	0.02133
3746.55419	0.02241
3745.58983	0.02288
3744.62547	0.02318
3743.6611	0.02374
3742.69674	0.0246
3741.73237	0.02566
3740.76801	0.02674
3739.80365	0.02722
3738.83928	0.02744
3737.87492	0.02787
3736.91055	0.02814
3735.94619	0.02844
3734.98182	0.02923
3734.01746	0.0305
3733.0531	0.0314
3732.08873	0.03125
3731.12437	0.03149
3730.16	0.03255
3729.19564	0.03394
3728.23128	0.03568
3727.26691	0.03812
3726.30255	0.04113
3725.33818	0.04435
3724.37382	0.04761
3723.40946	0.05013
3722.44509	0.05114
3721.48073	0.05149
3720.51636	0.05134
3719.552	0.05056
3718.58764	0.04982
3717.62327	0.04968
3716.65891	0.05008
3715.69454	0.05072
3714.73018	0.05142
3713.76582	0.05215
3712.80145	0.05274
3711.83709	0.05309
3710.87272	0.05323
3709.90836	0.05322
3708.944	0.05358
3707.97963	0.0545
3707.01527	0.05567
3706.0509	0.05715
3705.08654	0.05924
3704.12218	0.062
3703.15781	0.06543
3702.19345	0.06902
3701.22908	0.07201
3700.26472	0.0738
3699.30036	0.07381
3698.33599	0.0728
3697.37163	0.07155
3696.40726	0.07056
3695.4429	0.0701
3694.47854	0.0701
3693.51417	0.07052
3692.54981	0.0715
3691.58544	0.07305
3690.62108	0.07469
3689.65672	0.07589
3688.69235	0.07717
3687.72799	0.07943
3686.76362	0.0817
3685.79926	0.08238
3684.8349	0.08229
3683.87053	0.08235
3682.90617	0.08328
3681.9418	0.085
3680.97744	0.08633
3680.01308	0.08662
3679.04871	0.08577
3678.08435	0.08426
3677.11998	0.08289
3676.15562	0.08176
3675.19126	0.08115
3674.22689	0.08146
3673.26253	0.08264
3672.29816	0.08453
3671.3338	0.08715
3670.36944	0.09051
3669.40507	0.09467
3668.44071	0.09954
3667.47634	0.10438
3666.51198	0.10866
3665.54762	0.11269
3664.58325	0.11645
3663.61889	0.11915
3662.65452	0.12138
3661.69016	0.12443
3660.7258	0.1273
3659.76143	0.12943
3658.79707	0.12987
3657.8327	0.12784
3656.86834	0.1247
3655.90398	0.1219
3654.93961	0.12002
3653.97525	0.11894
3653.01088	0.11831
3652.04652	0.1181
3651.08216	0.11852
3650.11779	0.11968
3649.15343	0.12142
3648.18906	0.12361
3647.2247	0.12642
3646.26034	0.13007
3645.29597	0.13417
3644.33161	0.1379
3643.36724	0.14158
3642.40288	0.1462
3641.43852	0.15212
3640.47415	0.15825
3639.50979	0.16262
3638.54542	0.16487
3637.58106	0.16538
3636.6167	0.16506
3635.65233	0.16426
3634.68797	0.16342
3633.7236	0.16335
3632.75924	0.1643
3631.79488	0.16606
3630.83051	0.16801
3629.86615	0.16962
3628.90178	0.17092
3627.93742	0.17237
3626.97306	0.17427
3626.00869	0.17657
3625.04433	0.17914
3624.07996	0.18185
3623.1156	0.18448
3622.15124	0.18714
3621.18687	0.19021
3620.22251	0.19382
3619.25814	0.19756
3618.29378	0.20065
3617.32942	0.20217
3616.36505	0.20252
3615.40069	0.20357
3614.43632	0.20557
3613.47196	0.20836
3612.5076	0.21182
3611.54323	0.21564
3610.57887	0.21963
3609.6145	0.22372
3608.65014	0.22772
3607.68578	0.23144
3606.72141	0.23471
3605.75705	0.23765
3604.79268	0.24064
3603.82832	0.24367
3602.86396	0.24655
3601.89959	0.24931
3600.93523	0.25226
3599.97086	0.25564
3599.0065	0.25916
3598.04214	0.26201
3597.07777	0.26384
3596.11341	0.26512
3595.14904	0.26638
3594.18468	0.26795
3593.22031	0.2702
3592.25595	0.27318
3591.29159	0.27653
3590.32722	0.27993
3589.36286	0.28328
3588.39849	0.28657
3587.43413	0.2899
3586.46977	0.29334
3585.5054	0.29688
3584.54104	0.3004
3583.57667	0.30374
3582.61231	0.30699
3581.64795	0.31043
3580.68358	0.31439
3579.71922	0.31912
3578.75485	0.32407
3577.79049	0.32807
3576.82613	0.33036
3575.86176	0.33103
3574.8974	0.33083
3573.93303	0.33071
3572.96867	0.33117
3572.00431	0.33211
3571.03994	0.33325
3570.07558	0.33464
3569.11121	0.3364
3568.14685	0.33835
3567.18249	0.34052
3566.21812	0.34314
3565.25376	0.34618
3564.28939	0.34945
3563.32503	0.35271
3562.36067	0.35597
3561.3963	0.35953
3560.43194	0.36365
3559.46757	0.3683
3558.50321	0.37321
3557.53885	0.37802
3556.57448	0.38221
3555.61012	0.38509
3554.64575	0.38662
3553.68139	0.38768
3552.71703	0.38911
3551.75266	0.39098
3550.7883	0.3931
3549.82393	0.39545
3548.85957	0.39804
3547.89521	0.40064
3546.93084	0.40323
3545.96648	0.40595
3545.00211	0.40888
3544.03775	0.41208
3543.07339	0.41556
3542.10902	0.4191
3541.14466	0.42251
3540.18029	0.42576
3539.21593	0.42897
3538.25157	0.43216
3537.2872	0.43527
3536.32284	0.43827
3535.35847	0.44111
3534.39411	0.44362
3533.42975	0.44576
3532.46538	0.44775
3531.50102	0.44999
3530.53665	0.45262
3529.57229	0.45554
3528.60793	0.45868
3527.64356	0.46203
3526.6792	0.46562
3525.71483	0.46945
3524.75047	0.47347
3523.78611	0.47776
3522.82174	0.48251
3521.85738	0.48774
3520.89301	0.49316
3519.92865	0.49846
3518.96429	0.50371
3517.99992	0.50908
3517.03556	0.51462
3516.07119	0.5203
3515.10683	0.52609
3514.14247	0.53205
3513.1781	0.53824
3512.21374	0.54459
3511.24937	0.55097
3510.28501	0.55752
3509.32065	0.56455
3508.35628	0.57195
3507.39192	0.57929
3506.42755	0.58634
3505.46319	0.59305
3504.49883	0.59937
3503.53446	0.60516
3502.5701	0.61031
3501.60573	0.61475
3500.64137	0.61839
3499.67701	0.62108
3498.71264	0.6226
3497.74828	0.62292
3496.78391	0.62236
3495.81955	0.62136
3494.85519	0.62012
3493.89082	0.61856
3492.92646	0.61651
3491.96209	0.61395
3490.99773	0.61116
3490.03337	0.60856
3489.069	0.6064
3488.10464	0.60471
3487.14027	0.60355
3486.17591	0.60284
3485.21155	0.60238
3484.24718	0.60206
3483.28282	0.60191
3482.31845	0.60202
3481.35409	0.60236
3480.38973	0.60291
3479.42536	0.60367
3478.461	0.60459
3477.49663	0.60558
3476.53227	0.60658
3475.56791	0.60762
3474.60354	0.60877
3473.63918	0.60995
3472.67481	0.61104
3471.71045	0.61203
3470.74609	0.61289
3469.78172	0.6136
3468.81736	0.61429
3467.85299	0.6151
3466.88863	0.61603
3465.92427	0.61699
3464.9599	0.6179
3463.99554	0.61874
3463.03117	0.61948
3462.06681	0.62018
3461.10245	0.62094
3460.13808	0.62186
3459.17372	0.6229
3458.20935	0.62389
3457.24499	0.62477
3456.28062	0.62566
3455.31626	0.62661
3454.3519	0.62763
3453.38753	0.62864
3452.42317	0.62958
3451.4588	0.63045
3450.49444	0.63128
3449.53008	0.63217
3448.56571	0.63328
3447.60135	0.63464
3446.63698	0.63619
3445.67262	0.63794
3444.70826	0.6399
3443.74389	0.642
3442.77953	0.6442
3441.81516	0.64651
3440.8508	0.64898
3439.88644	0.65163
3438.92207	0.65444
3437.95771	0.65735
3436.99334	0.66029
3436.02898	0.66309
3435.06462	0.66567
3434.10025	0.66816
3433.13589	0.6707
3432.17152	0.67317
3431.20716	0.67537
3430.2428	0.67721
3429.27843	0.67883
3428.31407	0.68034
3427.3497	0.68178
3426.38534	0.68311
3425.42098	0.68437
3424.45661	0.68556
3423.49225	0.68672
3422.52788	0.68781
3421.56352	0.68872
3420.59916	0.68944
3419.63479	0.69004
3418.67043	0.69057
3417.70606	0.69098
3416.7417	0.69119
3415.77734	0.69113
3414.81297	0.69075
3413.84861	0.69008
3412.88424	0.68916
3411.91988	0.68801
3410.95552	0.68664
3409.99115	0.68505
3409.02679	0.68324
3408.06242	0.68109
3407.09806	0.67869
3406.1337	0.6762
3405.16933	0.67374
3404.20497	0.67127
3403.2406	0.66877
3402.27624	0.66635
3401.31188	0.66416
3400.34751	0.66219
3399.38315	0.66042
3398.41878	0.65887
3397.45442	0.6576
3396.49006	0.65656
3395.52569	0.65562
3394.56133	0.65476
3393.59696	0.65401
3392.6326	0.65337
3391.66824	0.65286
3390.70387	0.65253
3389.73951	0.65242
3388.77514	0.65249
3387.81078	0.65274
3386.84642	0.65313
3385.88205	0.65356
3384.91769	0.654
3383.95332	0.65454
3382.98896	0.65524
3382.0246	0.65608
3381.06023	0.65697
3380.09587	0.65796
3379.1315	0.65913
3378.16714	0.66046
3377.20278	0.66184
3376.23841	0.66323
3375.27405	0.66463
3374.30968	0.66601
3373.34532	0.66729
3372.38096	0.66845
3371.41659	0.66955
3370.45223	0.67065
3369.48786	0.67172
3368.5235	0.67271
3367.55914	0.67358
3366.59477	0.6743
3365.63041	0.67486
3364.66604	0.67527
3363.70168	0.6755
3362.73732	0.67555
3361.77295	0.67548
3360.80859	0.67533
3359.84422	0.67508
3358.87986	0.67467
3357.9155	0.67403
3356.95113	0.67313
3355.98677	0.67197
3355.0224	0.67056
3354.05804	0.66892
3353.09368	0.66709
3352.12931	0.66508
3351.16495	0.66291
3350.20058	0.66065
3349.23622	0.65839
3348.27186	0.65617
3347.30749	0.65397
3346.34313	0.65174
3345.37876	0.6495
3344.4144	0.6473
3343.45004	0.64517
3342.48567	0.64311
3341.52131	0.64115
3340.55694	0.63933
3339.59258	0.63763
3338.62822	0.63603
3337.66385	0.63446
3336.69949	0.63289
3335.73512	0.63131
3334.77076	0.62969
3333.8064	0.62803
3332.84203	0.62636
3331.87767	0.62475
3330.9133	0.62324
3329.94894	0.62185
3328.98458	0.62059
3328.02021	0.61953
3327.05585	0.61874
3326.09148	0.61829
3325.12712	0.61811
3324.16276	0.61818
3323.19839	0.6185
3322.23403	0.61914
3321.26966	0.62009
3320.3053	0.62131
3319.34094	0.62273
3318.37657	0.62437
3317.41221	0.62621
3316.44784	0.62822
3315.48348	0.63033
3314.51911	0.63252
3313.55475	0.63469
3312.59039	0.63673
3311.62602	0.63849
3310.66166	0.6399
3309.69729	0.64091
3308.73293	0.64149
3307.76857	0.64161
3306.8042	0.64131
3305.83984	0.64063
3304.87547	0.63957
3303.91111	0.63818
3302.94675	0.63648
3301.98238	0.63451
3301.01802	0.63234
3300.05365	0.63005
3299.08929	0.6277
3298.12493	0.6254
3297.16056	0.62322
3296.1962	0.62123
3295.23183	0.61951
3294.26747	0.61809
3293.30311	0.61701
3292.33874	0.61627
3291.37438	0.61579
3290.41001	0.61551
3289.44565	0.6154
3288.48129	0.61543
3287.51692	0.61552
3286.55256	0.61565
3285.58819	0.61579
3284.62383	0.61594
3283.65947	0.61607
3282.6951	0.61622
3281.73074	0.61632
3280.76637	0.61634
3279.80201	0.61628
3278.83765	0.61611
3277.87328	0.6158
3276.90892	0.61529
3275.94455	0.61454
3274.98019	0.61357
3274.01583	0.61236
3273.05146	0.61091
3272.0871	0.60919
3271.12273	0.6072
3270.15837	0.60497
3269.19401	0.6025
3268.22964	0.59977
3267.26528	0.5968
3266.30091	0.59364
3265.33655	0.59024
3264.37219	0.58657
3263.40782	0.58268
3262.44346	0.57862
3261.47909	0.57437
3260.51473	0.56998
3259.55037	0.56553
3258.586	0.56104
3257.62164	0.55654
3256.65727	0.552
3255.69291	0.54734
3254.72855	0.54255
3253.76418	0.53768
3252.79982	0.53276
3251.83545	0.52779
3250.87109	0.52281
3249.90673	0.51783
3248.94236	0.51287
3247.978	0.50788
3247.01363	0.50286
3246.04927	0.49787
3245.08491	0.49297
3244.12054	0.48819
3243.15618	0.48355
3242.19181	0.479
3241.22745	0.47454
3240.26309	0.47018
3239.29872	0.46592
3238.33436	0.46176
3237.36999	0.45772
3236.40563	0.45388
3235.44127	0.45025
3234.4769	0.44685
3233.51254	0.44362
3232.54817	0.44057
3231.58381	0.43778
3230.61945	0.4353
3229.65508	0.43317
3228.69072	0.43141
3227.72635	0.43005
3226.76199	0.42906
3225.79763	0.42838
3224.83326	0.42793
3223.8689	0.42766
3222.90453	0.42758
3221.94017	0.42758
3220.97581	0.42751
3220.01144	0.42722
3219.04708	0.42663
3218.08271	0.42566
3217.11835	0.42429
3216.15399	0.42251
3215.18962	0.42031
3214.22526	0.4177
3213.26089	0.41471
3212.29653	0.4114
3211.33217	0.40782
3210.3678	0.40405
3209.40344	0.40016
3208.43907	0.3962
3207.47471	0.39226
3206.51035	0.3885
3205.54598	0.385
3204.58162	0.3818
3203.61725	0.37888
3202.65289	0.37619
3201.68853	0.37368
3200.72416	0.37132
3199.7598	0.36906
3198.79543	0.3668
3197.83107	0.36445
3196.86671	0.36195
3195.90234	0.3593
3194.93798	0.35648
3193.97361	0.35353
3193.00925	0.3504
3192.04489	0.34708
3191.08052	0.3436
3190.11616	0.34001
3189.15179	0.33627
3188.18743	0.33238
3187.22307	0.32838
3186.2587	0.32433
3185.29434	0.32028
3184.32997	0.31629
3183.36561	0.31241
3182.40125	0.30866
3181.43688	0.30505
3180.47252	0.30154
3179.50815	0.29814
3178.54379	0.29485
3177.57943	0.2917
3176.61506	0.28867
3175.6507	0.28573
3174.68633	0.28285
3173.72197	0.28002
3172.7576	0.27725
3171.79324	0.27459
3170.82888	0.27206
3169.86451	0.26962
3168.90015	0.26724
3167.93578	0.26495
3166.97142	0.26274
3166.00706	0.2606
3165.04269	0.25854
3164.07833	0.25661
3163.11396	0.2548
3162.1496	0.25309
3161.18524	0.25143
3160.22087	0.24983
3159.25651	0.24825
3158.29214	0.24669
3157.32778	0.24512
3156.36342	0.24357
3155.39905	0.24202
3154.43469	0.24045
3153.47032	0.2388
3152.50596	0.23709
3151.5416	0.23535
3150.57723	0.2336
3149.61287	0.23186
3148.6485	0.23014
3147.68414	0.22843
3146.71978	0.22675
3145.75541	0.22506
3144.79105	0.22335
3143.82668	0.22157
3142.86232	0.21973
3141.89796	0.21788
3140.93359	0.21606
3139.96923	0.21429
3139.00486	0.21251
3138.0405	0.2107
3137.07614	0.20885
3136.11177	0.20698
3135.14741	0.20513
3134.18304	0.20327
3133.21868	0.20136
3132.25432	0.19945
3131.28995	0.19761
3130.32559	0.19586
3129.36122	0.19423
3128.39686	0.19275
3127.4325	0.19141
3126.46813	0.19016
3125.50377	0.18896
3124.5394	0.18778
3123.57504	0.18654
3122.61068	0.18517
3121.64631	0.18359
3120.68195	0.18184
3119.71758	0.18002
3118.75322	0.17816
3117.78886	0.17624
3116.82449	0.17421
3115.86013	0.17205
3114.89576	0.16979
3113.9314	0.16744
3112.96704	0.16504
3112.00267	0.16258
3111.03831	0.16009
3110.07394	0.15766
3109.10958	0.15544
3108.14522	0.15344
3107.18085	0.15159
3106.21649	0.1498
3105.25212	0.14811
3104.28776	0.1465
3103.3234	0.14498
3102.35903	0.14359
3101.39467	0.14232
3100.4303	0.14113
3099.46594	0.14
3098.50158	0.13893
3097.53721	0.13795
3096.57285	0.13706
3095.60848	0.13624
3094.64412	0.13549
3093.67976	0.13481
3092.71539	0.13416
3091.75103	0.13351
3090.78666	0.13285
3089.8223	0.13218
3088.85794	0.13154
3087.89357	0.131
3086.92921	0.13055
3085.96484	0.13016
3085.00048	0.12976
3084.03612	0.12932
3083.07175	0.12884
3082.10739	0.12838
3081.14302	0.12793
3080.17866	0.12754
3079.2143	0.12725
3078.24993	0.12707
3077.28557	0.12696
3076.3212	0.12687
3075.35684	0.12678
3074.39248	0.12669
3073.42811	0.12667
3072.46375	0.12673
3071.49938	0.12683
3070.53502	0.12692
3069.57066	0.12702
3068.60629	0.12718
3067.64193	0.12737
3066.67756	0.12758
3065.7132	0.12785
3064.74884	0.12822
3063.78447	0.12864
3062.82011	0.12908
3061.85574	0.12959
3060.89138	0.13017
3059.92702	0.13076
3058.96265	0.13133
3057.99829	0.13189
3057.03392	0.13247
3056.06956	0.1331
3055.1052	0.13375
3054.14083	0.13438
3053.17647	0.13497
3052.2121	0.13549
3051.24774	0.13598
3050.28338	0.13645
3049.31901	0.13684
3048.35465	0.13709
3047.39028	0.13721
3046.42592	0.13722
3045.46156	0.13716
3044.49719	0.13701
3043.53283	0.13681
3042.56846	0.13654
3041.6041	0.13615
3040.63974	0.13567
3039.67537	0.13517
3038.71101	0.13467
3037.74664	0.1341
3036.78228	0.13344
3035.81792	0.13276
3034.85355	0.13215
3033.88919	0.13161
3032.92482	0.13112
3031.96046	0.13068
3030.99609	0.13035
3030.03173	0.13014
3029.06737	0.13007
3028.103	0.13014
3027.13864	0.13033
3026.17427	0.13063
3025.20991	0.13106
3024.24555	0.13165
3023.28118	0.1324
3022.31682	0.13332
3021.35245	0.13443
3020.38809	0.13567
3019.42373	0.13699
3018.45936	0.13842
3017.495	0.14
3016.53063	0.14172
3015.56627	0.14352
3014.60191	0.1454
3013.63754	0.14743
3012.67318	0.14963
3011.70881	0.152
3010.74445	0.15446
3009.78009	0.15703
3008.81572	0.15972
3007.85136	0.16257
3006.88699	0.16552
3005.92263	0.16853
3004.95827	0.17158
3003.9939	0.17467
3003.02954	0.17783
3002.06517	0.1811
3001.10081	0.18448
3000.13645	0.18795
2999.17208	0.19153
2998.20772	0.19521
2997.24335	0.19903
2996.27899	0.20302
2995.31463	0.20715
2994.35026	0.21143
2993.3859	0.21585
2992.42153	0.22045
2991.45717	0.22524
2990.49281	0.23025
2989.52844	0.23541
2988.56408	0.24064
2987.59971	0.24591
2986.63535	0.2512
2985.67099	0.25652
2984.70662	0.26178
2983.74226	0.26691
2982.77789	0.27188
2981.81353	0.27672
2980.84917	0.2814
2979.8848	0.28588
2978.92044	0.29009
2977.95607	0.294
2976.99171	0.29755
2976.02735	0.30071
2975.06298	0.30343
2974.09862	0.30572
2973.13425	0.30753
2972.16989	0.30884
2971.20553	0.30962
2970.24116	0.30987
2969.2768	0.30959
2968.31243	0.30883
2967.34807	0.30766
2966.38371	0.30614
2965.41934	0.30433
2964.45498	0.30237
2963.49061	0.30046
2962.52625	0.29879
2961.56189	0.29741
2960.59752	0.2964
2959.63316	0.29585
2958.66879	0.29589
2957.70443	0.2966
2956.74007	0.29805
2955.7757	0.30027
2954.81134	0.30328
2953.84697	0.30711
2952.88261	0.31172
2951.91825	0.31704
2950.95388	0.32301
2949.98952	0.32954
2949.02515	0.3365
2948.06079	0.34376
2947.09643	0.35113
2946.13206	0.35839
2945.1677	0.36535
2944.20333	0.37185
2943.23897	0.37775
2942.27461	0.38292
2941.31024	0.38732
2940.34588	0.39094
2939.38151	0.39372
2938.41715	0.39562
2937.45279	0.39663
2936.48842	0.39677
2935.52406	0.39616
2934.55969	0.39489
2933.59533	0.39307
2932.63097	0.39079
2931.6666	0.38816
2930.70224	0.38527
2929.73787	0.38221
2928.77351	0.37908
2927.80915	0.37595
2926.84478	0.37283
2925.88042	0.36971
2924.91605	0.36654
2923.95169	0.36329
2922.98733	0.35989
2922.02296	0.35632
2921.0586	0.35259
2920.09423	0.34875
2919.12987	0.34486
2918.16551	0.34094
2917.20114	0.33702
2916.23678	0.33312
2915.27241	0.32927
2914.30805	0.32556
2913.34369	0.32205
2912.37932	0.3188
2911.41496	0.31583
2910.45059	0.31321
2909.48623	0.31096
2908.52187	0.30907
2907.5575	0.30753
2906.59314	0.30631
2905.62877	0.30535
2904.66441	0.30452
2903.70005	0.30369
2902.73568	0.30276
2901.77132	0.30165
2900.80695	0.3003
2899.84259	0.29867
2898.87823	0.29675
2897.91386	0.29452
2896.9495	0.29197
2895.98513	0.28911
2895.02077	0.286
2894.05641	0.2827
2893.09204	0.27931
2892.12768	0.27592
2891.16331	0.27265
2890.19895	0.26955
2889.23458	0.26669
2888.27022	0.26409
2887.30586	0.26177
2886.34149	0.25973
2885.37713	0.25799
2884.41276	0.25654
2883.4484	0.25529
2882.48404	0.25414
2881.51967	0.25298
2880.55531	0.25175
2879.59094	0.25037
2878.62658	0.24879
2877.66222	0.24697
2876.69785	0.24488
2875.73349	0.2425
2874.76912	0.23983
2873.80476	0.23686
2872.8404	0.23361
2871.87603	0.23011
2870.91167	0.22647
2869.9473	0.22276
2868.98294	0.21903
2868.01858	0.21532
2867.05421	0.21166
2866.08985	0.20812
2865.12548	0.20473
2864.16112	0.20153
2863.19676	0.19853
2862.23239	0.19571
2861.26803	0.19305
2860.30366	0.19047
2859.3393	0.18793
2858.37494	0.18535
2857.41057	0.18267
2856.44621	0.17982
2855.48184	0.17677
2854.51748	0.17348
2853.55312	0.16992
2852.58875	0.16606
2851.62439	0.16191
2850.66002	0.15754
2849.69566	0.15302
2848.7313	0.14842
2847.76693	0.14381
2846.80257	0.13923
2845.8382	0.13476
2844.87384	0.13046
2843.90948	0.12637
2842.94511	0.12256
2841.98075	0.11906
2841.01638	0.11588
2840.05202	0.113
2839.08766	0.1104
2838.12329	0.10807
2837.15893	0.10601
2836.19456	0.10423
2835.2302	0.1027
2834.26584	0.10137
2833.30147	0.10019
2832.33711	0.09917
2831.37274	0.09831
2830.40838	0.09758
2829.44402	0.09695
2828.47965	0.09642
2827.51529	0.09599
2826.55092	0.09563
2825.58656	0.09527
2824.6222	0.09485
2823.65783	0.09436
2822.69347	0.09379
2821.7291	0.09317
2820.76474	0.09254
2819.80038	0.0919
2818.83601	0.09119
2817.87165	0.09041
2816.90728	0.08953
2815.94292	0.08855
2814.97856	0.08743
2814.01419	0.08618
2813.04983	0.08481
2812.08546	0.08335
2811.1211	0.08181
2810.15674	0.0802
2809.19237	0.07858
2808.22801	0.07697
2807.26364	0.07539
2806.29928	0.07383
2805.33492	0.07228
2804.37055	0.07071
2803.40619	0.06915
2802.44182	0.06765
2801.47746	0.06624
2800.5131	0.06493
2799.54873	0.06378
2798.58437	0.06284
2797.62	0.06209
2796.65564	0.06146
2795.69128	0.06086
2794.72691	0.06028
2793.76255	0.05971
2792.79818	0.05916
2791.83382	0.0586
2790.86946	0.05802
2789.90509	0.05739
2788.94073	0.05674
2787.97636	0.05609
2787.012	0.05547
2786.04764	0.05491
2785.08327	0.05437
2784.11891	0.05383
2783.15454	0.05334
2782.19018	0.05286
2781.22582	0.05234
2780.26145	0.05181
2779.29709	0.05129
2778.33272	0.0508
2777.36836	0.05033
2776.404	0.04988
2775.43963	0.0494
2774.47527	0.04889
2773.5109	0.04837
2772.54654	0.04786
2771.58218	0.04732
2770.61781	0.04676
2769.65345	0.0462
2768.68908	0.04566
2767.72472	0.04514
2766.76036	0.04459
2765.79599	0.04403
2764.83163	0.04348
2763.86726	0.04299
2762.9029	0.04256
2761.93854	0.04215
2760.97417	0.04174
2760.00981	0.04135
2759.04544	0.04099
2758.08108	0.04067
2757.11672	0.04037
2756.15235	0.04006
2755.18799	0.03977
2754.22362	0.0395
2753.25926	0.03926
2752.2949	0.03902
2751.33053	0.03876
2750.36617	0.03851
2749.4018	0.03828
2748.43744	0.03808
2747.47307	0.03791
2746.50871	0.03776
2745.54435	0.0376
2744.57998	0.03747
2743.61562	0.03735
2742.65125	0.03723
2741.68689	0.03711
2740.72253	0.03697
2739.75816	0.03683
2738.7938	0.03669
2737.82943	0.03655
2736.86507	0.03644
2735.90071	0.03636
2734.93634	0.03632
2733.97198	0.03628
2733.00761	0.03623
2732.04325	0.03614
2731.07889	0.03603
2730.11452	0.0359
2729.15016	0.03576
2728.18579	0.03559
2727.22143	0.03539
2726.25707	0.03518
2725.2927	0.03497
2724.32834	0.03475
2723.36397	0.03449
2722.39961	0.03419
2721.43525	0.03386
2720.47088	0.03354
2719.50652	0.03324
2718.54215	0.03292
2717.57779	0.03257
2716.61343	0.0322
2715.64906	0.03186
2714.6847	0.03155
2713.72033	0.03128
2712.75597	0.03099
2711.79161	0.03068
2710.82724	0.03039
2709.86288	0.03013
2708.89851	0.02987
2707.93415	0.02959
2706.96979	0.0293
2706.00542	0.029
2705.04106	0.02871
2704.07669	0.02841
2703.11233	0.02808
2702.14797	0.02774
2701.1836	0.02741
2700.21924	0.02708
2699.25487	0.02676
2698.29051	0.02643
2697.32615	0.02611
2696.36178	0.02581
2695.39742	0.02551
2694.43305	0.02521
2693.46869	0.02489
2692.50433	0.02456
2691.53996	0.02426
2690.5756	0.02402
2689.61123	0.02382
2688.64687	0.02363
2687.68251	0.02348
2686.71814	0.02336
2685.75378	0.02326
2684.78941	0.02315
2683.82505	0.02302
2682.86069	0.0229
2681.89632	0.02279
2680.93196	0.0227
2679.96759	0.02261
2679.00323	0.0225
2678.03887	0.02237
2677.0745	0.02222
2676.11014	0.02207
2675.14577	0.02191
2674.18141	0.02173
2673.21705	0.02152
2672.25268	0.02131
2671.28832	0.02109
2670.32395	0.02087
2669.35959	0.02064
2668.39523	0.02042
2667.43086	0.02021
2666.4665	0.02001
2665.50213	0.01981
2664.53777	0.01959
2663.57341	0.01935
2662.60904	0.01909
2661.64468	0.01887
2660.68031	0.01867
2659.71595	0.01845
2658.75159	0.01822
2657.78722	0.018
2656.82286	0.0178
2655.85849	0.0176
2654.89413	0.01739
2653.92977	0.01717
2652.9654	0.01696
2652.00104	0.01678
2651.03667	0.01663
2650.07231	0.01646
2649.10795	0.01629
2648.14358	0.01615
2647.17922	0.01603
2646.21485	0.01591
2645.25049	0.01579
2644.28613	0.01567
2643.32176	0.01555
2642.3574	0.01542
2641.39303	0.01529
2640.42867	0.01513
2639.46431	0.01493
2638.49994	0.01473
2637.53558	0.01454
2636.57121	0.01434
2635.60685	0.01409
2634.64249	0.01385
2633.67812	0.01364
2632.71376	0.01343
2631.74939	0.01319
2630.78503	0.01291
2629.82067	0.01266
2628.8563	0.01248
2627.89194	0.01234
2626.92757	0.01219
2625.96321	0.01203
2624.99885	0.01192
2624.03448	0.01187
2623.07012	0.01186
2622.10575	0.01183
2621.14139	0.01178
2620.17703	0.01173
2619.21266	0.01173
2618.2483	0.01175
2617.28393	0.01174
2616.31957	0.0117
2615.35521	0.01168
2614.39084	0.01172
2613.42648	0.01177
2612.46211	0.01179
2611.49775	0.0118
2610.53339	0.01181
2609.56902	0.01182
2608.60466	0.01183
2607.64029	0.01184
2606.67593	0.01185
2605.71156	0.01186
2604.7472	0.01188
2603.78284	0.01189
2602.81847	0.0119
2601.85411	0.01191
2600.88974	0.01192
2599.92538	0.01193
2598.96102	0.01194
2597.99665	0.01195
2597.03229	0.01196
2596.06792	0.01198
2595.10356	0.01199
2594.1392	0.012
2593.17483	0.01201
2592.21047	0.01202
2591.2461	0.01203
2590.28174	0.01204
2589.31738	0.01205
2588.35301	0.01206
2587.38865	0.01208
2586.42428	0.01209
2585.45992	0.0121
2584.49556	0.01211
2583.53119	0.01212
2582.56683	0.01213
2581.60246	0.01214
2580.6381	0.01215
2579.67374	0.01217
2578.70937	0.01218
2577.74501	0.01219
2576.78064	0.0122
2575.81628	0.01221
2574.85192	0.01222
2573.88755	0.01223
2572.92319	0.01224
2571.95882	0.01225
2570.99446	0.01227
2570.0301	0.01228
2569.06573	0.01229
2568.10137	0.0123
2567.137	0.01231
2566.17264	0.01232
2565.20828	0.01233
2564.24391	0.01234
2563.27955	0.01235
2562.31518	0.01237
2561.35082	0.01238
2560.38646	0.01239
2559.42209	0.0124
2558.45773	0.01241
2557.49336	0.01242
2556.529	0.01243
2555.56464	0.01244
2554.60027	0.01246
2553.63591	0.01247
2552.67154	0.01248
2551.70718	0.01249
2550.74282	0.0125
2549.77845	0.01251
2548.81409	0.01252
2547.84972	0.01253
2546.88536	0.01254
2545.921	0.01256
2544.95663	0.01257
2543.99227	0.01258
2543.0279	0.01259
2542.06354	0.0126
2541.09918	0.01261
2540.13481	0.01262
2539.17045	0.01263
2538.20608	0.01264
2537.24172	0.01266
2536.27736	0.01267
2535.31299	0.01268
2534.34863	0.01269
2533.38426	0.0127
2532.4199	0.01271
2531.45554	0.01272
2530.49117	0.01273
2529.52681	0.01275
2528.56244	0.01276
2527.59808	0.01277
2526.63372	0.01278
2525.66935	0.01279
2524.70499	0.0128
2523.74062	0.01281
2522.77626	0.01282
2521.8119	0.01283
2520.84753	0.01285
2519.88317	0.01286
2518.9188	0.01287
2517.95444	0.01288
2516.99008	0.01289
2516.02571	0.0129
2515.06135	0.01291
2514.09698	0.01292
2513.13262	0.01293
2512.16826	0.01295
2511.20389	0.01296
2510.23953	0.01297
2509.27516	0.01298
2508.3108	0.01299
2507.34644	0.013
2506.38207	0.01301
2505.41771	0.01302
2504.45334	0.01303
2503.48898	0.01305
2502.52462	0.01306
2501.56025	0.01307
2500.59589	0.01308
2499.63152	0.01309
2498.66716	0.0131
2497.7028	0.01311
2496.73843	0.01312
2495.77407	0.01314
2494.8097	0.01315
2493.84534	0.01316
2492.88098	0.01317
2491.91661	0.01318
2490.95225	0.01319
2489.98788	0.0132
2489.02352	0.01321
2488.05916	0.01322
2487.09479	0.01324
2486.13043	0.01325
2485.16606	0.01326
2484.2017	0.01327
2483.23734	0.01328
2482.27297	0.01329
2481.30861	0.0133
2480.34424	0.01331
2479.37988	0.01332
2478.41552	0.01334
2477.45115	0.01335
2476.48679	0.01336
2475.52242	0.01337
2474.55806	0.01338
2473.5937	0.01339
2472.62933	0.0134
2471.66497	0.01341
2470.7006	0.01343
2469.73624	0.01344
2468.77187	0.01345
2467.80751	0.01346
2466.84315	0.01347
2465.87878	0.01348
2464.91442	0.01349
2463.95005	0.0135
2462.98569	0.01351
2462.02133	0.01353
2461.05696	0.01354
2460.0926	0.01355
2459.12823	0.01356
2458.16387	0.01357
2457.19951	0.01358
2456.23514	0.01359
2455.27078	0.0136
2454.30641	0.01361
2453.34205	0.01363
2452.37769	0.01364
2451.41332	0.01365
2450.44896	0.01366
2449.48459	0.01367
2448.52023	0.01368
2447.55587	0.01369
2446.5915	0.0137
2445.62714	0.01372
2444.66277	0.01373
2443.69841	0.01374
2442.73405	0.01375
2441.76968	0.01376
2440.80532	0.01377
2439.84095	0.01378
2438.87659	0.01379
2437.91223	0.0138
2436.94786	0.01382
2435.9835	0.01383
2435.01913	0.01384
2434.05477	0.01385
2433.09041	0.01386
2432.12604	0.01387
2431.16168	0.01388
2430.19731	0.01389
2429.23295	0.0139
2428.26859	0.01392
2427.30422	0.01393
2426.33986	0.01394
2425.37549	0.01395
2424.41113	0.01396
2423.44677	0.01397
2422.4824	0.01398
2421.51804	0.01399
2420.55367	0.014
2419.58931	0.01402
2418.62495	0.01403
2417.66058	0.01404
2416.69622	0.01405
2415.73185	0.01406
2414.76749	0.01407
2413.80313	0.01408
2412.83876	0.01409
2411.8744	0.01411
2410.91003	0.01412
2409.94567	0.01413
2408.98131	0.01414
2408.01694	0.01415
2407.05258	0.01416
2406.08821	0.01417
2405.12385	0.01418
2404.15949	0.01419
2403.19512	0.01421
2402.23076	0.01422
2401.26639	0.01423
2400.30203	0.01424
2399.33767	0.01425
2398.3733	0.01426
2397.40894	0.01427
2396.44457	0.01428
2395.48021	0.01429
2394.51585	0.01431
2393.55148	0.01432
2392.58712	0.01433
2391.62275	0.01434
2390.65839	0.01435
2389.69403	0.01436
2388.72966	0.01437
2387.7653	0.01438
2386.80093	0.0144
2385.83657	0.01441
2384.87221	0.01442
2383.90784	0.01443
2382.94348	0.01444
2381.97911	0.01445
2381.01475	0.01446
2380.05039	0.01447
2379.08602	0.01448
2378.12166	0.0145
2377.15729	0.01451
2376.19293	0.01452
2375.22857	0.01453
2374.2642	0.01454
2373.29984	0.01455
2372.33547	0.01456
2371.37111	0.01457
2370.40675	0.01458
2369.44238	0.0146
2368.47802	0.01461
2367.51365	0.01462
2366.54929	0.01463
2365.58493	0.01464
2364.62056	0.01465
2363.6562	0.01466
2362.69183	0.01467
2361.72747	0.01469
2360.76311	0.0147
2359.79874	0.01471
2358.83438	0.01472
2357.87001	0.01473
2356.90565	0.01474
2355.94129	0.01475
2354.97692	0.01476
2354.01256	0.01477
2353.04819	0.01479
2352.08383	0.0148
2351.11947	0.01481
2350.1551	0.01482
2349.19074	0.01483
2348.22637	0.01484
2347.26201	0.01485
2346.29765	0.01486
2345.33328	0.01487
2344.36892	0.01489
2343.40455	0.0149
2342.44019	0.01491
2341.47583	0.01492
2340.51146	0.01493
2339.5471	0.01494
2338.58273	0.01495
2337.61837	0.01496
2336.65401	0.01498
2335.68964	0.01499
2334.72528	0.015
2333.76091	0.01501
2332.79655	0.01502
2331.83219	0.01503
2330.86782	0.01504
2329.90346	0.01505
2328.93909	0.01506
2327.97473	0.01508
2327.01036	0.01509
2326.046	0.0151
2325.08164	0.01511
2324.11727	0.01512
2323.15291	0.01513
2322.18854	0.01514
2321.22418	0.01515
2320.25982	0.01516
2319.29545	0.01518
2318.33109	0.01519
2317.36672	0.0152
2316.40236	0.01521
2315.438	0.01522
2314.47363	0.01523
2313.50927	0.01524
2312.5449	0.01525
2311.58054	0.01526
2310.61618	0.01528
2309.65181	0.01529
2308.68745	0.0153
2307.72308	0.01531
2306.75872	0.01532
2305.79436	0.01533
2304.82999	0.01534
2303.86563	0.01535
2302.90126	0.01537
2301.9369	0.01538
2300.97254	0.01539
2300.00817	0.0154
2299.04381	0.01541
2298.07944	0.01542
2297.11508	0.01543
2296.15072	0.01544
2295.18635	0.01545
2294.22199	0.01547
2293.25762	0.01548
2292.29326	0.01549
2291.3289	0.0155
2290.36453	0.01551
2289.40017	0.01552
2288.4358	0.01553
2287.47144	0.01554
2286.50708	0.01555
2285.54271	0.01557
2284.57835	0.01558
2283.61398	0.01559
2282.64962	0.0156
2281.68526	0.01561
2280.72089	0.01562
2279.75653	0.01563
2278.79216	0.01564
2277.8278	0.01566
2276.86344	0.01567
2275.89907	0.01568
2274.93471	0.01569
2273.97034	0.0157
2273.00598	0.01571
2272.04162	0.01572
2271.07725	0.01573
2270.11289	0.01574
2269.14852	0.01576
2268.18416	0.01577
2267.2198	0.01578
2266.25543	0.01579
2265.29107	0.0158
2264.3267	0.01581
2263.36234	0.01582
2262.39798	0.01583
2261.43361	0.01584
2260.46925	0.01586
2259.50488	0.01587
2258.54052	0.01588
2257.57616	0.01589
2256.61179	0.0159
2255.64743	0.01591
2254.68306	0.01592
2253.7187	0.01593
2252.75434	0.01595
2251.78997	0.01596
2250.82561	0.01597
2249.86124	0.01598
2248.89688	0.01599
2247.93252	0.016
2246.96815	0.01601
2246.00379	0.01602
2245.03942	0.01603
2244.07506	0.01605
2243.1107	0.01606
2242.14633	0.01607
2241.18197	0.01608
2240.2176	0.01609
2239.25324	0.0161
2238.28888	0.01611
2237.32451	0.01612
2236.36015	0.01613
2235.39578	0.01615
2234.43142	0.01616
2233.46706	0.01617
2232.50269	0.01618
2231.53833	0.01619
2230.57396	0.0162
2229.6096	0.01621
2228.64524	0.01622
2227.68087	0.01623
2226.71651	0.01625
2225.75214	0.01626
2224.78778	0.01627
2223.82342	0.01628
2222.85905	0.01629
2221.89469	0.0163
2220.93032	0.01631
2219.96596	0.01632
2219.0016	0.01634
2218.03723	0.01635
2217.07287	0.01636
2216.1085	0.01637
2215.14414	0.01638
2214.17978	0.01639
2213.21541	0.0164
2212.25105	0.01641
2211.28668	0.01642
2210.32232	0.01644
2209.35796	0.01645
2208.39359	0.01646
2207.42923	0.01647
2206.46486	0.01648
2205.5005	0.01649
2204.53614	0.0165
2203.57177	0.01651
2202.60741	0.01652
2201.64304	0.01654
2200.67868	0.01655
2199.71432	0.01656
2198.74995	0.01657
2197.78559	0.01658
2196.82122	0.01659
2195.85686	0.0166
2194.8925	0.01661
2193.92813	0.01663
2192.96377	0.01664
2191.9994	0.01665
2191.03504	0.01666
2190.07068	0.01667
2189.10631	0.01668
2188.14195	0.01669
2187.17758	0.0167
2186.21322	0.01671
2185.24885	0.01673
2184.28449	0.01674
2183.32013	0.01675
2182.35576	0.01676
2181.3914	0.01677
2180.42703	0.01678
2179.46267	0.01679
2178.49831	0.0168
2177.53394	0.01681
2176.56958	0.01683
2175.60521	0.01684
2174.64085	0.01685
2173.67649	0.01686
2172.71212	0.01687
2171.74776	0.01688
2170.78339	0.01689
2169.81903	0.0169
2168.85467	0.01692
2167.8903	0.01693
2166.92594	0.01694
2165.96157	0.01695
2164.99721	0.01696
2164.03285	0.01697
2163.06848	0.01698
2162.10412	0.01699
2161.13975	0.017
2160.17539	0.01702
2159.21103	0.01703
2158.24666	0.01704
2157.2823	0.01705
2156.31793	0.01706
2155.35357	0.01707
2154.38921	0.01708
2153.42484	0.01709
2152.46048	0.0171
2151.49611	0.01712
2150.53175	0.01713
2149.56739	0.01714
2148.60302	0.01715
2147.63866	0.01716
2146.67429	0.01717
2145.70993	0.01718
2144.74557	0.01719
2143.7812	0.01721
2142.81684	0.01722
2141.85247	0.01723
2140.88811	0.01724
2139.92375	0.01725
2138.95938	0.01726
2137.99502	0.01727
2137.03065	0.01728
2136.06629	0.01729
2135.10193	0.01731
2134.13756	0.01732
2133.1732	0.01733
2132.20883	0.01734
2131.24447	0.01735
2130.28011	0.01736
2129.31574	0.01737
2128.35138	0.01738
2127.38701	0.01739
2126.42265	0.01741
2125.45829	0.01742
2124.49392	0.01743
2123.52956	0.01744
2122.56519	0.01745
2121.60083	0.01746
2120.63647	0.01747
2119.6721	0.01748
2118.70774	0.01749
2117.74337	0.01751
2116.77901	0.01752
2115.81465	0.01753
2114.85028	0.01754
2113.88592	0.01755
2112.92155	0.01756
2111.95719	0.01757
2110.99283	0.01758
2110.02846	0.0176
2109.0641	0.01761
2108.09973	0.01762
2107.13537	0.01763
2106.17101	0.01764
2105.20664	0.01765
2104.24228	0.01766
2103.27791	0.01767
2102.31355	0.01768
2101.34919	0.0177
2100.38482	0.01771
2099.42046	0.01772
2098.45609	0.01773
2097.49173	0.01774
2096.52737	0.01775
2095.563	0.01776
2094.59864	0.01777
2093.63427	0.01778
2092.66991	0.0178
2091.70555	0.01781
2090.74118	0.01782
2089.77682	0.01783
2088.81245	0.01784
2087.84809	0.01785
2086.88373	0.01786
2085.91936	0.01787
2084.955	0.01789
2083.99063	0.0179
2083.02627	0.01791
2082.06191	0.01792
2081.09754	0.01793
2080.13318	0.01794
2079.16881	0.01795
2078.20445	0.01796
2077.24009	0.01797
2076.27572	0.01799
2075.31136	0.018
2074.34699	0.01801
2073.38263	0.01802
2072.41827	0.01803
2071.4539	0.01804
2070.48954	0.01805
2069.52517	0.01806
2068.56081	0.01807
2067.59645	0.01809
2066.63208	0.0181
2065.66772	0.01811
2064.70335	0.01812
2063.73899	0.01813
2062.77463	0.01814
2061.81026	0.01815
2060.8459	0.01827
2059.88153	0.01831
2058.91717	0.01834
2057.95281	0.01838
2056.98844	0.01839
2056.02408	0.0183
2055.05971	0.01816
2054.09535	0.01806
2053.13099	0.01799
2052.16662	0.01783
2051.20226	0.01752
2050.23789	0.01715
2049.27353	0.01683
2048.30917	0.01657
2047.3448	0.01631
2046.38044	0.01601
2045.41607	0.01569
2044.45171	0.01544
2043.48734	0.01528
2042.52298	0.01515
2041.55862	0.01501
2040.59425	0.01487
2039.62989	0.01483
2038.66552	0.01493
2037.70116	0.01509
2036.7368	0.0151
2035.77243	0.01513
2034.80807	0.0152
2033.8437	0.01528
2032.87934	0.01534
2031.91498	0.0154
2030.95061	0.01549
2029.98625	0.01559
2029.02188	0.01562
2028.05752	0.01552
2027.09316	0.0153
2026.12879	0.01503
2025.16443	0.0148
2024.20006	0.01463
2023.2357	0.01447
2022.27134	0.01432
2021.30697	0.01421
2020.34261	0.01416
2019.37824	0.01415
2018.41388	0.01415
2017.44952	0.01415
2016.48515	0.0142
2015.52079	0.01431
2014.55642	0.01447
2013.59206	0.01466
2012.6277	0.01488
2011.66333	0.01514
2010.69897	0.01548
2009.7346	0.01584
2008.77024	0.0162
2007.80588	0.01652
2006.84151	0.01679
2005.87715	0.01703
2004.91278	0.01726
2003.94842	0.01745
2002.98406	0.01743
2002.01969	0.01723
2001.05533	0.01705
2000.09096	0.01691
1999.1266	0.01666
1998.16224	0.0163
1997.19787	0.01594
1996.23351	0.01565
1995.26914	0.01541
1994.30478	0.0152
1993.34042	0.015
1992.37605	0.01487
1991.41169	0.01485
1990.44732	0.01491
1989.48296	0.01501
1988.5186	0.01515
1987.55423	0.01533
1986.58987	0.0156
1985.6255	0.01596
1984.66114	0.01635
1983.69678	0.01678
1982.73241	0.01725
1981.76805	0.01774
1980.80368	0.01811
1979.83932	0.01832
1978.87496	0.01848
1977.91059	0.01855
1976.94623	0.01839
1975.98186	0.01806
1975.0175	0.01769
1974.05314	0.01737
1973.08877	0.01709
1972.12441	0.01682
1971.16004	0.01653
1970.19568	0.01621
1969.23132	0.01587
1968.26695	0.01558
1967.30259	0.01536
1966.33822	0.01516
1965.37386	0.0149
1964.4095	0.0146
1963.44513	0.01434
1962.48077	0.01418
1961.5164	0.01409
1960.55204	0.01404
1959.58768	0.01404
1958.62331	0.01415
1957.65895	0.01436
1956.69458	0.01447
1955.73022	0.01436
1954.76586	0.01414
1953.80149	0.01376
1952.83713	0.01315
1951.87276	0.01244
1950.9084	0.01174
1949.94404	0.01107
1948.97967	0.01047
1948.01531	0.00999
1947.05094	0.00964
1946.08658	0.00934
1945.12222	0.00911
1944.15785	0.00894
1943.19349	0.00882
1942.22912	0.00876
1941.26476	0.00876
1940.3004	0.00886
1939.33603	0.00908
1938.37167	0.00945
1937.4073	0.00993
1936.44294	0.01053
1935.47858	0.01133
1934.51421	0.01211
1933.54985	0.01252
1932.58548	0.01259
1931.62112	0.01248
1930.65676	0.01217
1929.69239	0.01172
1928.72803	0.01118
1927.76366	0.01058
1926.7993	0.00999
1925.83494	0.00947
1924.87057	0.00905
1923.90621	0.00879
1922.94184	0.00873
1921.97748	0.0088
1921.01312	0.00887
1920.04875	0.0089
1919.08439	0.00892
1918.12002	0.00894
1917.15566	0.00902
1916.1913	0.00925
1915.22693	0.00964
1914.26257	0.01019
1913.2982	0.01087
1912.33384	0.01153
1911.36948	0.01192
1910.40511	0.01208
1909.44075	0.0124
1908.47638	0.01305
1907.51202	0.01382
1906.54766	0.01427
1905.58329	0.01428
1904.61893	0.01431
1903.65456	0.01457
1902.6902	0.01506
1901.72583	0.01576
1900.76147	0.01637
1899.79711	0.0167
1898.83274	0.01683
1897.86838	0.01681
1896.90401	0.01674
1895.93965	0.0167
1894.97529	0.01671
1894.01092	0.01686
1893.04656	0.01713
1892.08219	0.01749
1891.11783	0.01795
1890.15347	0.01852
1889.1891	0.01916
1888.22474	0.01989
1887.26037	0.02072
1886.29601	0.02163
1885.33165	0.02262
1884.36728	0.0236
1883.40292	0.0245
1882.43855	0.0255
1881.47419	0.02681
1880.50983	0.02816
1879.54546	0.02899
1878.5811	0.02905
1877.61673	0.02832
1876.65237	0.02728
1875.68801	0.02646
1874.72364	0.02589
1873.75928	0.02549
1872.79491	0.02517
1871.83055	0.02497
1870.86619	0.02498
1869.90182	0.02518
1868.93746	0.02548
1867.97309	0.0259
1867.00873	0.02649
1866.04437	0.02731
1865.08	0.02836
1864.11564	0.02962
1863.15127	0.03107
1862.18691	0.03274
1861.22255	0.03472
1860.25818	0.037
1859.29382	0.0393
1858.32945	0.04121
1857.36509	0.04261
1856.40073	0.04358
1855.43636	0.04397
1854.472	0.04383
1853.50763	0.04359
1852.54327	0.0435
1851.57891	0.04362
1850.61454	0.044
1849.65018	0.04465
1848.68581	0.04545
1847.72145	0.04626
1846.75709	0.04714
1845.79272	0.04826
1844.82836	0.04969
1843.86399	0.05146
1842.89963	0.05373
1841.93527	0.05651
1840.9709	0.05915
1840.00654	0.06128
1839.04217	0.0634
1838.07781	0.06595
1837.11345	0.0688
1836.14908	0.07135
1835.18472	0.07366
1834.22035	0.07605
1833.25599	0.07828
1832.29163	0.08007
1831.32726	0.08195
1830.3629	0.08447
1829.39853	0.08753
1828.43417	0.09095
1827.46981	0.09471
1826.50544	0.09883
1825.54108	0.10328
1824.57671	0.10817
1823.61235	0.11368
1822.64799	0.11966
1821.68362	0.12576
1820.71926	0.13215
1819.75489	0.13895
1818.79053	0.14578
1817.82617	0.15229
1816.8618	0.1591
1815.89744	0.16696
1814.93307	0.17578
1813.96871	0.18497
1813.00435	0.19421
1812.03998	0.20393
1811.07562	0.21407
1810.11125	0.2245
1809.14689	0.23561
1808.18253	0.24756
1807.21816	0.25998
1806.2538	0.27276
1805.28943	0.2862
1804.32507	0.30015
1803.36071	0.31401
1802.39634	0.32771
1801.43198	0.34147
1800.46761	0.35539
1799.50325	0.36942
1798.53889	0.38377
1797.57452	0.39891
1796.61016	0.41464
1795.64579	0.43071
1794.68143	0.44766
1793.71707	0.46605
1792.7527	0.48589
1791.78834	0.50685
1790.82397	0.52869
1789.85961	0.55147
1788.89525	0.57525
1787.93088	0.5997
1786.96652	0.62417
1786.00215	0.6475
1785.03779	0.6686
1784.07343	0.68691
1783.10906	0.70159
1782.1447	0.71205
1781.18033	0.71808
1780.21597	0.72007
1779.25161	0.71851
1778.28724	0.71308
1777.32288	0.70381
1776.35851	0.69093
1775.39415	0.67484
1774.42979	0.65612
1773.46542	0.63507
1772.50106	0.61211
1771.53669	0.58859
1770.57233	0.56558
1769.60797	0.54366
1768.6436	0.52314
1767.67924	0.50437
1766.71487	0.4881
1765.75051	0.47472
1764.78615	0.46429
1763.82178	0.4565
1762.85742	0.45073
1761.89305	0.44751
1760.92869	0.44781
1759.96432	0.45156
1758.99996	0.45893
1758.0356	0.4698
1757.07123	0.48309
1756.10687	0.49725
1755.1425	0.51105
1754.17814	0.52379
1753.21378	0.53504
1752.24941	0.54465
1751.28505	0.55202
1750.32068	0.5559
1749.35632	0.55619
1748.39196	0.55382
1747.42759	0.54924
1746.46323	0.54263
1745.49886	0.53329
1744.5345	0.52048
1743.57014	0.50618
1742.60577	0.49168
1741.64141	0.47733
1740.67704	0.46315
1739.71268	0.44989
1738.74832	0.43898
1737.78395	0.43124
1736.81959	0.42632
1735.85522	0.42382
1734.89086	0.42334
1733.9265	0.4245
1732.96213	0.42714
1731.99777	0.43118
1731.0334	0.43676
1730.06904	0.444
1729.10468	0.45138
1728.14031	0.45881
1727.17595	0.4672
1726.21158	0.47692
1725.24722	0.48812
1724.28286	0.5012
1723.31849	0.51609
1722.35413	0.53208
1721.38976	0.54914
1720.4254	0.56824
1719.46104	0.58854
1718.49667	0.60914
1717.53231	0.62901
1716.56794	0.6469
1715.60358	0.66168
1714.63922	0.67237
1713.67485	0.67855
1712.71049	0.68047
1711.74612	0.67851
1710.78176	0.67054
1709.8174	0.65676
1708.85303	0.63816
1707.88867	0.61509
1706.9243	0.58662
1705.95994	0.55335
1704.99558	0.51857
1704.03121	0.48387
1703.06685	0.44968
1702.10248	0.41755
1701.13812	0.38879
1700.17376	0.36377
1699.20939	0.34274
1698.24503	0.32598
1697.28066	0.31385
1696.3163	0.30656
1695.35194	0.30157
1694.38757	0.29698
1693.42321	0.29337
1692.45884	0.29144
1691.49448	0.29092
1690.53012	0.29157
1689.56575	0.29358
1688.60139	0.29637
1687.63702	0.29823
1686.67266	0.29994
1685.7083	0.30131
1684.74393	0.30223
1683.77957	0.30258
1682.8152	0.30324
1681.85084	0.30449
1680.88648	0.30576
1679.92211	0.30623
1678.95775	0.30625
1677.99338	0.30634
1677.02902	0.30687
1676.06466	0.30844
1675.10029	0.3114
1674.13593	0.31509
1673.17156	0.31878
1672.2072	0.32202
1671.24284	0.32685
1670.27847	0.33487
1669.31411	0.34529
1668.34974	0.35737
1667.38538	0.37101
1666.42102	0.3865
1665.45665	0.40386
1664.49229	0.42159
1663.52792	0.43613
1662.56356	0.44815
1661.5992	0.45862
1660.63483	0.46732
1659.67047	0.47381
1658.7061	0.47709
1657.74174	0.47526
1656.77738	0.46796
1655.81301	0.45693
1654.84865	0.44312
1653.88428	0.42689
1652.91992	0.40854
1651.95556	0.38831
1650.99119	0.36663
1650.02683	0.34493
1649.06246	0.32436
1648.0981	0.305
1647.13374	0.28643
1646.16937	0.26821
1645.20501	0.25134
1644.24064	0.23658
1643.27628	0.22421
1642.31192	0.21397
1641.34755	0.2047
1640.38319	0.1959
1639.41882	0.18965
1638.45446	0.18554
1637.4901	0.18352
1636.52573	0.18331
1635.56137	0.1839
1634.597	0.18401
1633.63264	0.1838
1632.66828	0.18426
1631.70391	0.18552
1630.73955	0.18732
1629.77518	0.18947
1628.81082	0.19163
1627.84646	0.19266
1626.88209	0.19286
1625.91773	0.19276
1624.95336	0.19221
1623.989	0.19112
1623.02464	0.19023
1622.06027	0.19091
1621.09591	0.193
1620.13154	0.19585
1619.16718	0.19908
1618.20281	0.20243
1617.23845	0.20554
1616.27409	0.20813
1615.30972	0.2103
1614.34536	0.21226
1613.38099	0.21367
1612.41663	0.21393
1611.45227	0.21231
1610.4879	0.2088
1609.52354	0.2042
1608.55917	0.19869
1607.59481	0.19228
1606.63045	0.18486
1605.66608	0.17604
1604.70172	0.16588
1603.73735	0.15618
1602.77299	0.14771
1601.80863	0.14029
1600.84426	0.13383
1599.8799	0.12833
1598.91553	0.12379
1597.95117	0.12001
1596.98681	0.11662
1596.02244	0.11344
1595.05808	0.11028
1594.09371	0.10707
1593.12935	0.10383
1592.16499	0.10033
1591.20062	0.09633
1590.23626	0.09197
1589.27189	0.08757
1588.30753	0.08318
1587.34317	0.07792
1586.3788	0.07144
1585.41444	0.06447
1584.45007	0.05752
1583.48571	0.05086
1582.52135	0.04477
1581.55698	0.03936
1580.59262	0.03375
1579.62825	0.02799
1578.66389	0.02287
1577.69953	0.01877
1576.73516	0.0156
1575.7708	0.01311
1574.80643	0.01165
1573.84207	0.0117
1572.87771	0.01353
1571.91334	0.01743
1570.94898	0.02364
1569.98461	0.02854
1569.02025	0.03157
1568.05589	0.03464
1567.09152	0.03832
1566.12716	0.0423
1565.16279	0.04563
1564.19843	0.04811
1563.23407	0.05085
1562.2697	0.05464
1561.30534	0.05858
1560.34097	0.06205
1559.37661	0.06537
1558.41225	0.06851
1557.44788	0.07126
1556.48352	0.07429
1555.51915	0.07784
1554.55479	0.08177
1553.59043	0.08579
1552.62606	0.09003
1551.6617	0.09504
1550.69733	0.09905
1549.73297	0.10262
1548.76861	0.10687
1547.80424	0.1112
1546.83988	0.11409
1545.87551	0.11864
1544.91115	0.12587
1543.94679	0.13408
1542.98242	0.14282
1542.01806	0.15231
1541.05369	0.16348
1540.08933	0.17631
1539.12497	0.18973
1538.1606	0.20267
1537.19624	0.21538
1536.23187	0.22817
1535.26751	0.24056
1534.30315	0.25222
1533.33878	0.26259
1532.37442	0.27004
1531.41005	0.27405
1530.44569	0.27515
1529.48133	0.27389
1528.51696	0.27006
1527.5526	0.26226
1526.58823	0.25314
1525.62387	0.24403
1524.65951	0.23471
1523.69514	0.22509
1522.73078	0.21482
1521.76641	0.20388
1520.80205	0.1931
1519.83769	0.18338
1518.87332	0.1748
1517.90896	0.16549
1516.94459	0.15446
1515.98023	0.14314
1515.01587	0.13239
1514.0515	0.12277
1513.08714	0.11424
1512.12277	0.10697
1511.15841	0.10112
1510.19405	0.09583
1509.22968	0.08985
1508.26532	0.0841
1507.30095	0.07936
1506.33659	0.07541
1505.37223	0.0718
1504.40786	0.06817
1503.4435	0.06589
1502.47913	0.06567
1501.51477	0.06659
1500.55041	0.06745
1499.58604	0.06835
1498.62168	0.06953
1497.65731	0.07098
1496.69295	0.0727
1495.72859	0.07444
1494.76422	0.07587
1493.79986	0.07906
1492.83549	0.08575
1491.87113	0.09484
1490.90677	0.10543
1489.9424	0.11694
1488.97804	0.12905
1488.01367	0.14125
1487.04931	0.15251
1486.08495	0.16242
1485.12058	0.17116
1484.15622	0.17798
1483.19185	0.1823
1482.22749	0.18509
1481.26312	0.18696
1480.29876	0.18803
1479.3344	0.18805
1478.37003	0.18667
1477.40567	0.18453
1476.4413	0.18245
1475.47694	0.18025
1474.51258	0.17873
1473.54821	0.17887
1472.58385	0.18094
1471.61948	0.18505
1470.65512	0.19102
1469.69076	0.19795
1468.72639	0.20422
1467.76203	0.20885
1466.79766	0.2122
1465.8333	0.21456
1464.86894	0.2161
1463.90457	0.21684
1462.94021	0.21698
1461.97584	0.21648
1461.01148	0.21512
1460.04712	0.21346
1459.08275	0.21267
1458.11839	0.21266
1457.15402	0.21335
1456.18966	0.21476
1455.2253	0.21682
1454.26093	0.21932
1453.29657	0.22186
1452.3322	0.22444
1451.36784	0.22764
1450.40348	0.23154
1449.43911	0.236
1448.47475	0.24048
1447.51038	0.24357
1446.54602	0.24444
1445.58166	0.24304
1444.61729	0.24024
1443.65293	0.23727
1442.68856	0.23465
1441.7242	0.23244
1440.75984	0.23024
1439.79547	0.22812
1438.83111	0.22661
1437.86674	0.22606
1436.90238	0.22645
1435.93802	0.22737
1434.97365	0.22846
1434.00929	0.23038
1433.04492	0.234
1432.08056	0.23977
1431.1162	0.24767
1430.15183	0.257
1429.18747	0.26762
1428.2231	0.27946
1427.25874	0.2922
1426.29438	0.3053
1425.33001	0.31806
1424.36565	0.32995
1423.40128	0.3414
1422.43692	0.35235
1421.47256	0.36237
1420.50819	0.37129
1419.54383	0.37923
1418.57946	0.38617
1417.6151	0.39224
1416.65074	0.39764
1415.68637	0.40212
1414.72201	0.4057
1413.75764	0.40858
1412.79328	0.41069
1411.82892	0.41227
1410.86455	0.41412
1409.90019	0.41635
1408.93582	0.41887
1407.97146	0.42163
1407.0071	0.42436
1406.04273	0.42686
1405.07837	0.42891
1404.114	0.43078
1403.14964	0.4327
1402.18528	0.43463
1401.22091	0.43663
1400.25655	0.43904
1399.29218	0.44216
1398.32782	0.44583
1397.36346	0.44984
1396.39909	0.45442
1395.43473	0.45967
1394.47036	0.46521
1393.506	0.47031
1392.54164	0.47443
1391.57727	0.47759
1390.61291	0.47974
1389.64854	0.48058
1388.68418	0.47988
1387.71982	0.47754
1386.75545	0.47382
1385.79109	0.4692
1384.82672	0.46383
1383.86236	0.45774
1382.898	0.45098
1381.93363	0.44424
1380.96927	0.43806
1380.0049	0.4321
1379.04054	0.42578
1378.07618	0.41907
1377.11181	0.41213
1376.14745	0.405
1375.18308	0.39752
1374.21872	0.38949
1373.25436	0.38069
1372.28999	0.37108
1371.32563	0.36078
1370.36126	0.34995
1369.3969	0.33867
1368.43254	0.32698
1367.46817	0.31515
1366.50381	0.30351
1365.53944	0.29241
1364.57508	0.28222
1363.61072	0.27318
1362.64635	0.26558
1361.68199	0.26004
1360.71762	0.25701
1359.75326	0.25628
1358.7889	0.25736
1357.82453	0.25981
1356.86017	0.26328
1355.8958	0.26765
1354.93144	0.27307
1353.96708	0.2798
1353.00271	0.28813
1352.03835	0.29794
1351.07398	0.30853
1350.10962	0.31989
1349.14526	0.33292
1348.18089	0.34821
1347.21653	0.36579
1346.25216	0.38539
1345.2878	0.40654
1344.32344	0.42871
1343.35907	0.45133
1342.39471	0.47389
1341.43034	0.49589
1340.46598	0.51667
1339.50161	0.53561
1338.53725	0.55223
1337.57289	0.56612
1336.60852	0.57688
1335.64416	0.58416
1334.67979	0.58773
1333.71543	0.58759
1332.75107	0.58393
1331.7867	0.57698
1330.82234	0.56697
1329.85797	0.55408
1328.89361	0.53857
1327.92925	0.52101
1326.96488	0.50245
1326.00052	0.48381
1325.03615	0.46545
1324.07179	0.44762
1323.10743	0.43067
1322.14306	0.41491
1321.1787	0.40059
1320.21433	0.38798
1319.24997	0.3774
1318.28561	0.36907
1317.32124	0.36311
1316.35688	0.35953
1315.39251	0.35833
1314.42815	0.35951
1313.46379	0.3629
1312.49942	0.36814
1311.53506	0.37476
1310.57069	0.38233
1309.60633	0.39046
1308.64197	0.39859
1307.6776	0.40602
1306.71324	0.41211
1305.74887	0.41659
1304.78451	0.41928
1303.82015	0.41997
1302.85578	0.41839
1301.89142	0.41431
1300.92705	0.4078
1299.96269	0.39924
1298.99833	0.38895
1298.03396	0.3771
1297.0696	0.36399
1296.10523	0.35009
1295.14087	0.33594
1294.17651	0.32194
1293.21214	0.30832
1292.24778	0.29533
1291.28341	0.28324
1290.31905	0.27232
1289.35469	0.26271
1288.39032	0.25442
1287.42596	0.24748
1286.46159	0.24198
1285.49723	0.23807
1284.53287	0.23581
1283.5685	0.23521
1282.60414	0.23631
1281.63977	0.23925
1280.67541	0.24408
1279.71105	0.25071
1278.74668	0.25891
1277.78232	0.26842
1276.81795	0.27904
1275.85359	0.29052
1274.88923	0.30262
1273.92486	0.3151
1272.9605	0.32777
1271.99613	0.34039
1271.03177	0.35265
1270.06741	0.36412
1269.10304	0.37441
1268.13868	0.38319
1267.17431	0.39032
1266.20995	0.39576
1265.24559	0.3995
1264.28122	0.40163
1263.31686	0.40245
1262.35249	0.40239
1261.38813	0.40179
1260.42377	0.40081
1259.4594	0.39959
1258.49504	0.39832
1257.53067	0.39724
1256.56631	0.3965
1255.60195	0.39614
1254.63758	0.39621
1253.67322	0.39686
1252.70885	0.39825
1251.74449	0.40029
1250.78013	0.40273
1249.81576	0.40531
1248.8514	0.40781
1247.88703	0.41014
1246.92267	0.41217
1245.95831	0.4137
1244.99394	0.41459
1244.02958	0.41493
1243.06521	0.41494
1242.10085	0.41482
1241.13649	0.41473
1240.17212	0.41482
1239.20776	0.41522
1238.24339	0.41604
1237.27903	0.41728
1236.31467	0.41901
1235.3503	0.42153
1234.38594	0.42535
1233.42157	0.431
1232.45721	0.43865
1231.49285	0.44816
1230.52848	0.45913
1229.56412	0.47099
1228.59975	0.48306
1227.63539	0.49469
1226.67103	0.50534
1225.70666	0.51469
1224.7423	0.52259
1223.77793	0.52892
1222.81357	0.53345
1221.84921	0.536
1220.88484	0.53657
1219.92048	0.53529
1218.95611	0.53231
1217.99175	0.52769
1217.02739	0.52149
1216.06302	0.51394
1215.09866	0.50548
1214.13429	0.49664
1213.16993	0.48786
1212.20557	0.47955
1211.2412	0.47203
1210.27684	0.46545
1209.31247	0.45963
1208.34811	0.45415
1207.38375	0.44866
1206.41938	0.44304
1205.45502	0.43741
1204.49065	0.43191
1203.52629	0.4266
1202.56193	0.42157
1201.59756	0.41703
1200.6332	0.41316
1199.66883	0.40997
1198.70447	0.40731
1197.7401	0.40503
1196.77574	0.40311
1195.81138	0.40163
1194.84701	0.40055
1193.88265	0.39975
1192.91828	0.39915
1191.95392	0.39877
1190.98956	0.3986
1190.02519	0.39855
1189.06083	0.39848
1188.09646	0.39837
1187.1321	0.39849
1186.16774	0.39918
1185.20337	0.40081
1184.23901	0.40366
1183.27464	0.40798
1182.31028	0.41389
1181.34592	0.42129
1180.38155	0.42983
1179.41719	0.439
1178.45282	0.4483
1177.48846	0.45737
1176.5241	0.4659
1175.55973	0.47356
1174.59537	0.48011
1173.631	0.48553
1172.66664	0.48998
1171.70228	0.49368
1170.73791	0.49679
1169.77355	0.49949
1168.80918	0.50213
1167.84482	0.50518
1166.88046	0.50905
1165.91609	0.51394
1164.95173	0.51994
1163.98736	0.52708
1163.023	0.5353
1162.05864	0.54434
1161.09427	0.55366
1160.12991	0.56257
1159.16554	0.57041
1158.20118	0.5766
1157.23682	0.58059
1156.27245	0.58189
1155.30809	0.58019
1154.34372	0.57546
1153.37936	0.56791
1152.415	0.55782
1151.45063	0.54549
1150.48627	0.53137
1149.5219	0.51607
1148.55754	0.50029
1147.59318	0.48468
1146.62881	0.46976
1145.66445	0.45599
1144.70008	0.44378
1143.73572	0.43341
1142.77136	0.42496
1141.80699	0.41833
1140.84263	0.4134
1139.87826	0.41006
1138.9139	0.40825
1137.94954	0.40784
1136.98517	0.40864
1136.02081	0.41052
1135.05644	0.41346
1134.09208	0.41749
1133.12772	0.42261
1132.16335	0.42879
1131.19899	0.436
1130.23462	0.44426
1129.27026	0.45357
1128.3059	0.46383
1127.34153	0.47492
1126.37717	0.48682
1125.4128	0.4996
1124.44844	0.5133
1123.48408	0.52791
1122.51971	0.54339
1121.55535	0.55976
1120.59098	0.57701
1119.62662	0.59507
1118.66226	0.61379
1117.69789	0.63301
1116.73353	0.65264
1115.76916	0.67265
1114.8048	0.69296
1113.84044	0.71329
1112.87607	0.73334
1111.91171	0.75278
1110.94734	0.77118
1109.98298	0.78798
1109.01862	0.80258
1108.05425	0.81448
1107.08989	0.82338
1106.12552	0.82917
1105.16116	0.83179
1104.1968	0.8312
1103.23243	0.82757
1102.26807	0.82129
1101.3037	0.8128
1100.33934	0.80256
1099.37498	0.791
1098.41061	0.77866
1097.44625	0.7662
1096.48188	0.75434
1095.51752	0.74366
1094.55316	0.73478
1093.58879	0.7284
1092.62443	0.72518
1091.66006	0.72555
1090.6957	0.72963
1089.73134	0.73732
1088.76697	0.74844
1087.80261	0.76263
1086.83824	0.77929
1085.87388	0.79766
1084.90952	0.81689
1083.94515	0.83617
1082.98079	0.85483
1082.01642	0.87215
1081.05206	0.88741
1080.0877	0.9001
1079.12333	0.91
1078.15897	0.91704
1077.1946	0.92124
1076.23024	0.9228
1075.26588	0.92221
1074.30151	0.92027
1073.33715	0.91786
1072.37278	0.91568
1071.40842	0.91428
1070.44406	0.91416
1069.47969	0.91582
1068.51533	0.91962
1067.55096	0.92562
1066.5866	0.93362
1065.62224	0.9433
1064.65787	0.95412
1063.69351	0.96532
1062.72914	0.97582
1061.76478	0.98449
1060.80042	0.99061
1059.83605	0.99395
1058.87169	0.99465
1057.90732	0.99312
1056.94296	0.99004
1055.97859	0.98626
1055.01423	0.98268
1054.04987	0.98002
1053.0855	0.97862
1052.12114	0.97861
1051.15677	0.98004
1050.19241	0.98284
1049.22805	0.98664
1048.26368	0.99078
1047.29932	0.9946
1046.33495	0.99763
1045.37059	0.99958
1044.40623	1
1043.44186	0.99828
1042.4775	0.99381
1041.51313	0.98621
1040.54877	0.97532
1039.58441	0.96106
1038.62004	0.94349
1037.65568	0.92302
1036.69131	0.90061
1035.72695	0.8775
1034.76259	0.85477
1033.79822	0.83305
1032.83386	0.8127
1031.86949	0.794
1030.90513	0.77718
1029.94077	0.76225
1028.9764	0.74902
1028.01204	0.73749
1027.04767	0.72789
1026.08331	0.7206
1025.11895	0.71593
1024.15458	0.71403
1023.19022	0.71505
1022.22585	0.71916
1021.26149	0.72634
1020.29713	0.73615
1019.33276	0.74793
1018.3684	0.76104
1017.40403	0.77496
1016.43967	0.78908
1015.47531	0.80255
1014.51094	0.8144
1013.54658	0.82383
1012.58221	0.83035
1011.61785	0.83352
1010.65349	0.83287
1009.68912	0.82796
1008.72476	0.81874
1007.76039	0.80557
1006.79603	0.7889
1005.83167	0.76915
1004.8673	0.74679
1003.90294	0.72255
1002.93857	0.69743
1001.97421	0.67241
1001.00985	0.64819
1000.04548	0.62527
999.08112	0.60411
998.11675	0.58513
997.15239	0.56857
996.18803	0.55432
995.22366	0.54214
994.2593	0.53181
993.29493	0.52323
992.33057	0.51615
991.36621	0.51008
990.40184	0.50454
989.43748	0.49928
988.47311	0.49424
987.50875	0.48925
986.54439	0.48393
985.58002	0.47788
984.61566	0.47095
983.65129	0.46322
982.68693	0.45466
981.72257	0.44508
980.7582	0.43437
979.79384	0.42274
978.82947	0.41063
977.86511	0.39837
976.90075	0.38599
975.93638	0.37347
974.97202	0.36096
974.00765	0.34876
973.04329	0.337
972.07893	0.32566
971.11456	0.31482
970.1502	0.30486
969.18583	0.29624
968.22147	0.28914
967.25711	0.28345
966.29274	0.27906
965.32838	0.27609
964.36401	0.27473
963.39965	0.27504
962.43529	0.27688
961.47092	0.28016
960.50656	0.28485
959.54219	0.29088
958.57783	0.29794
957.61347	0.30556
956.6491	0.31346
955.68474	0.32159
954.72037	0.32996
953.75601	0.33844
952.79165	0.34679
951.82728	0.35482
950.86292	0.36253
949.89855	0.36984
948.93419	0.37648
947.96983	0.38212
947.00546	0.38655
946.0411	0.38969
945.07673	0.3914
944.11237	0.39141
943.14801	0.38958
942.18364	0.38606
941.21928	0.38125
940.25491	0.37536
939.29055	0.36833
938.32619	0.36
937.36182	0.35038
936.39746	0.33976
935.43309	0.32844
934.46873	0.31673
933.50437	0.30498
932.54	0.29374
931.57564	0.28353
930.61127	0.27461
929.64691	0.26679
928.68255	0.25973
927.71818	0.25323
926.75382	0.24714
925.78945	0.24123
924.82509	0.23513
923.86073	0.22857
922.89636	0.22153
921.932	0.21413
920.96763	0.2064
920.00327	0.19822
919.03891	0.18953
918.07454	0.18037
917.11018	0.17083
916.14581	0.16088
915.18145	0.15046
914.21708	0.13964
913.25272	0.12866
912.28836	0.1179
911.32399	0.10756
910.35963	0.09769
909.39526	0.08829
908.4309	0.07938
907.46654	0.071
906.50217	0.06305
905.53781	0.05541
904.57344	0.04807
903.60908	0.04109
902.64472	0.0345
901.68035	0.02816
900.71599	0.02194
899.75162	0.01614
898.78726	0.01187
897.8229	0.0111
896.85853	0.014
895.89417	0.02006
894.9298	0.02837
893.96544	0.03809
893.00108	0.04854
892.03671	0.0591
891.07235	0.06923
890.10798	0.07852
889.14362	0.08672
888.17926	0.09356
887.21489	0.09877
886.25053	0.10209
885.28616	0.10347
884.3218	0.10297
883.35744	0.10068
882.39307	0.09664
881.42871	0.09102
880.46434	0.08427
879.49998	0.07711
878.53562	0.0704
877.57125	0.06508
876.60689	0.06235
875.64252	0.06336
874.67816	0.06843
873.7138	0.07672
872.74943	0.08698
871.78507	0.09841
870.8207	0.11063
869.85634	0.12333
868.89198	0.13611
867.92761	0.14849
866.96325	0.16004
865.99888	0.17044
865.03452	0.17941
864.07016	0.18672
863.10579	0.19216
862.14143	0.19567
861.17706	0.19726
860.2127	0.19696
859.24834	0.19491
858.28397	0.19137
857.31961	0.1868
856.35524	0.18171
855.39088	0.17649
854.42652	0.17132
853.46215	0.16631
852.49779	0.16165
851.53342	0.15751
850.56906	0.15397
849.6047	0.15103
848.64033	0.14864
847.67597	0.14673
846.7116	0.14511
845.74724	0.14356
844.78288	0.14188
843.81851	0.13991
842.85415	0.13754
841.88978	0.13465
840.92542	0.13107
839.96106	0.12666
838.99669	0.12137
838.03233	0.11522
837.06796	0.10823
836.1036	0.10045
835.13924	0.09209
834.17487	0.08362
833.21051	0.07556
832.24614	0.06822
831.28178	0.06176
830.31742	0.05632
829.35305	0.05207
828.38869	0.049
827.42432	0.04691
826.45996	0.0455
825.4956	0.04463
824.53123	0.04429
823.56687	0.04438
822.6025	0.04462
821.63814	0.04465
820.67378	0.0443
819.70941	0.04355
818.74505	0.04236
817.78068	0.04054
816.81632	0.03792
815.85196	0.03461
814.88759	0.03092
813.92323	0.02705
812.95886	0.02302
811.9945	0.01899
811.03014	0.01538
810.06577	0.01258
809.10141	0.01067
808.13704	0.00937
807.17268	0.00849
806.20832	0.00808
805.24395	0.00818
804.27959	0.00856
803.31522	0.00887
802.35086	0.00899
801.3865	0.00909
800.42213	0.00931
799.45777	0.00943
798.4934	0.00914
797.52904	0.00848
796.56468	0.0078
795.60031	0.00744
794.63595	0.00735
793.67158	0.00733
792.70722	0.00746
791.74286	0.00815
790.77849	0.00976
789.81413	0.01217
788.84976	0.01503
787.8854	0.01908
786.92104	0.02451
785.95667	0.0312
784.99231	0.03857
784.02794	0.046
783.06358	0.05322
782.09922	0.06031
781.13485	0.06723
780.17049	0.07362
779.20612	0.07916
778.24176	0.08391
777.2774	0.08825
776.31303	0.09233
775.34867	0.09595
774.3843	0.09894
773.41994	0.10157
772.45557	0.10432
771.49121	0.10743
770.52685	0.11074
769.56248	0.11422
768.59812	0.11833
767.63375	0.12364
766.66939	0.13035
765.70503	0.1381
764.74066	0.14637
763.7763	0.15504
762.81193	0.16423
761.84757	0.17373
760.88321	0.18301
759.91884	0.19173
758.95448	0.20001
757.99011	0.208
757.02575	0.21542
756.06139	0.22164
755.09702	0.22622
754.13266	0.22927
753.16829	0.23105
752.20393	0.23141
751.23957	0.22987
750.2752	0.22635
749.31084	0.22133
748.34647	0.21536
747.38211	0.20844
746.41775	0.20025
745.45338	0.19072
744.48902	0.1804
743.52465	0.16992
742.56029	0.1594
741.59593	0.1486
740.63156	0.13772
739.6672	0.12758
738.70283	0.1188
737.73847	0.11122
736.77411	0.10427
735.80974	0.09778
734.84538	0.09219
733.88101	0.08783
732.91665	0.08441
731.95229	0.08123
730.98792	0.07802
730.02356	0.07534
729.05919	0.07365
728.09483	0.07261
727.13047	0.07169
726.1661	0.07092
725.20174	0.07081
724.23737	0.07161
723.27301	0.07288
722.30865	0.07405
721.34428	0.07521
720.37992	0.07697
719.41555	0.07951
718.45119	0.08227
717.48683	0.08477
716.52246	0.08719
715.5581	0.09002
714.59373	0.09329
713.62937	0.09638
712.66501	0.09885
711.70064	0.10087
710.73628	0.10296
709.77191	0.10504
708.80755	0.1064
707.84319	0.10658
706.87882	0.10614
705.91446	0.10575
704.95009	0.1054
703.98573	0.1045
703.02137	0.10275
702.057	0.10059
701.09264	0.09866
700.12827	0.09698
699.16391	0.09496
698.19955	0.09237
697.23518	0.08975
696.27082	0.08774
695.30645	0.08631
694.34209	0.08487
693.37773	0.08315
692.41336	0.08162
691.449	0.08084
690.48463	0.08065
689.52027	0.08046
688.55591	0.0801
687.59154	0.08011
686.62718	0.08099
685.66281	0.0825
684.69845	0.08401
683.73409	0.08542
682.76972	0.08732
681.80536	0.0901
680.84099	0.09353
679.87663	0.09639
678.91227	0.0971
677.9479	0.09768
676.98354	0.09892
676.01917	0.10039
675.05481	0.10161
674.09045	0.10259
673.12608	0.10374
672.16172	0.10526
671.19735	0.10677
670.23299	0.10777
669.26863	0.10834
668.30426	0.10895
667.3399	0.10984
666.37553	0.11074
665.41117	0.11137
664.44681	0.11193
663.48244	0.11294
662.51808	0.11456
661.55371	0.1164
660.58935	0.11799
659.62499	0.11929
658.66062	0.12054
657.69626	0.1217
656.73189	0.1219
655.76753	0.12097
654.80317	0.12105
653.8388	0.1218
652.87444	0.12295
651.91007	0.12414
650.94571	0.12495
649.98135	0.12553
649.01698	0.12631
648.05262	0.12737
647.08825	0.12833
646.12389	0.12884
645.15953	0.1291
644.19516	0.12962
643.2308	0.13061
642.26643	0.13175
641.30207	0.13275
640.33771	0.13383
639.37334	0.13531
638.40898	0.13715
637.44461	0.1389
636.48025	0.14029
635.51589	0.14157
634.55152	0.14317
633.58716	0.1451
632.62279	0.14704
631.65843	0.14882
630.69406	0.15068
629.7297	0.15291
628.76534	0.15544
627.80097	0.15788
626.83661	0.16007
625.87224	0.1623
624.90788	0.16499
623.94352	0.16818
622.97915	0.17152
622.01479	0.17482
621.05042	0.17835
620.08606	0.18242
619.1217	0.18699
618.15733	0.19175
617.19297	0.19646
616.2286	0.20107
615.26424	0.20565
614.29988	0.21013
613.33551	0.21419
612.37115	0.21767
611.40678	0.22068
610.44242	0.22348
609.47806	0.22614
608.51369	0.22843
607.54933	0.23019
606.58496	0.23148
605.6206	0.23263
604.65624	0.23409
603.69187	0.23604
602.72751	0.23835
601.76314	0.24114
600.79878	0.2447
599.83442	0.249
598.87005	0.2537
597.90569	0.25845
596.94132	0.26314
595.97696	0.26768
595.0126	0.27185
594.04823	0.27525
593.08387	0.27758
592.1195	0.27882
591.15514	0.27922
590.19078	0.27894
589.22641	0.27781
588.26205	0.2756
587.29768	0.27242
586.33332	0.26873
585.36896	0.2648
584.40459	0.26055
583.44023	0.25592
582.47586	0.25139
581.5115	0.24769
580.54714	0.24497
579.58277	0.24264
578.61841	0.24036
577.65404	0.23832
576.68968	0.23693
575.72532	0.23612
574.76095	0.23525
573.79659	0.23384
572.83222	0.23208
571.86786	0.23048
570.9035	0.22913
569.93913	0.22745
568.97477	0.22506
568.0104	0.22248
567.04604	0.22045
566.08168	0.2189
565.11731	0.21712
564.15295	0.21488
563.18858	0.21294
562.22422	0.21192
561.25986	0.21152
560.29549	0.21094
559.33113	0.20999
558.36676	0.20928
557.4024	0.20933
556.43804	0.2097
555.47367	0.20961
554.50931	0.20913
553.54494	0.20914
552.58058	0.21008
551.61622	0.2113
550.65185	0.21185
549.68749	0.21173
548.72312	0.21171
547.75876	0.21223
546.7944	0.21274
545.83003	0.21262
544.86567	0.21212
543.9013	0.21207
542.93694	0.21278
541.97258	0.21362
541.00821	0.21395
540.04385	0.21405
539.07948	0.21462
538.11512	0.21574
537.15076	0.21652
536.18639	0.21627
535.22203	0.21551
534.25766	0.21512
533.2933	0.21519
532.32894	0.21512
531.36457	0.21446
530.40021	0.21356
529.43584	0.21301
528.47148	0.21247
527.50712	0.21082
526.54275	0.20784
525.57839	0.20451
524.61402	0.20173
523.64966	0.19947
522.6853	0.19704
521.72093	0.19408
520.75657	0.1912
519.7922	0.18911
518.82784	0.18749
517.86348	0.18542
516.89911	0.18279
515.93475	0.18052
514.97038	0.17913
514.00602	0.17799
513.04166	0.17606
512.07729	0.17358
511.11293	0.17164
510.14856	0.1707
509.1842	0.1701
508.21984	0.169
507.25547	0.16772
506.29111	0.1672
505.32674	0.16742
504.36238	0.16755
503.39802	0.16719
502.43365	0.16685
501.46929	0.16756
500.50492	0.16955
499.54056	0.17183
498.5762	0.17368
497.61183	0.1757
496.64747	0.17873
495.6831	0.18238
494.71874	0.18534
493.75437	0.18725
492.79001	0.18896
491.82565	0.19086
490.86128	0.19234
489.89692	0.19243
488.93255	0.19137
487.96819	0.19031
487.00383	0.18986
486.03946	0.18975
485.0751	0.18951
484.11073	0.18875
483.14637	0.18736
482.18201	0.18579
481.21764	0.18394
480.25328	0.18123
479.28891	0.17787
478.32455	0.17496
477.36019	0.17286
476.39582	0.17083
475.43146	0.16831
474.46709	0.16567
473.50273	0.16347
472.53837	0.16145
471.574	0.15888
470.60964	0.15583
469.64527	0.1529
468.68091	0.14996
467.71655	0.14649
466.75218	0.14235
465.78782	0.13808
464.82345	0.13458
463.85909	0.13209
462.89473	0.13002
461.93036	0.12778
460.966	0.12508
460.00163	0.12257
459.03727	0.12119
458.07291	0.12039
457.10854	0.11918
456.14418	0.11769
455.17981	0.11685
454.21545	0.11688
453.25109	0.11695
452.28672	0.11658
451.32236	0.11636
450.35799	0.11661
449.39363	0.11702
448.42927	0.11747
447.4649	0.11797
446.50054	0.11827
445.53617	0.11807
444.57181	0.11742
443.60745	0.11676
442.64308	0.11637
441.67872	0.11622
440.71435	0.11605
439.74999	0.11596
438.78563	0.11619
437.82126	0.11678
436.8569	0.11773
435.89253	0.11878
434.92817	0.1195
433.96381	0.11998
432.99944	0.12087
432.03508	0.12255
431.07071	0.12473
430.10635	0.12517
429.14199	0.12294
428.17762	0.11967
427.21326	0.11602
426.24889	0.11214
425.28453	0.10822
424.32017	0.10445
423.3558	0.10091
422.39144	0.09736
421.42707	0.0937
420.46271	0.09014
419.49835	0.08658
418.53398	0.08302
417.56962	0.07946
416.60525	0.0759
415.64089	0.07234
414.67653	0.06879
413.71216	0.06523
412.7478	0.06167
411.78343	0.05811
410.81907	0.05455
409.85471	0.05099
408.89034	0.04743
407.92598	0.04387
406.96161	0.04031
405.99725	0.03675
405.03289	0.03319
404.06852	0.02963
403.10416	0.02607
402.13979	0.02251
401.17543	0.01895
400.21107	0.01539