401	0.0129
402	0.00292
403	0
404	0.00735
405	0.01561
406	0.01574
407	0.01304
408	0.01505
409	0.02134
410	0.02425
411	0.01994
412	0.01714
413	0.02131
414	0.02633
415	0.02657
416	0.02239
417	0.01884
418	0.02306
419	0.03402
420	0.03802
421	0.03506
422	0.03511
423	0.03833
424	0.03982
425	0.03871
426	0.03812
427	0.04024
428	0.04349
429	0.04427
430	0.04379
431	0.04596
432	0.05069
433	0.05553
434	0.05674
435	0.05244
436	0.04849
437	0.05059
438	0.05425
439	0.05449
440	0.05246
441	0.05129
442	0.05368
443	0.05764
444	0.05771
445	0.05505
446	0.05447
447	0.05607
448	0.05628
449	0.05464
450	0.05427
451	0.05547
452	0.05556
453	0.05348
454	0.05022
455	0.04762
456	0.04751
457	0.0485
458	0.04545
459	0.04183
460	0.04317
461	0.04892
462	0.05434
463	0.05547
464	0.05518
465	0.0574
466	0.06175
467	0.06488
468	0.06548
469	0.06685
470	0.07099
471	0.07521
472	0.07623
473	0.07531
474	0.07792
475	0.08426
476	0.08837
477	0.08728
478	0.08535
479	0.0872
480	0.09141
481	0.0925
482	0.08935
483	0.08743
484	0.09019
485	0.09359
486	0.09305
487	0.08982
488	0.08962
489	0.09373
490	0.09616
491	0.09348
492	0.09006
493	0.09139
494	0.09531
495	0.09591
496	0.0931
497	0.09212
498	0.09543
499	0.09889
500	0.09834
501	0.09585
502	0.09627
503	0.10025
504	0.10301
505	0.10138
506	0.09899
507	0.10141
508	0.1065
509	0.1079
510	0.10544
511	0.10484
512	0.10962
513	0.11591
514	0.1178
515	0.11574
516	0.11637
517	0.12287
518	0.12986
519	0.13169
520	0.13179
521	0.13619
522	0.14381
523	0.14893
524	0.14983
525	0.15074
526	0.15577
527	0.16263
528	0.16574
529	0.1649
530	0.16475
531	0.16716
532	0.16786
533	0.16347
534	0.15744
535	0.15495
536	0.15573
537	0.15457
538	0.14887
539	0.14239
540	0.14005
541	0.14076
542	0.13888
543	0.13297
544	0.128
545	0.12759
546	0.12854
547	0.12603
548	0.12204
549	0.12179
550	0.12514
551	0.12746
552	0.12687
553	0.1262
554	0.12856
555	0.13275
556	0.13474
557	0.13405
558	0.13514
559	0.14081
560	0.14784
561	0.15211
562	0.15452
563	0.15912
564	0.16704
565	0.17471
566	0.17954
567	0.18402
568	0.19211
569	0.20291
570	0.21124
571	0.21534
572	0.21855
573	0.2242
574	0.2313
575	0.2366
576	0.23912
577	0.24105
578	0.24401
579	0.2459
580	0.24432
581	0.24063
582	0.23754
583	0.23494
584	0.23114
585	0.22601
586	0.22167
587	0.21981
588	0.21954
589	0.21863
590	0.21643
591	0.21366
592	0.21063
593	0.20706
594	0.20268
595	0.19808
596	0.19438
597	0.19107
598	0.18792
599	0.1859
600	0.18554
601	0.18673
602	0.18907
603	0.19179
604	0.19437
605	0.19673
606	0.19904
607	0.20101
608	0.20215
609	0.20255
610	0.20208
611	0.20016
612	0.19688
613	0.19277
614	0.1879
615	0.18189
616	0.17471
617	0.16699
618	0.16016
619	0.15506
620	0.15063
621	0.14586
622	0.14173
623	0.1393
624	0.13744
625	0.13489
626	0.13233
627	0.13118
628	0.13144
629	0.13161
630	0.13069
631	0.12958
632	0.12959
633	0.13041
634	0.13059
635	0.12957
636	0.12852
637	0.12844
638	0.12884
639	0.12853
640	0.1275
641	0.1271
642	0.12802
643	0.12934
644	0.1297
645	0.12913
646	0.12936
647	0.13069
648	0.13131
649	0.13021
650	0.12906
651	0.1295
652	0.13106
653	0.13155
654	0.12986
655	0.12778
656	0.12712
657	0.12717
658	0.12649
659	0.1251
660	0.12436
661	0.12467
662	0.1249
663	0.12431
664	0.1237
665	0.12401
666	0.12479
667	0.12388
668	0.11848
669	0.11625
670	0.11915
671	0.12187
672	0.12231
673	0.12111
674	0.12015
675	0.12078
676	0.12184
677	0.12103
678	0.11866
679	0.11764
680	0.11891
681	0.11989
682	0.11884
683	0.11741
684	0.11759
685	0.11862
686	0.11844
687	0.11694
688	0.11615
689	0.11702
690	0.11797
691	0.1176
692	0.11684
693	0.1175
694	0.11974
695	0.12181
696	0.12268
697	0.1236
698	0.12623
699	0.1302
700	0.13376
701	0.13665
702	0.14018
703	0.14502
704	0.14961
705	0.15196
706	0.15246
707	0.15266
708	0.15277
709	0.15158
710	0.14813
711	0.14364
712	0.13964
713	0.1358
714	0.13085
715	0.12524
716	0.12057
717	0.1174
718	0.11472
719	0.1114
720	0.10799
721	0.10603
722	0.10538
723	0.1044
724	0.10257
725	0.10102
726	0.10073
727	0.10115
728	0.10075
729	0.09936
730	0.09857
731	0.09913
732	0.09946
733	0.09857
734	0.09769
735	0.09853
736	0.10088
737	0.10308
738	0.10436
739	0.10602
740	0.1093
741	0.11351
742	0.11724
743	0.12055
744	0.12523
745	0.132
746	0.13918
747	0.14546
748	0.15191
749	0.16034
750	0.17046
751	0.17988
752	0.18699
753	0.1925
754	0.19774
755	0.20184
756	0.20242
757	0.19955
758	0.19619
759	0.19413
760	0.19185
761	0.1875
762	0.18138
763	0.17551
764	0.17039
765	0.16402
766	0.15521
767	0.14594
768	0.13869
769	0.13333
770	0.12787
771	0.12155
772	0.11606
773	0.11317
774	0.11172
775	0.10909
776	0.10506
777	0.10177
778	0.10007
779	0.09773
780	0.09283
781	0.08652
782	0.08135
783	0.07805
784	0.07444
785	0.0687
786	0.06275
787	0.0595
788	0.05823
789	0.05603
790	0.05255
791	0.0502
792	0.05045
793	0.05167
794	0.05129
795	0.04924
796	0.04767
797	0.04776
798	0.04799
799	0.04621
800	0.04332
801	0.04209
802	0.04267
803	0.04217
804	0.03922
805	0.03609
806	0.03541
807	0.03635
808	0.03592
809	0.03341
810	0.03146
811	0.03225
812	0.03429
813	0.03451
814	0.03336
815	0.03386
816	0.03678
817	0.03937
818	0.03944
819	0.03807
820	0.03772
821	0.03853
822	0.03838
823	0.03599
824	0.03314
825	0.03209
826	0.03228
827	0.0316
828	0.0298
829	0.0291
830	0.03084
831	0.03357
832	0.03529
833	0.03649
834	0.03944
835	0.04448
836	0.04926
837	0.0521
838	0.05424
839	0.0577
840	0.06222
841	0.06564
842	0.06674
843	0.06724
844	0.06948
845	0.07288
846	0.0752
847	0.07606
848	0.07742
849	0.08046
850	0.08409
851	0.08681
852	0.08877
853	0.09164
854	0.09598
855	0.10037
856	0.10349
857	0.10579
858	0.10865
859	0.11214
860	0.11481
861	0.11581
862	0.11618
863	0.11726
864	0.11832
865	0.11763
866	0.11465
867	0.11045
868	0.10592
869	0.10058
870	0.09387
871	0.08633
872	0.07937
873	0.0738
874	0.06896
875	0.06413
876	0.05975
877	0.05688
878	0.05583
879	0.05605
880	0.05712
881	0.05985
882	0.06561
883	0.0745
884	0.08422
885	0.09081
886	0.09128
887	0.08548
888	0.07544
889	0.06377
890	0.05256
891	0.04273
892	0.03463
893	0.02817
894	0.02272
895	0.01776
896	0.01338
897	0.01025
898	0.00863
899	0.00818
900	0.0084
901	0.00913
902	0.01079
903	0.01353
904	0.01671
905	0.01988
906	0.02294
907	0.02628
908	0.02995
909	0.03346
910	0.03636
911	0.03901
912	0.04225
913	0.04635
914	0.05087
915	0.0553
916	0.06003
917	0.06567
918	0.07202
919	0.07796
920	0.08271
921	0.08691
922	0.09151
923	0.09655
924	0.10128
925	0.10545
926	0.11016
927	0.11647
928	0.12404
929	0.13166
930	0.13927
931	0.14808
932	0.15889
933	0.17079
934	0.18191
935	0.19155
936	0.20056
937	0.20927
938	0.21625
939	0.21999
940	0.22138
941	0.22303
942	0.22655
943	0.23121
944	0.23577
945	0.24014
946	0.24416
947	0.2456
948	0.24049
949	0.22752
950	0.20959
951	0.19114
952	0.17411
953	0.15783
954	0.14253
955	0.13056
956	0.12352
957	0.11974
958	0.11626
959	0.11271
960	0.11126
961	0.11292
962	0.11573
963	0.11746
964	0.11893
965	0.12267
966	0.12912
967	0.13595
968	0.14145
969	0.14708
970	0.15541
971	0.16618
972	0.17666
973	0.18545
974	0.19485
975	0.2075
976	0.22206
977	0.2352
978	0.24647
979	0.25865
980	0.27342
981	0.28881
982	0.30224
983	0.31439
984	0.32819
985	0.3449
986	0.36271
987	0.37969
988	0.397
989	0.41731
990	0.44052
991	0.46371
992	0.48491
993	0.50522
994	0.52613
995	0.54646
996	0.56349
997	0.57648
998	0.5879
999	0.59996
1000	0.6118
1001	0.62113
1002	0.62831
1003	0.63652
1004	0.64727
1005	0.65871
1006	0.66819
1007	0.67614
1008	0.68542
1009	0.69695
1010	0.70893
1011	0.71963
1012	0.73001
1013	0.74248
1014	0.75709
1015	0.77158
1016	0.78499
1017	0.79958
1018	0.81776
1019	0.83881
1020	0.85999
1021	0.88006
1022	0.90032
1023	0.92196
1024	0.94334
1025	0.96124
1026	0.97478
1027	0.98557
1028	0.99454
1029	0.99989
1030	1
1031	0.99598
1032	0.99071
1033	0.98554
1034	0.97955
1035	0.97209
1036	0.9646
1037	0.95883
1038	0.95464
1039	0.9503
1040	0.94476
1041	0.93877
1042	0.93322
1043	0.92739
1044	0.9197
1045	0.90976
1046	0.89904
1047	0.88908
1048	0.87979
1049	0.87066
1050	0.86222
1051	0.85588
1052	0.85227
1053	0.85073
1054	0.84969
1055	0.8481
1056	0.8457
1057	0.84215
1058	0.83624
1059	0.82694
1060	0.81458
1061	0.80029
1062	0.78458
1063	0.76758
1064	0.74978
1065	0.73223
1066	0.71645
1067	0.70387
1068	0.69602
1069	0.6943
1070	0.69986
1071	0.71265
1072	0.73071
1073	0.75112
1074	0.77132
1075	0.78978
1076	0.8055
1077	0.81764
1078	0.82553
1079	0.82885
1080	0.82753
1081	0.82136
1082	0.81025
1083	0.79433
1084	0.77398
1085	0.7499
1086	0.7237
1087	0.69774
1088	0.67352
1089	0.65094
1090	0.63021
1091	0.61242
1092	0.59845
1093	0.58792
1094	0.57982
1095	0.57348
1096	0.56896
1097	0.56638
1098	0.56474
1099	0.56262
1100	0.55975
1101	0.55694
1102	0.55442
1103	0.55122
1104	0.54635
1105	0.54005
1106	0.53374
1107	0.52844
1108	0.52308
1109	0.51597
1110	0.50763
1111	0.49989
1112	0.49287
1113	0.485
1114	0.47545
1115	0.46534
1116	0.45657
1117	0.44901
1118	0.44101
1119	0.43205
1120	0.4235
1121	0.41663
1122	0.4107
1123	0.40402
1124	0.39626
1125	0.38892
1126	0.38315
1127	0.37774
1128	0.37076
1129	0.36242
1130	0.35485
1131	0.34905
1132	0.34369
1133	0.33755
1134	0.33159
1135	0.32799
1136	0.32727
1137	0.32764
1138	0.32792
1139	0.32997
1140	0.33625
1141	0.34671
1142	0.35927
1143	0.37313
1144	0.38953
1145	0.40959
1146	0.43211
1147	0.45478
1148	0.47694
1149	0.49992
1150	0.52437
1151	0.54852
1152	0.56983
1153	0.58772
1154	0.60336
1155	0.61676
1156	0.62566
1157	0.62775
1158	0.62352
1159	0.61501
1160	0.60303
1161	0.5865
1162	0.56491
1163	0.54026
1164	0.51559
1165	0.49154
1166	0.46642
1167	0.44005
1168	0.41484
1169	0.39295
1170	0.37372
1171	0.35504
1172	0.3366
1173	0.32036
1174	0.30751
1175	0.29662
1176	0.28569
1177	0.27483
1178	0.26595
1179	0.25969
1180	0.25434
1181	0.2483
1182	0.24246
1183	0.23862
1184	0.23682
1185	0.23519
1186	0.23255
1187	0.23017
1188	0.22985
1189	0.23111
1190	0.23139
1191	0.22965
1192	0.22779
1193	0.22754
1194	0.22778
1195	0.22646
1196	0.22371
1197	0.22183
1198	0.22211
1199	0.22354
1200	0.22477
1201	0.22649
1202	0.23048
1203	0.23709
1204	0.24469
1205	0.25165
1206	0.25828
1207	0.26582
1208	0.27387
1209	0.28056
1210	0.28486
1211	0.28751
1212	0.28948
1213	0.29033
1214	0.28874
1215	0.2846
1216	0.27948
1217	0.2747
1218	0.26982
1219	0.2638
1220	0.25729
1221	0.25202
1222	0.24871
1223	0.24644
1224	0.2443
1225	0.24264
1226	0.24271
1227	0.24473
1228	0.24752
1229	0.25009
1230	0.25266
1231	0.256
1232	0.25997
1233	0.26338
1234	0.26551
1235	0.26699
1236	0.26867
1237	0.27038
1238	0.27134
1239	0.27165
1240	0.2721
1241	0.27333
1242	0.27497
1243	0.27624
1244	0.27721
1245	0.27854
1246	0.28026
1247	0.28185
1248	0.28284
1249	0.28324
1250	0.2833
1251	0.2831
1252	0.2824
1253	0.28093
1254	0.27874
1255	0.27623
1256	0.27358
1257	0.27065
1258	0.26743
1259	0.2641
1260	0.26066
1261	0.25722
1262	0.25387
1263	0.2504
1264	0.24673
1265	0.24291
1266	0.23912
1267	0.23549
1268	0.23194
1269	0.22814
1270	0.22411
1271	0.22008
1272	0.21605
1273	0.21173
1274	0.20713
1275	0.20254
1276	0.1984
1277	0.19474
1278	0.19128
1279	0.18786
1280	0.18478
1281	0.18265
1282	0.18158
1283	0.18114
1284	0.18105
1285	0.18177
1286	0.18394
1287	0.18745
1288	0.19159
1289	0.19612
1290	0.20164
1291	0.20841
1292	0.21564
1293	0.2223
1294	0.22829
1295	0.23429
1296	0.24061
1297	0.24658
1298	0.25122
1299	0.25467
1300	0.258
1301	0.2614
1302	0.26379
1303	0.26446
1304	0.26395
1305	0.26335
1306	0.26285
1307	0.26158
1308	0.25909
1309	0.25628
1310	0.25441
1311	0.25338
1312	0.25235
1313	0.25138
1314	0.25177
1315	0.2545
1316	0.25906
1317	0.26444
1318	0.27065
1319	0.27891
1320	0.28948
1321	0.30087
1322	0.3119
1323	0.32271
1324	0.33407
1325	0.34564
1326	0.35586
1327	0.36337
1328	0.36882
1329	0.37352
1330	0.37738
1331	0.37915
1332	0.3783
1333	0.37598
1334	0.3735
1335	0.37071
1336	0.36626
1337	0.35972
1338	0.35261
1339	0.34548
1340	0.33732
1341	0.32837
1342	0.32001
1343	0.3128
1344	0.30677
1345	0.30119
1346	0.29494
1347	0.28839
1348	0.28317
1349	0.27944
1350	0.27562
1351	0.27082
1352	0.26589
1353	0.26232
1354	0.26011
1355	0.25738
1356	0.25369
1357	0.25052
1358	0.24916
1359	0.24941
1360	0.24994
1361	0.25035
1362	0.2518
1363	0.25529
1364	0.25988
1365	0.26413
1366	0.26838
1367	0.27387
1368	0.28117
1369	0.28914
1370	0.29612
1371	0.30234
1372	0.30897
1373	0.31597
1374	0.32147
1375	0.3233
1376	0.32274
1377	0.32209
1378	0.32123
1379	0.31908
1380	0.31567
1381	0.31267
1382	0.31149
1383	0.31187
1384	0.31259
1385	0.31348
1386	0.31527
1387	0.31834
1388	0.32173
1389	0.32405
1390	0.32554
1391	0.32716
1392	0.32939
1393	0.33166
1394	0.33254
1395	0.3316
1396	0.33078
1397	0.33135
1398	0.33195
1399	0.33083
1400	0.32919
1401	0.32902
1402	0.3299
1403	0.33069
1404	0.33056
1405	0.32917
1406	0.32796
1407	0.32733
1408	0.32582
1409	0.32306
1410	0.31979
1411	0.31664
1412	0.3133
1413	0.3093
1414	0.30503
1415	0.30123
1416	0.29822
1417	0.29562
1418	0.29271
1419	0.28747
1420	0.28112
1421	0.2776
1422	0.27578
1423	0.273
1424	0.26847
1425	0.26416
1426	0.26137
1427	0.25897
1428	0.25652
1429	0.25381
1430	0.25017
1431	0.24685
1432	0.24446
1433	0.24202
1434	0.23999
1435	0.2396
1436	0.23915
1437	0.2364
1438	0.23453
1439	0.23452
1440	0.23485
1441	0.23531
1442	0.23588
1443	0.23649
1444	0.23721
1445	0.23807
1446	0.23906
1447	0.23971
1448	0.23919
1449	0.23803
1450	0.2372
1451	0.23629
1452	0.23469
1453	0.23295
1454	0.23191
1455	0.23154
1456	0.23106
1457	0.22903
1458	0.22539
1459	0.22187
1460	0.21971
1461	0.21871
1462	0.218
1463	0.21728
1464	0.21578
1465	0.21131
1466	0.20608
1467	0.20254
1468	0.19865
1469	0.19438
1470	0.19119
1471	0.18919
1472	0.18567
1473	0.17869
1474	0.17239
1475	0.16962
1476	0.16759
1477	0.16538
1478	0.16424
1479	0.16443
1480	0.16578
1481	0.16751
1482	0.16805
1483	0.16679
1484	0.16421
1485	0.16114
1486	0.15757
1487	0.15135
1488	0.14354
1489	0.1378
1490	0.13071
1491	0.12215
1492	0.11707
1493	0.11386
1494	0.11191
1495	0.11136
1496	0.1106
1497	0.10869
1498	0.10723
1499	0.10612
1500	0.10567
1501	0.10585
1502	0.10577
1503	0.10622
1504	0.10839
1505	0.11224
1506	0.11628
1507	0.11646
1508	0.11541
1509	0.11607
1510	0.11768
1511	0.11925
1512	0.12029
1513	0.12172
1514	0.12469
1515	0.12874
1516	0.13252
1517	0.13413
1518	0.13535
1519	0.13863
1520	0.14287
1521	0.14638
1522	0.14743
1523	0.14879
1524	0.15148
1525	0.15384
1526	0.15516
1527	0.15636
1528	0.15821
1529	0.16036
1530	0.16232
1531	0.16405
1532	0.16596
1533	0.16781
1534	0.16844
1535	0.16827
1536	0.16847
1537	0.16985
1538	0.17269
1539	0.17553
1540	0.17364
1541	0.17044
1542	0.16766
1543	0.16585
1544	0.16465
1545	0.1602
1546	0.15466
1547	0.15235
1548	0.15179
1549	0.15044
1550	0.14613
1551	0.14129
1552	0.13989
1553	0.14024
1554	0.13943
1555	0.13755
1556	0.13777
1557	0.14061
1558	0.14473
1559	0.143
1560	0.13655
1561	0.13383
1562	0.13361
1563	0.13301
1564	0.13059
1565	0.12524
1566	0.1201
1567	0.11789
1568	0.11733
1569	0.11486
1570	0.1072
1571	0.10271
1572	0.10157
1573	0.10081
1574	0.1005
1575	0.10081
1576	0.10017
1577	0.09819
1578	0.09749
1579	0.09772
1580	0.0987
1581	0.10079
1582	0.10366
1583	0.10662
1584	0.10957
1585	0.11313
1586	0.11752
1587	0.12218
1588	0.1264
1589	0.13027
1590	0.13434
1591	0.13864
1592	0.14264
1593	0.14598
1594	0.14876
1595	0.15133
1596	0.15367
1597	0.15551
1598	0.15667
1599	0.15776
1600	0.1592
1601	0.16069
1602	0.16174
1603	0.16219
1604	0.16265
1605	0.16379
1606	0.16529
1607	0.1665
1608	0.16747
1609	0.16859
1610	0.16975
1611	0.17097
1612	0.17228
1613	0.17382
1614	0.17608
1615	0.17925
1616	0.18194
1617	0.18199
1618	0.18174
1619	0.18266
1620	0.18401
1621	0.18584
1622	0.18812
1623	0.18993
1624	0.19042
1625	0.19145
1626	0.19337
1627	0.19541
1628	0.19708
1629	0.19841
1630	0.19978
1631	0.2013
1632	0.20314
1633	0.20572
1634	0.20883
1635	0.21087
1636	0.21082
1637	0.21033
1638	0.21028
1639	0.2104
1640	0.21069
1641	0.21109
1642	0.21176
1643	0.21286
1644	0.21456
1645	0.21674
1646	0.21882
1647	0.21915
1648	0.21772
1649	0.21726
1650	0.2189
1651	0.22201
1652	0.22591
1653	0.22999
1654	0.2324
1655	0.23509
1656	0.23888
1657	0.2435
1658	0.24865
1659	0.25406
1660	0.26005
1661	0.26671
1662	0.27359
1663	0.27985
1664	0.28484
1665	0.28936
1666	0.29449
1667	0.3001
1668	0.30552
1669	0.31034
1670	0.31426
1671	0.31732
1672	0.31985
1673	0.32232
1674	0.32476
1675	0.32629
1676	0.32668
1677	0.32756
1678	0.32854
1679	0.32932
1680	0.32952
1681	0.32946
1682	0.33056
1683	0.33204
1684	0.32943
1685	0.32053
1686	0.31673
1687	0.31498
1688	0.31164
1689	0.30673
1690	0.3011
1691	0.29529
1692	0.28979
1693	0.28514
1694	0.28198
1695	0.27836
1696	0.26951
1697	0.26157
1698	0.25894
1699	0.25828
1700	0.25327
1701	0.24538
1702	0.24466
1703	0.24623
1704	0.24837
1705	0.25118
1706	0.25405
1707	0.25694
1708	0.2609
1709	0.26614
1710	0.27217
1711	0.278
1712	0.28322
1713	0.28853
1714	0.29429
1715	0.30003
1716	0.30506
1717	0.30929
1718	0.31279
1719	0.3157
1720	0.31875
1721	0.32218
1722	0.32602
1723	0.33016
1724	0.3342
1725	0.33766
1726	0.34055
1727	0.34345
1728	0.34676
1729	0.35
1730	0.35213
1731	0.35374
1732	0.35625
1733	0.3591
1734	0.35856
1735	0.35495
1736	0.35447
1737	0.35486
1738	0.35524
1739	0.35461
1740	0.35156
1741	0.3486
1742	0.3477
1743	0.34645
1744	0.3443
1745	0.34308
1746	0.34313
1747	0.34361
1748	0.34364
1749	0.34319
1750	0.34266
1751	0.34117
1752	0.33939
1753	0.33891
1754	0.33925
1755	0.34006
1756	0.34089
1757	0.34081
1758	0.34062
1759	0.34138
1760	0.3429
1761	0.34413
1762	0.34371
1763	0.34296
1764	0.34323
1765	0.34374
1766	0.34454
1767	0.34531
1768	0.34516
1769	0.34503
1770	0.34647
1771	0.34852
1772	0.34898
1773	0.34812
1774	0.34871
1775	0.35078
1776	0.35331
1777	0.35598
1778	0.35887
1779	0.36184
1780	0.36429
1781	0.36583
1782	0.36705
1783	0.36856
1784	0.36977
1785	0.36999
1786	0.36955
1787	0.3688
1788	0.36761
1789	0.36625
1790	0.36464
1791	0.36177
1792	0.35581
1793	0.34673
1794	0.33924
1795	0.33299
1796	0.32437
1797	0.31457
1798	0.30614
1799	0.29702
1800	0.28566
1801	0.27398
1802	0.26219
1803	0.25023
1804	0.23939
1805	0.22892
1806	0.21828
1807	0.20763
1808	0.19725
1809	0.18818
1810	0.17923
1811	0.16873
1812	0.15906
1813	0.1513
1814	0.14433
1815	0.13784
1816	0.13169
1817	0.12594
1818	0.12053
1819	0.11574
1820	0.11138
1821	0.10728
1822	0.10369
1823	0.10085
1824	0.09841
1825	0.09485
1826	0.09078
1827	0.08846
1828	0.08764
1829	0.0862
1830	0.08244
1831	0.07863
1832	0.07647
1833	0.07479
1834	0.07292
1835	0.07126
1836	0.06989
1837	0.06838
1838	0.06657
1839	0.06491
1840	0.06347
1841	0.06247
1842	0.06221
1843	0.06217
1844	0.06051
1845	0.05755
1846	0.05629
1847	0.05563
1848	0.05434
1849	0.05289
1850	0.05183
1851	0.05105
1852	0.05024
1853	0.04928
1854	0.04828
1855	0.04749
1856	0.04688
1857	0.04628
1858	0.04556
1859	0.04476
1860	0.04407
1861	0.04345
1862	0.04281
1863	0.04215
1864	0.04167
1865	0.04166
1866	0.04197
1867	0.04228
1868	0.04213
1869	0.04074
1870	0.03906
1871	0.03824
1872	0.03779
1873	0.03725
1874	0.03681
1875	0.03649
1876	0.03612
1877	0.03562
1878	0.03519
1879	0.03488
1880	0.03452
1881	0.03401
1882	0.03356
1883	0.0333
1884	0.03311
1885	0.03269
1886	0.03207
1887	0.03176
1888	0.03195
1889	0.03178
1890	0.03064
1891	0.02963
1892	0.02922
1893	0.02919
1894	0.02931
1895	0.02878
1896	0.0278
1897	0.02723
1898	0.02705
1899	0.02684
1900	0.02648
1901	0.02599
1902	0.02565
1903	0.02548
1904	0.02524
1905	0.02478
1906	0.02442
1907	0.0244
1908	0.02448
1909	0.02432
1910	0.02372
1911	0.02308
1912	0.02281
1913	0.02265
1914	0.02228
1915	0.02188
1916	0.02206
1917	0.02249
1918	0.02198
1919	0.02096
1920	0.02064
1921	0.02101
1922	0.02136
1923	0.02092
1924	0.02003
1925	0.01954
1926	0.01944
1927	0.01945
1928	0.01933
1929	0.01898
1930	0.0187
1931	0.01871
1932	0.01884
1933	0.01872
1934	0.01834
1935	0.01808
1936	0.01809
1937	0.01812
1938	0.01794
1939	0.01768
1940	0.01784
1941	0.01849
1942	0.01866
1943	0.01782
1944	0.0172
1945	0.01724
1946	0.01731
1947	0.01711
1948	0.01671
1949	0.01641
1950	0.01644
1951	0.01662
1952	0.01656
1953	0.01632
1954	0.01612
1955	0.01614
1956	0.01618
1957	0.01601
1958	0.01565
1959	0.01544
1960	0.01544
1961	0.01544
1962	0.01544
1963	0.01544
1964	0.01544
1965	0.01544
1966	0.01544
1967	0.01544
1968	0.01544
1969	0.01544
1970	0.01544
1971	0.01544
1972	0.01544
1973	0.01544
1974	0.01544
1975	0.01544
1976	0.01544
1977	0.01544
1978	0.01544
1979	0.01544
1980	0.01544
1981	0.01544
1982	0.01544
1983	0.01544
1984	0.01544
1985	0.01544
1986	0.01544
1987	0.01544
1988	0.01544
1989	0.01544
1990	0.01544
1991	0.01544
1992	0.01544
1993	0.01544
1994	0.01544
1995	0.01544
1996	0.01544
1997	0.01544
1998	0.01544
1999	0.01544
2000	0.01544
2001	0.01544
2002	0.01544
2003	0.01544
2004	0.01544
2005	0.01544
2006	0.01544
2007	0.01544
2008	0.01544
2009	0.01544
2010	0.01544
2011	0.01544
2012	0.01544
2013	0.01544
2014	0.01544
2015	0.01544
2016	0.01544
2017	0.01544
2018	0.01544
2019	0.01544
2020	0.01544
2021	0.01544
2022	0.01544
2023	0.01544
2024	0.01544
2025	0.01544
2026	0.01544
2027	0.01544
2028	0.01544
2029	0.01544
2030	0.01544
2031	0.01544
2032	0.01544
2033	0.01544
2034	0.01544
2035	0.01544
2036	0.01544
2037	0.01544
2038	0.01544
2039	0.01544
2040	0.01544
2041	0.01544
2042	0.01544
2043	0.01544
2044	0.01544
2045	0.01544
2046	0.01544
2047	0.01544
2048	0.01544
2049	0.01544
2050	0.01544
2051	0.01544
2052	0.01544
2053	0.01544
2054	0.01544
2055	0.01544
2056	0.01544
2057	0.01544
2058	0.01544
2059	0.01544
2060	0.01544
2061	0.01544
2062	0.01544
2063	0.01544
2064	0.01544
2065	0.01544
2066	0.01544
2067	0.01544
2068	0.01544
2069	0.01544
2070	0.01544
2071	0.01544
2072	0.01544
2073	0.01544
2074	0.01544
2075	0.01544
2076	0.01544
2077	0.01544
2078	0.01544
2079	0.01544
2080	0.01544
2081	0.01544
2082	0.01544
2083	0.01544
2084	0.01544
2085	0.01544
2086	0.01544
2087	0.01544
2088	0.01544
2089	0.01544
2090	0.01544
2091	0.01544
2092	0.01544
2093	0.01544
2094	0.01544
2095	0.01544
2096	0.01544
2097	0.01544
2098	0.01544
2099	0.01544
2100	0.01544
2101	0.01544
2102	0.01544
2103	0.01544
2104	0.01544
2105	0.01544
2106	0.01544
2107	0.01544
2108	0.01544
2109	0.01544
2110	0.01544
2111	0.01544
2112	0.01544
2113	0.01544
2114	0.01544
2115	0.01544
2116	0.01544
2117	0.01544
2118	0.01544
2119	0.01544
2120	0.01544
2121	0.01544
2122	0.01544
2123	0.01544
2124	0.01544
2125	0.01544
2126	0.01544
2127	0.01544
2128	0.01544
2129	0.01544
2130	0.01544
2131	0.01544
2132	0.01544
2133	0.01544
2134	0.01544
2135	0.01544
2136	0.01544
2137	0.01544
2138	0.01544
2139	0.01544
2140	0.01544
2141	0.01544
2142	0.01544
2143	0.01544
2144	0.01544
2145	0.01544
2146	0.01544
2147	0.01544
2148	0.01544
2149	0.01544
2150	0.01544
2151	0.01544
2152	0.01544
2153	0.01544
2154	0.01544
2155	0.01544
2156	0.01544
2157	0.01544
2158	0.01544
2159	0.01544
2160	0.01544
2161	0.01544
2162	0.01544
2163	0.01544
2164	0.01544
2165	0.01544
2166	0.01544
2167	0.01544
2168	0.01544
2169	0.01544
2170	0.01544
2171	0.01544
2172	0.01544
2173	0.01544
2174	0.01544
2175	0.01544
2176	0.01544
2177	0.01544
2178	0.01544
2179	0.01544
2180	0.01544
2181	0.01544
2182	0.01544
2183	0.01544
2184	0.01544
2185	0.01544
2186	0.01544
2187	0.01544
2188	0.01544
2189	0.01544
2190	0.01544
2191	0.01544
2192	0.01544
2193	0.01544
2194	0.01544
2195	0.01544
2196	0.01544
2197	0.01544
2198	0.01544
2199	0.01544
2200	0.01544
2201	0.01544
2202	0.01544
2203	0.01544
2204	0.01544
2205	0.01544
2206	0.01544
2207	0.01544
2208	0.01544
2209	0.01544
2210	0.01544
2211	0.01544
2212	0.01544
2213	0.01544
2214	0.01544
2215	0.01544
2216	0.01544
2217	0.01544
2218	0.01544
2219	0.01544
2220	0.01544
2221	0.01544
2222	0.01544
2223	0.01544
2224	0.01544
2225	0.01544
2226	0.01544
2227	0.01544
2228	0.01544
2229	0.01544
2230	0.01544
2231	0.01544
2232	0.01544
2233	0.01544
2234	0.01544
2235	0.01544
2236	0.01544
2237	0.01544
2238	0.01544
2239	0.01544
2240	0.01544
2241	0.01544
2242	0.01544
2243	0.01544
2244	0.01544
2245	0.01544
2246	0.01544
2247	0.01544
2248	0.01544
2249	0.01544
2250	0.01544
2251	0.01544
2252	0.01544
2253	0.01544
2254	0.01544
2255	0.01544
2256	0.01544
2257	0.01544
2258	0.01544
2259	0.01544
2260	0.01544
2261	0.01544
2262	0.01544
2263	0.01544
2264	0.01544
2265	0.01544
2266	0.01544
2267	0.01544
2268	0.01544
2269	0.01544
2270	0.01544
2271	0.01544
2272	0.01544
2273	0.01544
2274	0.01544
2275	0.01544
2276	0.01544
2277	0.01544
2278	0.01544
2279	0.01544
2280	0.01544
2281	0.01544
2282	0.01544
2283	0.01544
2284	0.01544
2285	0.01544
2286	0.01544
2287	0.01544
2288	0.01544
2289	0.01544
2290	0.01544
2291	0.01544
2292	0.01544
2293	0.01544
2294	0.01544
2295	0.01544
2296	0.01544
2297	0.01544
2298	0.01544
2299	0.01544
2300	0.01544
2301	0.01544
2302	0.01544
2303	0.01544
2304	0.01544
2305	0.01544
2306	0.01544
2307	0.01544
2308	0.01544
2309	0.01544
2310	0.01544
2311	0.01544
2312	0.01544
2313	0.01544
2314	0.01544
2315	0.01544
2316	0.01544
2317	0.01544
2318	0.01544
2319	0.01544
2320	0.01544
2321	0.01544
2322	0.01544
2323	0.01544
2324	0.01544
2325	0.01544
2326	0.01544
2327	0.01544
2328	0.01544
2329	0.01544
2330	0.01544
2331	0.01544
2332	0.01544
2333	0.01544
2334	0.01544
2335	0.01544
2336	0.01544
2337	0.01544
2338	0.01544
2339	0.01544
2340	0.01544
2341	0.01544
2342	0.01544
2343	0.01544
2344	0.01544
2345	0.01544
2346	0.01544
2347	0.01544
2348	0.01544
2349	0.01544
2350	0.01544
2351	0.01544
2352	0.01544
2353	0.01544
2354	0.01544
2355	0.01544
2356	0.01544
2357	0.01544
2358	0.01544
2359	0.01544
2360	0.01544
2361	0.01544
2362	0.01544
2363	0.01544
2364	0.01544
2365	0.01544
2366	0.01544
2367	0.01544
2368	0.01544
2369	0.01544
2370	0.01544
2371	0.01544
2372	0.01544
2373	0.01544
2374	0.01544
2375	0.01544
2376	0.01544
2377	0.01544
2378	0.01544
2379	0.01544
2380	0.01544
2381	0.01544
2382	0.01544
2383	0.01544
2384	0.01544
2385	0.01544
2386	0.01544
2387	0.01544
2388	0.01544
2389	0.01544
2390	0.01544
2391	0.01544
2392	0.01544
2393	0.01544
2394	0.01544
2395	0.01544
2396	0.01544
2397	0.01544
2398	0.01544
2399	0.01544
2400	0.01544
2401	0.01544
2402	0.01544
2403	0.01544
2404	0.01544
2405	0.01544
2406	0.01544
2407	0.01544
2408	0.01544
2409	0.01544
2410	0.01544
2411	0.01544
2412	0.01544
2413	0.01544
2414	0.01544
2415	0.01544
2416	0.01544
2417	0.01544
2418	0.01544
2419	0.01544
2420	0.01544
2421	0.01544
2422	0.01544
2423	0.01544
2424	0.01544
2425	0.01544
2426	0.01544
2427	0.01544
2428	0.01544
2429	0.01544
2430	0.01544
2431	0.01544
2432	0.01544
2433	0.01544
2434	0.01544
2435	0.01544
2436	0.01544
2437	0.01544
2438	0.01544
2439	0.01544
2440	0.01544
2441	0.01544
2442	0.01544
2443	0.01544
2444	0.01544
2445	0.01544
2446	0.01544
2447	0.01544
2448	0.01544
2449	0.01544
2450	0.01544
2451	0.01544
2452	0.01544
2453	0.01544
2454	0.01544
2455	0.01544
2456	0.01544
2457	0.01544
2458	0.01544
2459	0.01544
2460	0.01544
2461	0.01544
2462	0.01544
2463	0.01544
2464	0.01544
2465	0.01544
2466	0.01544
2467	0.01544
2468	0.01544
2469	0.01544
2470	0.01544
2471	0.01544
2472	0.01544
2473	0.01544
2474	0.01544
2475	0.01544
2476	0.01544
2477	0.01544
2478	0.01544
2479	0.01544
2480	0.01544
2481	0.01544
2482	0.01544
2483	0.01544
2484	0.01544
2485	0.01544
2486	0.01544
2487	0.01544
2488	0.01544
2489	0.01544
2490	0.01544
2491	0.01544
2492	0.01544
2493	0.01544
2494	0.01544
2495	0.01544
2496	0.01544
2497	0.01544
2498	0.01544
2499	0.01544
2500	0.01544
2501	0.01544
2502	0.01544
2503	0.01544
2504	0.01544
2505	0.01544
2506	0.01544
2507	0.01544
2508	0.01544
2509	0.01544
2510	0.01544
2511	0.01544
2512	0.01544
2513	0.01544
2514	0.01544
2515	0.01544
2516	0.01544
2517	0.01544
2518	0.01544
2519	0.01544
2520	0.01544
2521	0.01525
2522	0.01525
2523	0.01508
2524	0.01488
2525	0.01486
2526	0.01498
2527	0.015
2528	0.01486
2529	0.01473
2530	0.01478
2531	0.01491
2532	0.01492
2533	0.01477
2534	0.01465
2535	0.01471
2536	0.01483
2537	0.01485
2538	0.01474
2539	0.01469
2540	0.01469
2541	0.0147
2542	0.01467
2543	0.01459
2544	0.01452
2545	0.01456
2546	0.01471
2547	0.01476
2548	0.01467
2549	0.0146
2550	0.01467
2551	0.0148
2552	0.0148
2553	0.01469
2554	0.01463
2555	0.01471
2556	0.01479
2557	0.0147
2558	0.01448
2559	0.01433
2560	0.01437
2561	0.01444
2562	0.01437
2563	0.01421
2564	0.01411
2565	0.01413
2566	0.01413
2567	0.01405
2568	0.01395
2569	0.01398
2570	0.01407
2571	0.01402
2572	0.01384
2573	0.0137
2574	0.01373
2575	0.01384
2576	0.01386
2577	0.01373
2578	0.01361
2579	0.0136
2580	0.01365
2581	0.01363
2582	0.01355
2583	0.01354
2584	0.01366
2585	0.01382
2586	0.01387
2587	0.01377
2588	0.01368
2589	0.0137
2590	0.01379
2591	0.01373
2592	0.01356
2593	0.0135
2594	0.0136
2595	0.01375
2596	0.01373
2597	0.01356
2598	0.01346
2599	0.01351
2600	0.01354
2601	0.01344
2602	0.01331
2603	0.01335
2604	0.01351
2605	0.01361
2606	0.01355
2607	0.01344
2608	0.01347
2609	0.01356
2610	0.01361
2611	0.01356
2612	0.01355
2613	0.01368
2614	0.01387
2615	0.01398
2616	0.01403
2617	0.01409
2618	0.01422
2619	0.0144
2620	0.0145
2621	0.01448
2622	0.01451
2623	0.01475
2624	0.01507
2625	0.01521
2626	0.01531
2627	0.01552
2628	0.01581
2629	0.01603
2630	0.01606
2631	0.01615
2632	0.01645
2633	0.017
2634	0.01748
2635	0.0177
2636	0.01785
2637	0.01817
2638	0.01856
2639	0.01877
2640	0.01885
2641	0.019
2642	0.01929
2643	0.01967
2644	0.01997
2645	0.02018
2646	0.02041
2647	0.02077
2648	0.02116
2649	0.02146
2650	0.02169
2651	0.022
2652	0.02244
2653	0.02285
2654	0.0231
2655	0.02327
2656	0.02351
2657	0.02388
2658	0.02424
2659	0.02449
2660	0.02477
2661	0.02507
2662	0.02544
2663	0.02579
2664	0.02603
2665	0.02623
2666	0.0265
2667	0.02687
2668	0.02718
2669	0.02741
2670	0.02762
2671	0.02789
2672	0.02823
2673	0.02853
2674	0.02864
2675	0.02869
2676	0.02901
2677	0.02942
2678	0.02969
2679	0.02986
2680	0.0301
2681	0.03031
2682	0.03033
2683	0.03027
2684	0.03033
2685	0.03043
2686	0.03063
2687	0.03079
2688	0.03088
2689	0.03097
2690	0.03112
2691	0.03137
2692	0.03162
2693	0.0318
2694	0.03194
2695	0.03211
2696	0.03234
2697	0.03259
2698	0.03287
2699	0.03312
2700	0.03332
2701	0.03349
2702	0.03364
2703	0.0338
2704	0.03397
2705	0.03421
2706	0.03454
2707	0.03476
2708	0.03501
2709	0.03527
2710	0.03554
2711	0.03573
2712	0.0358
2713	0.03596
2714	0.03623
2715	0.03661
2716	0.03688
2717	0.03709
2718	0.03731
2719	0.03757
2720	0.03788
2721	0.03821
2722	0.03857
2723	0.0389
2724	0.03928
2725	0.03976
2726	0.04013
2727	0.04031
2728	0.04039
2729	0.04053
2730	0.04075
2731	0.04104
2732	0.04138
2733	0.04166
2734	0.04194
2735	0.04225
2736	0.04266
2737	0.04315
2738	0.04354
2739	0.04375
2740	0.0438
2741	0.04387
2742	0.04405
2743	0.04428
2744	0.04447
2745	0.04463
2746	0.04489
2747	0.04522
2748	0.04547
2749	0.04559
2750	0.04564
2751	0.04563
2752	0.04558
2753	0.04565
2754	0.04574
2755	0.04582
2756	0.04599
2757	0.04616
2758	0.04633
2759	0.04647
2760	0.04651
2761	0.04656
2762	0.04671
2763	0.0469
2764	0.04711
2765	0.04723
2766	0.0474
2767	0.04761
2768	0.04781
2769	0.04794
2770	0.04815
2771	0.0485
2772	0.04888
2773	0.04924
2774	0.04956
2775	0.04989
2776	0.0501
2777	0.05015
2778	0.05025
2779	0.05049
2780	0.05085
2781	0.05124
2782	0.05163
2783	0.05197
2784	0.05225
2785	0.05258
2786	0.05299
2787	0.05356
2788	0.0543
2789	0.05492
2790	0.0553
2791	0.05552
2792	0.05574
2793	0.05596
2794	0.05636
2795	0.05696
2796	0.05754
2797	0.05817
2798	0.05885
2799	0.05934
2800	0.05956
2801	0.05978
2802	0.06019
2803	0.06077
2804	0.06146
2805	0.06218
2806	0.0629
2807	0.06369
2808	0.0646
2809	0.06573
2810	0.06687
2811	0.06778
2812	0.06853
2813	0.06949
2814	0.07066
2815	0.07185
2816	0.07304
2817	0.07415
2818	0.07528
2819	0.07648
2820	0.07764
2821	0.07867
2822	0.07963
2823	0.08053
2824	0.08123
2825	0.08168
2826	0.08206
2827	0.08247
2828	0.08283
2829	0.08314
2830	0.08345
2831	0.08393
2832	0.08448
2833	0.08505
2834	0.08567
2835	0.08631
2836	0.08694
2837	0.0878
2838	0.08885
2839	0.08979
2840	0.09055
2841	0.09127
2842	0.09221
2843	0.0935
2844	0.09493
2845	0.09664
2846	0.09876
2847	0.10128
2848	0.10388
2849	0.10615
2850	0.10809
2851	0.10978
2852	0.11121
2853	0.11237
2854	0.11339
2855	0.11441
2856	0.11543
2857	0.11632
2858	0.11711
2859	0.11799
2860	0.11886
2861	0.11949
2862	0.12009
2863	0.12093
2864	0.12209
2865	0.12337
2866	0.12469
2867	0.12609
2868	0.12754
2869	0.12923
2870	0.13113
2871	0.13304
2872	0.13493
2873	0.13669
2874	0.13836
2875	0.13978
2876	0.14094
2877	0.1421
2878	0.14343
2879	0.14496
2880	0.14652
2881	0.14803
2882	0.14953
2883	0.15112
2884	0.15291
2885	0.15484
2886	0.15672
2887	0.15858
2888	0.16059
2889	0.16275
2890	0.16501
2891	0.16737
2892	0.16982
2893	0.17238
2894	0.1751
2895	0.17796
2896	0.18075
2897	0.18312
2898	0.18525
2899	0.18738
2900	0.1895
2901	0.19159
2902	0.19375
2903	0.19605
2904	0.19831
2905	0.20044
2906	0.20259
2907	0.20493
2908	0.2075
2909	0.21015
2910	0.21284
2911	0.21562
2912	0.21871
2913	0.22218
2914	0.22575
2915	0.22926
2916	0.23271
2917	0.23603
2918	0.23908
2919	0.24169
2920	0.24402
2921	0.24625
2922	0.2485
2923	0.25069
2924	0.25258
2925	0.25404
2926	0.25508
2927	0.25588
2928	0.25644
2929	0.25672
2930	0.25674
2931	0.25643
2932	0.25601
2933	0.25565
2934	0.25532
2935	0.25498
2936	0.25469
2937	0.25433
2938	0.25351
2939	0.2521
2940	0.25012
2941	0.24755
2942	0.24446
2943	0.24098
2944	0.23708
2945	0.23263
2946	0.22786
2947	0.22291
2948	0.21776
2949	0.21264
2950	0.20786
2951	0.20359
2952	0.19973
2953	0.19587
2954	0.19202
2955	0.18846
2956	0.18532
2957	0.18244
2958	0.17968
2959	0.17711
2960	0.17476
2961	0.17259
2962	0.1706
2963	0.16861
2964	0.16653
2965	0.16447
2966	0.16253
2967	0.16063
2968	0.15877
2969	0.15698
2970	0.15528
2971	0.1536
2972	0.15189
2973	0.15029
2974	0.14885
2975	0.1474
2976	0.1457
2977	0.14397
2978	0.14256
2979	0.1413
2980	0.14003
2981	0.13866
2982	0.13715
2983	0.13556
2984	0.13406
2985	0.13286
2986	0.13186
2987	0.13094
2988	0.13006
2989	0.12926
2990	0.12865
2991	0.12817
2992	0.12772
2993	0.12711
2994	0.12639
2995	0.12577
2996	0.12538
2997	0.12521
2998	0.12492
2999	0.12452
3000	0.12418
3001	0.12392
3002	0.12387
3003	0.12397
3004	0.12403
3005	0.12387
3006	0.1238
3007	0.12395
3008	0.12423
3009	0.12466
3010	0.12514
3011	0.12555
3012	0.12587
3013	0.12613
3014	0.12637
3015	0.12652
3016	0.12665
3017	0.12688
3018	0.12718
3019	0.12754
3020	0.12789
3021	0.12827
3022	0.12873
3023	0.12938
3024	0.13027
3025	0.13104
3026	0.13154
3027	0.13203
3028	0.13286
3029	0.13408
3030	0.13529
3031	0.13629
3032	0.13722
3033	0.1383
3034	0.13944
3035	0.14037
3036	0.14107
3037	0.14174
3038	0.14272
3039	0.14399
3040	0.14533
3041	0.14662
3042	0.14787
3043	0.14909
3044	0.15021
3045	0.15124
3046	0.1522
3047	0.1531
3048	0.15403
3049	0.15513
3050	0.15643
3051	0.1576
3052	0.15854
3053	0.15951
3054	0.16073
3055	0.16201
3056	0.16306
3057	0.16409
3058	0.16508
3059	0.16589
3060	0.16669
3061	0.16762
3062	0.16888
3063	0.17019
3064	0.1713
3065	0.17236
3066	0.17356
3067	0.1748
3068	0.17584
3069	0.17669
3070	0.17747
3071	0.17832
3072	0.17925
3073	0.18026
3074	0.18133
3075	0.18248
3076	0.18384
3077	0.18536
3078	0.18678
3079	0.18801
3080	0.18909
3081	0.19017
3082	0.19124
3083	0.19244
3084	0.19374
3085	0.19499
3086	0.19623
3087	0.19756
3088	0.1989
3089	0.20034
3090	0.20199
3091	0.20365
3092	0.20503
3093	0.20628
3094	0.20772
3095	0.20937
3096	0.2111
3097	0.21283
3098	0.21467
3099	0.21663
3100	0.21847
3101	0.22017
3102	0.22171
3103	0.22326
3104	0.22495
3105	0.22689
3106	0.22903
3107	0.23126
3108	0.23355
3109	0.23572
3110	0.23765
3111	0.23949
3112	0.24153
3113	0.24396
3114	0.24659
3115	0.24919
3116	0.25158
3117	0.25382
3118	0.25602
3119	0.25812
3120	0.2603
3121	0.26252
3122	0.26451
3123	0.26625
3124	0.26805
3125	0.27012
3126	0.27226
3127	0.27435
3128	0.27641
3129	0.27857
3130	0.28081
3131	0.28302
3132	0.28512
3133	0.287
3134	0.28887
3135	0.29093
3136	0.2932
3137	0.29562
3138	0.29802
3139	0.30033
3140	0.30245
3141	0.30446
3142	0.30644
3143	0.30852
3144	0.3108
3145	0.31315
3146	0.31539
3147	0.31768
3148	0.32003
3149	0.3224
3150	0.3248
3151	0.32728
3152	0.32975
3153	0.33206
3154	0.33429
3155	0.33646
3156	0.33855
3157	0.34055
3158	0.34261
3159	0.34478
3160	0.34702
3161	0.34931
3162	0.35153
3163	0.35379
3164	0.35608
3165	0.35835
3166	0.3607
3167	0.36313
3168	0.36558
3169	0.36796
3170	0.37033
3171	0.37278
3172	0.37532
3173	0.37789
3174	0.38042
3175	0.38294
3176	0.38549
3177	0.38806
3178	0.39065
3179	0.39326
3180	0.39579
3181	0.39826
3182	0.40085
3183	0.40347
3184	0.40594
3185	0.40835
3186	0.41081
3187	0.41343
3188	0.41613
3189	0.41875
3190	0.42128
3191	0.42369
3192	0.42613
3193	0.42853
3194	0.43102
3195	0.43358
3196	0.43604
3197	0.43841
3198	0.44073
3199	0.44302
3200	0.44527
3201	0.4475
3202	0.44977
3203	0.45204
3204	0.4542
3205	0.45635
3206	0.45854
3207	0.46071
3208	0.46285
3209	0.4649
3210	0.46683
3211	0.46874
3212	0.47084
3213	0.47305
3214	0.47514
3215	0.47702
3216	0.47875
3217	0.48065
3218	0.48276
3219	0.48489
3220	0.48683
3221	0.48864
3222	0.49051
3223	0.49245
3224	0.49439
3225	0.49633
3226	0.49832
3227	0.50041
3228	0.50242
3229	0.50436
3230	0.50641
3231	0.50876
3232	0.5112
3233	0.5134
3234	0.51534
3235	0.51711
3236	0.51884
3237	0.5207
3238	0.52276
3239	0.52488
3240	0.527
3241	0.52912
3242	0.53119
3243	0.53334
3244	0.53569
3245	0.53807
3246	0.5403
3247	0.54233
3248	0.54421
3249	0.54595
3250	0.54766
3251	0.54961
3252	0.5517
3253	0.55385
3254	0.55595
3255	0.5581
3256	0.56008
3257	0.56177
3258	0.56346
3259	0.56529
3260	0.56717
3261	0.56908
3262	0.57099
3263	0.57278
3264	0.57443
3265	0.57605
3266	0.57775
3267	0.57957
3268	0.58147
3269	0.58346
3270	0.58556
3271	0.58753
3272	0.58918
3273	0.59049
3274	0.5917
3275	0.59322
3276	0.5947
3277	0.59606
3278	0.59739
3279	0.59881
3280	0.60044
3281	0.60214
3282	0.60376
3283	0.60526
3284	0.60667
3285	0.608
3286	0.60936
3287	0.61083
3288	0.61232
3289	0.61384
3290	0.61559
3291	0.61745
3292	0.61914
3293	0.6205
3294	0.62182
3295	0.6233
3296	0.6249
3297	0.62645
3298	0.6278
3299	0.62914
3300	0.63057
3301	0.63208
3302	0.63357
3303	0.6351
3304	0.63668
3305	0.63827
3306	0.63979
3307	0.64114
3308	0.64237
3309	0.64357
3310	0.6448
3311	0.64614
3312	0.64743
3313	0.64855
3314	0.64969
3315	0.65099
3316	0.65236
3317	0.65371
3318	0.65517
3319	0.65665
3320	0.65802
3321	0.65926
3322	0.66041
3323	0.66171
3324	0.66331
3325	0.66513
3326	0.66674
3327	0.66785
3328	0.66882
3329	0.67009
3330	0.67163
3331	0.67301
3332	0.67437
3333	0.67601
3334	0.67762
3335	0.67903
3336	0.68048
3337	0.68206
3338	0.68368
3339	0.68522
3340	0.68667
3341	0.68799
3342	0.68943
3343	0.69099
3344	0.69241
3345	0.69366
3346	0.69499
3347	0.69646
3348	0.69802
3349	0.6998
3350	0.70159
3351	0.70305
3352	0.7042
3353	0.70528
3354	0.70641
3355	0.70767
3356	0.709
3357	0.71034
3358	0.71177
3359	0.71346
3360	0.71516
3361	0.71652
3362	0.7177
3363	0.71886
3364	0.72017
3365	0.72156
3366	0.72299
3367	0.72416
3368	0.7249
3369	0.72556
3370	0.72638
3371	0.72722
3372	0.72794
3373	0.72857
3374	0.72911
3375	0.72959
3376	0.73013
3377	0.73057
3378	0.73092
3379	0.7313
3380	0.73161
3381	0.73167
3382	0.73154
3383	0.73151
3384	0.73144
3385	0.73122
3386	0.73104
3387	0.73085
3388	0.73071
3389	0.73073
3390	0.73082
3391	0.73087
3392	0.73063
3393	0.73003
3394	0.72925
3395	0.72856
3396	0.72801
3397	0.72755
3398	0.72702
3399	0.72646
3400	0.72602
3401	0.72561
3402	0.72502
3403	0.72431
3404	0.72368
3405	0.72316
3406	0.72267
3407	0.72212
3408	0.72162
3409	0.7212
3410	0.72073
3411	0.72019
3412	0.71983
3413	0.71944
3414	0.71879
3415	0.71808
3416	0.71738
3417	0.7168
3418	0.71638
3419	0.71622
3420	0.71608
3421	0.71549
3422	0.71459
3423	0.71373
3424	0.71306
3425	0.71261
3426	0.71226
3427	0.71196
3428	0.71169
3429	0.71151
3430	0.71123
3431	0.71057
3432	0.7096
3433	0.70876
3434	0.70835
3435	0.70786
3436	0.70698
3437	0.70609
3438	0.70525
3439	0.70417
3440	0.70298
3441	0.70205
3442	0.70119
3443	0.7002
3444	0.69937
3445	0.69873
3446	0.69796
3447	0.69666
3448	0.69509
3449	0.69377
3450	0.69258
3451	0.69135
3452	0.69014
3453	0.68903
3454	0.68802
3455	0.68699
3456	0.68576
3457	0.68442
3458	0.6833
3459	0.68232
3460	0.68119
3461	0.6797
3462	0.67805
3463	0.6766
3464	0.6753
3465	0.6742
3466	0.67313
3467	0.67184
3468	0.67032
3469	0.66879
3470	0.66698
3471	0.66469
3472	0.66244
3473	0.66061
3474	0.65893
3475	0.65711
3476	0.65516
3477	0.65335
3478	0.65189
3479	0.65069
3480	0.64926
3481	0.64702
3482	0.64425
3483	0.64173
3484	0.63988
3485	0.63828
3486	0.63657
3487	0.63454
3488	0.63197
3489	0.62928
3490	0.62691
3491	0.6247
3492	0.62257
3493	0.62054
3494	0.61875
3495	0.61684
3496	0.61459
3497	0.61213
3498	0.60967
3499	0.60708
3500	0.60445
3501	0.60223
3502	0.60017
3503	0.59732
3504	0.59363
3505	0.59001
3506	0.58694
3507	0.58419
3508	0.58132
3509	0.57792
3510	0.57443
3511	0.57168
3512	0.56934
3513	0.56687
3514	0.56392
3515	0.5606
3516	0.5576
3517	0.55488
3518	0.55201
3519	0.54884
3520	0.54593
3521	0.54366
3522	0.5416
3523	0.53914
3524	0.53617
3525	0.53305
3526	0.52999
3527	0.52682
3528	0.52346
3529	0.52015
3530	0.51719
3531	0.51449
3532	0.51192
3533	0.50945
3534	0.50717
3535	0.50514
3536	0.50284
3537	0.50003
3538	0.49717
3539	0.49433
3540	0.49153
3541	0.48931
3542	0.48778
3543	0.48619
3544	0.48418
3545	0.4819
3546	0.47911
3547	0.47557
3548	0.4721
3549	0.4696
3550	0.46797
3551	0.46635
3552	0.4637
3553	0.46019
3554	0.45712
3555	0.45474
3556	0.45237
3557	0.44982
3558	0.44739
3559	0.4452
3560	0.44302
3561	0.4409
3562	0.43877
3563	0.43642
3564	0.43434
3565	0.43255
3566	0.42999
3567	0.42608
3568	0.42183
3569	0.41902
3570	0.41712
3571	0.41457
3572	0.4116
3573	0.409
3574	0.40642
3575	0.40358
3576	0.40079
3577	0.39805
3578	0.39547
3579	0.39294
3580	0.39018
3581	0.38764
3582	0.38538
3583	0.38296
3584	0.38091
3585	0.37965
3586	0.37784
3587	0.37387
3588	0.36839
3589	0.36365
3590	0.36097
3591	0.35939
3592	0.3576
3593	0.35497
3594	0.35191
3595	0.34861
3596	0.34529
3597	0.34286
3598	0.34086
3599	0.33859
3600	0.33578
3601	0.33233
3602	0.32901
3603	0.32619
3604	0.32362
3605	0.32151
3606	0.31939
3607	0.3165
3608	0.31315
3609	0.30962
3610	0.30688
3611	0.30551
3612	0.30358
3613	0.30032
3614	0.29717
3615	0.29482
3616	0.29294
3617	0.29106
3618	0.28858
3619	0.28539
3620	0.28186
3621	0.27874
3622	0.27594
3623	0.27308
3624	0.27072
3625	0.26884
3626	0.26719
3627	0.26619
3628	0.26466
3629	0.25953
3630	0.25366
3631	0.25202
3632	0.25111
3633	0.24918
3634	0.24614
3635	0.24336
3636	0.24144
3637	0.23946
3638	0.23706
3639	0.23462
3640	0.23253
3641	0.23052
3642	0.22812
3643	0.22563
3644	0.22392
3645	0.2231
3646	0.22246
3647	0.22089
3648	0.21883
3649	0.21692
3650	0.21337
3651	0.20802
3652	0.20429
3653	0.20252
3654	0.20137
3655	0.20001
3656	0.19699
3657	0.19323
3658	0.19132
3659	0.18971
3660	0.18751
3661	0.18505
3662	0.18255
3663	0.18012
3664	0.1778
3665	0.17572
3666	0.17413
3667	0.17306
3668	0.17215
3669	0.17072
3670	0.16751
3671	0.1633
3672	0.16134
3673	0.16142
3674	0.16146
3675	0.15824
3676	0.1515
3677	0.14938
3678	0.14902
3679	0.14732
3680	0.14471
3681	0.14267
3682	0.14126
3683	0.13977
3684	0.13805
3685	0.13662
3686	0.13623
3687	0.1365
3688	0.13604
3689	0.13462
3690	0.13268
3691	0.12945
3692	0.1262
3693	0.12451
3694	0.12352
3695	0.12253
3696	0.12134
3697	0.11993
3698	0.11849
3699	0.11744
3700	0.11684
3701	0.11577
3702	0.11377
3703	0.11237
3704	0.11162
3705	0.11066
3706	0.10974
3707	0.10943
3708	0.10927
3709	0.10865
3710	0.10845
3711	0.10817
3712	0.10562
3713	0.10312
3714	0.10244
3715	0.10175
3716	0.10119
3717	0.10089
3718	0.10026
3719	0.09934
3720	0.0989
3721	0.09857
3722	0.09745
3723	0.09629
3724	0.0957
3725	0.0949
3726	0.09345
3727	0.09191
3728	0.09114
3729	0.09122
3730	0.09176
3731	0.09193
3732	0.09143
3733	0.09188
3734	0.09244
3735	0.09162
3736	0.08989
3737	0.08839
3738	0.08745
3739	0.08706
3740	0.08658
3741	0.0861
3742	0.08647
3743	0.08678
3744	0.08422
3745	0.08074
3746	0.0816
3747	0.0837
3748	0.08419
3749	0.08317
3750	0.08248
3751	0.08194
3752	0.07914
3753	0.07695
3754	0.07719
3755	0.0776
3756	0.07701
3757	0.07639
3758	0.07622
3759	0.07529
3760	0.07349
3761	0.0727
3762	0.07246
3763	0.07226
3764	0.07244
3765	0.07211
3766	0.07092
3767	0.07057
3768	0.07121
3769	0.07107
3770	0.0694
3771	0.06789
3772	0.06748
3773	0.06714
3774	0.06668
3775	0.06626
3776	0.06603
3777	0.06617
3778	0.06638
3779	0.06574
3780	0.06445
3781	0.06369
3782	0.06363
3783	0.06384
3784	0.06364
3785	0.06277
3786	0.06182
3787	0.06115
3788	0.06071
3789	0.0604
3790	0.06004
3791	0.05966
3792	0.05928
3793	0.05908
3794	0.05923
3795	0.05952
3796	0.05923
3797	0.05833
3798	0.05811
3799	0.05886
3800	0.05942
3801	0.05836
3802	0.05623
3803	0.05526
3804	0.05559
3805	0.05626
3806	0.05604
3807	0.05421
3808	0.05292
3809	0.05268
3810	0.05241
3811	0.05205
3812	0.05192
3813	0.05237
3814	0.05346
3815	0.05391
3816	0.05234
3817	0.05146
3818	0.05236
3819	0.05334
3820	0.05366
3821	0.05158
3822	0.04864
3823	0.04842
3824	0.0489
3825	0.04903
3826	0.04849
3827	0.04747
3828	0.0469
3829	0.04722
3830	0.04755
3831	0.04691
3832	0.04613
3833	0.04633
3834	0.04654
3835	0.04683
3836	0.04807
3837	0.0483
3838	0.04672
3839	0.04592
3840	0.04516
3841	0.04414
3842	0.04416
3843	0.04375
3844	0.0425
3845	0.04186
3846	0.04174
3847	0.04156
3848	0.04158
3849	0.04217
3850	0.04328
3851	0.04434
3852	0.04464
3853	0.04284
3854	0.03912
3855	0.0381
3856	0.0392
3857	0.03892
3858	0.03828
3859	0.0384
3860	0.03871
3861	0.03862
3862	0.0387
3863	0.03944
3864	0.03927
3865	0.03744
3866	0.0366
3867	0.03749
3868	0.03849
3869	0.03818
3870	0.03586
3871	0.03518
3872	0.03628
3873	0.0366
3874	0.03519
3875	0.0336
3876	0.0334
3877	0.03368
3878	0.03433
3879	0.03478
3880	0.03384
3881	0.03243
3882	0.03244
3883	0.03328
3884	0.03406
3885	0.03363
3886	0.03179
3887	0.03076
3888	0.03104
3889	0.03186
3890	0.03252
3891	0.032
3892	0.03091
3893	0.0304
3894	0.03006
3895	0.02982
3896	0.03004
3897	0.03072
3898	0.03096
3899	0.03037
3900	0.03033
3901	0.03059
3902	0.03026
3903	0.02982
3904	0.02905
3905	0.02791
3906	0.02723
3907	0.02696
3908	0.02681
3909	0.02668
3910	0.02652
3911	0.02634
3912	0.02618
3913	0.02614
3914	0.02635
3915	0.02668
3916	0.02649
3917	0.02563
3918	0.0254
3919	0.02549
3920	0.02502
3921	0.02474
3922	0.02507
3923	0.02551
3924	0.02533
3925	0.02416
3926	0.02334
3927	0.02355
3928	0.02407
3929	0.02429
3930	0.02426
3931	0.0241
3932	0.02364
3933	0.0232
3934	0.023
3935	0.02277
3936	0.02248
3937	0.02227
3938	0.0221
3939	0.02194
3940	0.02199
3941	0.0222
3942	0.02216
3943	0.02174
3944	0.02133
3945	0.02108
3946	0.02088
3947	0.02076
3948	0.02081
3949	0.0209
3950	0.02072
3951	0.0204
3952	0.02015
3953	0.01988
3954	0.01975
3955	0.01961
3956	0.01932
3957	0.01906
3958	0.01885
3959	0.01866
3960	0.01857
3961	0.01852
3962	0.01846
3963	0.01844
3964	0.01835
3965	0.01819
3966	0.01804
3967	0.01786
3968	0.01757
3969	0.01724
3970	0.01704
3971	0.01708
3972	0.01715
3973	0.01706
3974	0.01683
3975	0.01649
3976	0.01622
3977	0.01623
3978	0.01625
3979	0.01604
3980	0.01582
3981	0.01572
3982	0.01563
3983	0.01555
3984	0.0155
3985	0.01537
3986	0.01515
3987	0.01497
3988	0.01487
3989	0.01484
3990	0.01473
3991	0.0145
3992	0.01434
3993	0.01435
3994	0.01434
3995	0.01418
3996	0.014
3997	0.01402
3998	0.01412
3999	0.0141
4000	0.01392