4000.18193	0.02309
3999.21756	0.02306
3998.2532	0.02304
3997.28884	0.02303
3996.32447	0.02304
3995.36011	0.02306
3994.39574	0.02308
3993.43138	0.02312
3992.46702	0.02317
3991.50265	0.02324
3990.53829	0.02331
3989.57392	0.0234
3988.60956	0.0235
3987.6452	0.02371
3986.68083	0.02392
3985.71647	0.02411
3984.7521	0.02428
3983.78774	0.0244
3982.82338	0.02446
3981.85901	0.02454
3980.89465	0.02465
3979.93028	0.02473
3978.96592	0.02471
3978.00156	0.02466
3977.03719	0.02467
3976.07283	0.02477
3975.10846	0.02494
3974.1441	0.02518
3973.17974	0.02542
3972.21537	0.02558
3971.25101	0.0257
3970.28664	0.02581
3969.32228	0.02591
3968.35792	0.02601
3967.39355	0.0261
3966.42919	0.02623
3965.46482	0.02646
3964.50046	0.02668
3963.5361	0.02685
3962.57173	0.02708
3961.60737	0.02734
3960.643	0.02752
3959.67864	0.02758
3958.71428	0.02753
3957.74991	0.02736
3956.78555	0.02718
3955.82118	0.02719
3954.85682	0.02737
3953.89246	0.02746
3952.92809	0.02735
3951.96373	0.02722
3950.99936	0.02714
3950.035	0.02705
3949.07064	0.02695
3948.10627	0.02696
3947.14191	0.02712
3946.17754	0.02742
3945.21318	0.02786
3944.24882	0.02839
3943.28445	0.0289
3942.32009	0.02931
3941.35572	0.02962
3940.39136	0.02982
3939.427	0.02995
3938.46263	0.03007
3937.49827	0.03026
3936.5339	0.03047
3935.56954	0.03045
3934.60518	0.03022
3933.64081	0.03006
3932.67645	0.03009
3931.71208	0.03005
3930.74772	0.02974
3929.78336	0.02949
3928.81899	0.02951
3927.85463	0.02948
3926.89026	0.02926
3925.9259	0.02908
3924.96154	0.02912
3923.99717	0.02936
3923.03281	0.02975
3922.06844	0.03021
3921.10408	0.03065
3920.13972	0.03102
3919.17535	0.0315
3918.21099	0.03224
3917.24662	0.03316
3916.28226	0.0341
3915.3179	0.03485
3914.35353	0.03532
3913.38917	0.03528
3912.4248	0.03471
3911.46044	0.03412
3910.49608	0.03364
3909.53171	0.03297
3908.56735	0.03208
3907.60298	0.03121
3906.63862	0.03061
3905.67426	0.03015
3904.70989	0.02969
3903.74553	0.02948
3902.78116	0.02936
3901.8168	0.02904
3900.85244	0.02879
3899.88807	0.02888
3898.92371	0.02947
3897.95934	0.03056
3896.99498	0.03177
3896.03062	0.03288
3895.06625	0.03395
3894.10189	0.03491
3893.13752	0.0357
3892.17316	0.03621
3891.2088	0.03611
3890.24443	0.03562
3889.28007	0.03516
3888.3157	0.03496
3887.35134	0.03492
3886.38698	0.03512
3885.42261	0.03547
3884.45825	0.03579
3883.49388	0.03634
3882.52952	0.03727
3881.56516	0.03812
3880.60079	0.03798
3879.63643	0.03708
3878.67206	0.03628
3877.7077	0.03629
3876.74333	0.0369
3875.77897	0.03732
3874.81461	0.03734
3873.85024	0.03698
3872.88588	0.03641
3871.92151	0.03594
3870.95715	0.03576
3869.99279	0.03592
3869.02842	0.03612
3868.06406	0.03614
3867.09969	0.0366
3866.13533	0.03792
3865.17097	0.0396
3864.2066	0.04039
3863.24224	0.04026
3862.27787	0.03951
3861.31351	0.03874
3860.34915	0.03835
3859.38478	0.03806
3858.42042	0.03746
3857.45605	0.03672
3856.49169	0.03684
3855.52733	0.03774
3854.56296	0.03871
3853.5986	0.03943
3852.63423	0.03996
3851.66987	0.04062
3850.70551	0.04128
3849.74114	0.04174
3848.77678	0.04201
3847.81241	0.04252
3846.84805	0.04338
3845.88369	0.04417
3844.91932	0.04485
3843.95496	0.0457
3842.99059	0.04641
3842.02623	0.04611
3841.06187	0.04488
3840.0975	0.04405
3839.13314	0.04395
3838.16877	0.04417
3837.20441	0.04446
3836.24005	0.04501
3835.27568	0.04608
3834.31132	0.04771
3833.34695	0.04981
3832.38259	0.05139
3831.41823	0.05197
3830.45386	0.05235
3829.4895	0.05287
3828.52513	0.05332
3827.56077	0.05332
3826.59641	0.05256
3825.63204	0.05149
3824.66768	0.05075
3823.70331	0.05035
3822.73895	0.05015
3821.77459	0.05033
3820.81022	0.05093
3819.84586	0.05178
3818.88149	0.05289
3817.91713	0.054
3816.95277	0.05503
3815.9884	0.05617
3815.02404	0.05753
3814.05967	0.05928
3813.09531	0.06106
3812.13095	0.06211
3811.16658	0.06267
3810.20222	0.06288
3809.23785	0.06249
3808.27349	0.0618
3807.30913	0.06122
3806.34476	0.06076
3805.3804	0.06035
3804.41603	0.05973
3803.45167	0.05907
3802.48731	0.05899
3801.52294	0.05947
3800.55858	0.06034
3799.59421	0.06154
3798.62985	0.0631
3797.66549	0.06498
3796.70112	0.06695
3795.73676	0.06852
3794.77239	0.06955
3793.80803	0.07078
3792.84367	0.07255
3791.8793	0.07456
3790.91494	0.0761
3789.95057	0.07646
3788.98621	0.07607
3788.02185	0.076
3787.05748	0.0763
3786.09312	0.07662
3785.12875	0.07667
3784.16439	0.07661
3783.20003	0.0769
3782.23566	0.07764
3781.2713	0.07831
3780.30693	0.07863
3779.34257	0.07892
3778.37821	0.07943
3777.41384	0.08004
3776.44948	0.08045
3775.48511	0.08073
3774.52075	0.08102
3773.55639	0.08128
3772.59202	0.08163
3771.62766	0.08232
3770.66329	0.08299
3769.69893	0.0834
3768.73457	0.08362
3767.7702	0.08345
3766.80584	0.08305
3765.84147	0.08301
3764.87711	0.0836
3763.91275	0.08463
3762.94838	0.08535
3761.98402	0.08565
3761.01965	0.08554
3760.05529	0.08491
3759.09093	0.08392
3758.12656	0.08276
3757.1622	0.08192
3756.19783	0.08137
3755.23347	0.08017
3754.26911	0.07875
3753.30474	0.07757
3752.34038	0.07692
3751.37601	0.07679
3750.41165	0.07722
3749.44729	0.07819
3748.48292	0.07943
3747.51856	0.08061
3746.55419	0.08144
3745.58983	0.08196
3744.62547	0.0825
3743.6611	0.08327
3742.69674	0.08419
3741.73237	0.08519
3740.76801	0.08606
3739.80365	0.0866
3738.83928	0.08724
3737.87492	0.0879
3736.91055	0.08846
3735.94619	0.08931
3734.98182	0.09056
3734.01746	0.09179
3733.0531	0.09223
3732.08873	0.09225
3731.12437	0.09318
3730.16	0.09463
3729.19564	0.09614
3728.23128	0.09792
3727.26691	0.10017
3726.30255	0.10267
3725.33818	0.10518
3724.37382	0.10754
3723.40946	0.10912
3722.44509	0.10988
3721.48073	0.11043
3720.51636	0.11061
3719.552	0.11051
3718.58764	0.11073
3717.62327	0.11145
3716.65891	0.11244
3715.69454	0.11348
3714.73018	0.11452
3713.76582	0.11555
3712.80145	0.11643
3711.83709	0.11716
3710.87272	0.11774
3709.90836	0.11832
3708.944	0.11929
3707.97963	0.12062
3707.01527	0.12203
3706.0509	0.12369
3705.08654	0.12585
3704.12218	0.12847
3703.15781	0.13142
3702.19345	0.13423
3701.22908	0.13646
3700.26472	0.13773
3699.30036	0.13789
3698.33599	0.13769
3697.37163	0.13756
3696.40726	0.13779
3695.4429	0.13843
3694.47854	0.13934
3693.51417	0.14051
3692.54981	0.14208
3691.58544	0.14396
3690.62108	0.1457
3689.65672	0.14721
3688.69235	0.14912
3687.72799	0.15175
3686.76362	0.15385
3685.79926	0.15482
3684.8349	0.15562
3683.87053	0.15684
3682.90617	0.15875
3681.9418	0.16095
3680.97744	0.16266
3680.01308	0.16365
3679.04871	0.16401
3678.08435	0.16423
3677.11998	0.1646
3676.15562	0.16522
3675.19126	0.16646
3674.22689	0.16839
3673.26253	0.1708
3672.29816	0.17361
3671.3338	0.17685
3670.36944	0.18059
3669.40507	0.18484
3668.44071	0.18937
3667.47634	0.1936
3666.51198	0.19747
3665.54762	0.20124
3664.58325	0.20466
3663.61889	0.20723
3662.65452	0.20983
3661.69016	0.21296
3660.7258	0.21568
3659.76143	0.21767
3658.79707	0.21835
3657.8327	0.21767
3656.86834	0.2167
3655.90398	0.21622
3654.93961	0.21638
3653.97525	0.21696
3653.01088	0.21774
3652.04652	0.21877
3651.08216	0.22018
3650.11779	0.22201
3649.15343	0.22415
3648.18906	0.22656
3647.2247	0.22939
3646.26034	0.23268
3645.29597	0.23601
3644.33161	0.239
3643.36724	0.24222
3642.40288	0.24626
3641.43852	0.251
3640.47415	0.25531
3639.50979	0.25809
3638.54542	0.25956
3637.58106	0.26018
3636.6167	0.26052
3635.65233	0.26067
3634.68797	0.26095
3633.7236	0.26183
3632.75924	0.26335
3631.79488	0.26522
3630.83051	0.26704
3629.86615	0.26858
3628.90178	0.26999
3627.93742	0.27156
3626.97306	0.27346
3626.00869	0.2756
3625.04433	0.27789
3624.07996	0.2802
3623.1156	0.28243
3622.15124	0.28474
3621.18687	0.28737
3620.22251	0.29031
3619.25814	0.29317
3618.29378	0.29536
3617.32942	0.2964
3616.36505	0.29707
3615.40069	0.29851
3614.43632	0.30053
3613.47196	0.30298
3612.5076	0.30576
3611.54323	0.30871
3610.57887	0.31172
3609.6145	0.31472
3608.65014	0.31758
3607.68578	0.32024
3606.72141	0.32264
3605.75705	0.32491
3604.79268	0.32724
3603.82832	0.32956
3602.86396	0.33175
3601.89959	0.33392
3600.93523	0.33625
3599.97086	0.33888
3599.0065	0.34151
3598.04214	0.34353
3597.07777	0.34486
3596.11341	0.34599
3595.14904	0.34722
3594.18468	0.34873
3593.22031	0.35072
3592.25595	0.35315
3591.29159	0.35572
3590.32722	0.35828
3589.36286	0.36082
3588.39849	0.36335
3587.43413	0.36593
3586.46977	0.3686
3585.5054	0.37132
3584.54104	0.37401
3583.57667	0.37656
3582.61231	0.37909
3581.64795	0.38176
3580.68358	0.38481
3579.71922	0.38832
3578.75485	0.39182
3577.79049	0.39454
3576.82613	0.39614
3575.86176	0.39681
3574.8974	0.39706
3573.93303	0.39749
3572.96867	0.39835
3572.00431	0.39949
3571.03994	0.40071
3570.07558	0.4021
3569.11121	0.4037
3568.14685	0.40539
3567.18249	0.40723
3566.21812	0.40937
3565.25376	0.41175
3564.28939	0.41424
3563.32503	0.41668
3562.36067	0.41907
3561.3963	0.42166
3560.43194	0.42463
3559.46757	0.42792
3558.50321	0.43131
3557.53885	0.43456
3556.57448	0.43731
3555.61012	0.43916
3554.64575	0.44026
3553.68139	0.44123
3552.71703	0.44251
3551.75266	0.44403
3550.7883	0.44568
3549.82393	0.44749
3548.85957	0.44941
3547.89521	0.45134
3546.93084	0.45327
3545.96648	0.4553
3545.00211	0.45747
3544.03775	0.45983
3543.07339	0.46236
3542.10902	0.46491
3541.14466	0.46734
3540.18029	0.46967
3539.21593	0.47201
3538.25157	0.4744
3537.2872	0.47677
3536.32284	0.47907
3535.35847	0.48123
3534.39411	0.48312
3533.42975	0.48477
3532.46538	0.4864
3531.50102	0.48825
3530.53665	0.49037
3529.57229	0.49266
3528.60793	0.49509
3527.64356	0.49768
3526.6792	0.50044
3525.71483	0.50334
3524.75047	0.50637
3523.78611	0.50957
3522.82174	0.51309
3521.85738	0.51689
3520.89301	0.52079
3519.92865	0.5246
3518.96429	0.5284
3517.99992	0.53234
3517.03556	0.53646
3516.07119	0.54071
3515.10683	0.54506
3514.14247	0.5495
3513.1781	0.55407
3512.21374	0.55878
3511.24937	0.56358
3510.28501	0.56862
3509.32065	0.57402
3508.35628	0.57965
3507.39192	0.58524
3506.42755	0.59062
3505.46319	0.5958
3504.49883	0.60072
3503.53446	0.60527
3502.5701	0.60936
3501.60573	0.61295
3500.64137	0.61598
3499.67701	0.61833
3498.71264	0.61988
3497.74828	0.62063
3496.78391	0.62082
3495.81955	0.62074
3494.85519	0.62051
3493.89082	0.62004
3492.92646	0.61921
3491.96209	0.618
3490.99773	0.61666
3490.03337	0.61551
3489.069	0.6147
3488.10464	0.61423
3487.14027	0.6141
3486.17591	0.61424
3485.21155	0.61455
3484.24718	0.61498
3483.28282	0.61554
3482.31845	0.61628
3481.35409	0.61715
3480.38973	0.61813
3479.42536	0.61923
3478.461	0.62042
3477.49663	0.62163
3476.53227	0.62283
3475.56791	0.62405
3474.60354	0.62537
3473.63918	0.62671
3472.67481	0.62798
3471.71045	0.62919
3470.74609	0.63028
3469.78172	0.63126
3468.81736	0.63225
3467.85299	0.63334
3466.88863	0.63452
3465.92427	0.63572
3464.9599	0.6369
3463.99554	0.63806
3463.03117	0.63919
3462.06681	0.64031
3461.10245	0.64146
3460.13808	0.64272
3459.17372	0.64403
3458.20935	0.64526
3457.24499	0.64639
3456.28062	0.64754
3455.31626	0.64873
3454.3519	0.64995
3453.38753	0.65117
3452.42317	0.65235
3451.4588	0.65352
3450.49444	0.65468
3449.53008	0.65591
3448.56571	0.65729
3447.60135	0.65881
3446.63698	0.66043
3445.67262	0.66218
3444.70826	0.66408
3443.74389	0.6661
3442.77953	0.66817
3441.81516	0.67031
3440.8508	0.67255
3439.88644	0.67488
3438.92207	0.67731
3437.95771	0.6798
3436.99334	0.6823
3436.02898	0.6847
3435.06462	0.68694
3434.10025	0.68916
3433.13589	0.69141
3432.17152	0.6936
3431.20716	0.6956
3430.2428	0.6974
3429.27843	0.6991
3428.31407	0.70075
3427.3497	0.70231
3426.38534	0.70375
3425.42098	0.70507
3424.45661	0.70628
3423.49225	0.70739
3422.52788	0.70839
3421.56352	0.70924
3420.59916	0.70991
3419.63479	0.7104
3418.67043	0.71074
3417.70606	0.71094
3416.7417	0.71098
3415.77734	0.71082
3414.81297	0.71043
3413.84861	0.70982
3412.88424	0.70901
3411.91988	0.70803
3410.95552	0.70688
3409.99115	0.70557
3409.02679	0.70411
3408.06242	0.70247
3407.09806	0.70072
3406.1337	0.69896
3405.16933	0.69723
3404.20497	0.69551
3403.2406	0.6938
3402.27624	0.69216
3401.31188	0.69071
3400.34751	0.68944
3399.38315	0.68836
3398.41878	0.68748
3397.45442	0.68681
3396.49006	0.68631
3395.52569	0.68594
3394.56133	0.68569
3393.59696	0.68557
3392.6326	0.68555
3391.66824	0.68563
3390.70387	0.68585
3389.73951	0.68621
3388.77514	0.68668
3387.81078	0.68727
3386.84642	0.68797
3385.88205	0.68873
3384.91769	0.6895
3383.95332	0.69034
3382.98896	0.69128
3382.0246	0.69229
3381.06023	0.69331
3380.09587	0.69438
3379.1315	0.69555
3378.16714	0.6968
3377.20278	0.69808
3376.23841	0.69935
3375.27405	0.7006
3374.30968	0.70183
3373.34532	0.70298
3372.38096	0.70405
3371.41659	0.70506
3370.45223	0.70604
3369.48786	0.70697
3368.5235	0.70786
3367.55914	0.70869
3366.59477	0.7094
3365.63041	0.70997
3364.66604	0.71042
3363.70168	0.71077
3362.73732	0.71099
3361.77295	0.71109
3360.80859	0.71109
3359.84422	0.71099
3358.87986	0.71076
3357.9155	0.71037
3356.95113	0.70979
3355.98677	0.70902
3355.0224	0.70805
3354.05804	0.70694
3353.09368	0.70571
3352.12931	0.70436
3351.16495	0.70289
3350.20058	0.70133
3349.23622	0.69973
3348.27186	0.69816
3347.30749	0.6966
3346.34313	0.69503
3345.37876	0.69348
3344.4144	0.69197
3343.45004	0.69049
3342.48567	0.68908
3341.52131	0.68774
3340.55694	0.68648
3339.59258	0.68529
3338.62822	0.68412
3337.66385	0.68295
3336.69949	0.68175
3335.73512	0.68054
3334.77076	0.6793
3333.8064	0.67804
3332.84203	0.67677
3331.87767	0.67554
3330.9133	0.67438
3329.94894	0.67332
3328.98458	0.67236
3328.02021	0.67153
3327.05585	0.67088
3326.09148	0.67048
3325.12712	0.67032
3324.16276	0.67037
3323.19839	0.67065
3322.23403	0.67118
3321.26966	0.67196
3320.3053	0.67294
3319.34094	0.6741
3318.37657	0.67544
3317.41221	0.67697
3316.44784	0.67863
3315.48348	0.68036
3314.51911	0.68211
3313.55475	0.68383
3312.59039	0.68547
3311.62602	0.68693
3310.66166	0.68814
3309.69729	0.68905
3308.73293	0.68963
3307.76857	0.68986
3306.8042	0.68974
3305.83984	0.68932
3304.87547	0.68861
3303.91111	0.68764
3302.94675	0.68643
3301.98238	0.68502
3301.01802	0.68343
3300.05365	0.68174
3299.08929	0.67999
3298.12493	0.67826
3297.16056	0.67662
3296.1962	0.67515
3295.23183	0.67389
3294.26747	0.67286
3293.30311	0.67204
3292.33874	0.67142
3291.37438	0.67099
3290.41001	0.67071
3289.44565	0.67056
3288.48129	0.67048
3287.51692	0.67042
3286.55256	0.67035
3285.58819	0.67027
3284.62383	0.67016
3283.65947	0.67002
3282.6951	0.66985
3281.73074	0.66963
3280.76637	0.66933
3279.80201	0.66892
3278.83765	0.6684
3277.87328	0.66776
3276.90892	0.66697
3275.94455	0.666
3274.98019	0.66486
3274.01583	0.66355
3273.05146	0.66207
3272.0871	0.6604
3271.12273	0.65853
3270.15837	0.6565
3269.19401	0.65431
3268.22964	0.65195
3267.26528	0.64943
3266.30091	0.64679
3265.33655	0.644
3264.37219	0.64103
3263.40782	0.63793
3262.44346	0.63469
3261.47909	0.63133
3260.51473	0.62788
3259.55037	0.62439
3258.586	0.6209
3257.62164	0.6174
3256.65727	0.61387
3255.69291	0.61026
3254.72855	0.6066
3253.76418	0.60289
3252.79982	0.59915
3251.83545	0.59538
3250.87109	0.59162
3249.90673	0.58787
3248.94236	0.58414
3247.978	0.58041
3247.01363	0.57669
3246.04927	0.57301
3245.08491	0.56941
3244.12054	0.56591
3243.15618	0.5625
3242.19181	0.55914
3241.22745	0.55583
3240.26309	0.5526
3239.29872	0.54946
3238.33436	0.54639
3237.36999	0.54343
3236.40563	0.54061
3235.44127	0.53795
3234.4769	0.53544
3233.51254	0.53304
3232.54817	0.53077
3231.58381	0.5287
3230.61945	0.52683
3229.65508	0.52521
3228.69072	0.52387
3227.72635	0.52283
3226.76199	0.52208
3225.79763	0.52158
3224.83326	0.52124
3223.8689	0.52103
3222.90453	0.52096
3221.94017	0.52093
3220.97581	0.52082
3220.01144	0.52053
3219.04708	0.52
3218.08271	0.51918
3217.11835	0.51803
3216.15399	0.51655
3215.18962	0.51471
3214.22526	0.51254
3213.26089	0.51005
3212.29653	0.50729
3211.33217	0.50432
3210.3678	0.50119
3209.40344	0.49794
3208.43907	0.49463
3207.47471	0.49135
3206.51035	0.4882
3205.54598	0.48525
3204.58162	0.48252
3203.61725	0.47999
3202.65289	0.47763
3201.68853	0.47541
3200.72416	0.47331
3199.7598	0.47129
3198.79543	0.46928
3197.83107	0.46721
3196.86671	0.46505
3195.90234	0.46277
3194.93798	0.46038
3193.97361	0.45786
3193.00925	0.45522
3192.04489	0.45245
3191.08052	0.44956
3190.11616	0.44658
3189.15179	0.44349
3188.18743	0.44029
3187.22307	0.43703
3186.2587	0.43371
3185.29434	0.43037
3184.32997	0.42706
3183.36561	0.42382
3182.40125	0.42066
3181.43688	0.41759
3180.47252	0.4146
3179.50815	0.41169
3178.54379	0.40887
3177.57943	0.40613
3176.61506	0.40345
3175.6507	0.40084
3174.68633	0.39828
3173.72197	0.39575
3172.7576	0.39327
3171.79324	0.39086
3170.82888	0.38853
3169.86451	0.38626
3168.90015	0.38405
3167.93578	0.38189
3166.97142	0.3798
3166.00706	0.37773
3165.04269	0.37573
3164.07833	0.37381
3163.11396	0.37197
3162.1496	0.37019
3161.18524	0.36846
3160.22087	0.36676
3159.25651	0.36511
3158.29214	0.36348
3157.32778	0.36187
3156.36342	0.36025
3155.39905	0.35861
3154.43469	0.35694
3153.47032	0.35523
3152.50596	0.35347
3151.5416	0.35169
3150.57723	0.34989
3149.61287	0.34808
3148.6485	0.34627
3147.68414	0.34447
3146.71978	0.34268
3145.75541	0.34092
3144.79105	0.33914
3143.82668	0.3373
3142.86232	0.33543
3141.89796	0.33355
3140.93359	0.33168
3139.96923	0.32982
3139.00486	0.32796
3138.0405	0.32609
3137.07614	0.32419
3136.11177	0.32229
3135.14741	0.32041
3134.18304	0.3185
3133.21868	0.31652
3132.25432	0.31454
3131.28995	0.31262
3130.32559	0.31076
3129.36122	0.30895
3128.39686	0.30724
3127.4325	0.30562
3126.46813	0.30405
3125.50377	0.30253
3124.5394	0.30102
3123.57504	0.29949
3122.61068	0.29785
3121.64631	0.29608
3120.68195	0.29417
3119.71758	0.29219
3118.75322	0.29017
3117.78886	0.2881
3116.82449	0.28594
3115.86013	0.28368
3114.89576	0.28135
3113.9314	0.27895
3112.96704	0.27652
3112.00267	0.27404
3111.03831	0.27153
3110.07394	0.26906
3109.10958	0.26674
3108.14522	0.26459
3107.18085	0.26252
3106.21649	0.26052
3105.25212	0.25861
3104.28776	0.25678
3103.3234	0.25501
3102.35903	0.25333
3101.39467	0.25173
3100.4303	0.25019
3099.46594	0.24869
3098.50158	0.24724
3097.53721	0.24584
3096.57285	0.2445
3095.60848	0.24321
3094.64412	0.24195
3093.67976	0.24072
3092.71539	0.23952
3091.75103	0.23831
3090.78666	0.2371
3089.8223	0.2359
3088.85794	0.23471
3087.89357	0.23357
3086.92921	0.23248
3085.96484	0.23145
3085.00048	0.23042
3084.03612	0.22936
3083.07175	0.22828
3082.10739	0.22721
3081.14302	0.22618
3080.17866	0.22519
3079.2143	0.22427
3078.24993	0.22339
3077.28557	0.22257
3076.3212	0.22178
3075.35684	0.22098
3074.39248	0.22018
3073.42811	0.21942
3072.46375	0.21871
3071.49938	0.21803
3070.53502	0.21735
3069.57066	0.21668
3068.60629	0.21603
3067.64193	0.21538
3066.67756	0.21474
3065.7132	0.21414
3064.74884	0.21361
3063.78447	0.21311
3062.82011	0.21263
3061.85574	0.21217
3060.89138	0.21176
3059.92702	0.21135
3058.96265	0.21091
3057.99829	0.21046
3057.03392	0.21002
3056.06956	0.2096
3055.1052	0.20919
3054.14083	0.20876
3053.17647	0.20829
3052.2121	0.20778
3051.24774	0.20726
3050.28338	0.20672
3049.31901	0.20612
3048.35465	0.20542
3047.39028	0.20462
3046.42592	0.20375
3045.46156	0.20281
3044.49719	0.2018
3043.53283	0.20076
3042.56846	0.19965
3041.6041	0.19845
3040.63974	0.19716
3039.67537	0.19584
3038.71101	0.19449
3037.74664	0.19309
3036.78228	0.1916
3035.81792	0.19007
3034.85355	0.18858
3033.88919	0.18713
3032.92482	0.1857
3031.96046	0.18429
3030.99609	0.18293
3030.03173	0.18164
3029.06737	0.18043
3028.103	0.17931
3027.13864	0.17826
3026.17427	0.17728
3025.20991	0.17637
3024.24555	0.17558
3023.28118	0.17487
3022.31682	0.17426
3021.35245	0.17377
3020.38809	0.17335
3019.42373	0.17298
3018.45936	0.17268
3017.495	0.17247
3016.53063	0.17231
3015.56627	0.17217
3014.60191	0.17206
3013.63754	0.17201
3012.67318	0.17203
3011.70881	0.17211
3010.74445	0.17222
3009.78009	0.17233
3008.81572	0.17248
3007.85136	0.17267
3006.88699	0.17287
3005.92263	0.17305
3004.95827	0.1732
3003.9939	0.17332
3003.02954	0.17343
3002.06517	0.17357
3001.10081	0.17373
3000.13645	0.17392
2999.17208	0.17417
2998.20772	0.17451
2997.24335	0.17496
2996.27899	0.17552
2995.31463	0.17621
2994.35026	0.17702
2993.3859	0.17798
2992.42153	0.17913
2991.45717	0.18047
2990.49281	0.18201
2989.52844	0.18373
2988.56408	0.18559
2987.59971	0.18756
2986.63535	0.18965
2985.67099	0.19184
2984.70662	0.19411
2983.74226	0.19641
2982.77789	0.19873
2981.81353	0.20108
2980.84917	0.20347
2979.8848	0.2059
2978.92044	0.20836
2977.95607	0.21085
2976.99171	0.21333
2976.02735	0.21581
2975.06298	0.21829
2974.09862	0.22076
2973.13425	0.2232
2972.16989	0.22558
2971.20553	0.22791
2970.24116	0.23018
2969.2768	0.23237
2968.31243	0.23448
2967.34807	0.23649
2966.38371	0.23839
2965.41934	0.24017
2964.45498	0.24188
2963.49061	0.24358
2962.52625	0.24531
2961.56189	0.24709
2960.59752	0.24894
2959.63316	0.25092
2958.66879	0.25309
2957.70443	0.25551
2956.74007	0.25825
2955.7757	0.26135
2954.81134	0.26487
2953.84697	0.26882
2952.88261	0.27322
2951.91825	0.27808
2950.95388	0.28338
2949.98952	0.28911
2949.02515	0.29521
2948.06079	0.30159
2947.09643	0.30811
2946.13206	0.31462
2945.1677	0.32096
2944.20333	0.32698
2943.23897	0.33257
2942.27461	0.33763
2941.31024	0.34215
2940.34588	0.34612
2939.38151	0.34951
2938.41715	0.3523
2937.45279	0.35451
2936.48842	0.35619
2935.52406	0.35743
2934.55969	0.35828
2933.59533	0.35879
2932.63097	0.35901
2931.6666	0.35899
2930.70224	0.35877
2929.73787	0.35839
2928.77351	0.3579
2927.80915	0.35731
2926.84478	0.35658
2925.88042	0.35564
2924.91605	0.35439
2923.95169	0.35272
2922.98733	0.35053
2922.02296	0.34777
2921.0586	0.34447
2920.09423	0.34069
2919.12987	0.3365
2918.16551	0.33195
2917.20114	0.3271
2916.23678	0.32205
2915.27241	0.31687
2914.30805	0.31169
2913.34369	0.30658
2912.37932	0.3016
2911.41496	0.29683
2910.45059	0.29232
2909.48623	0.28812
2908.52187	0.28424
2907.5575	0.28073
2906.59314	0.27762
2905.62877	0.27484
2904.66441	0.27229
2903.70005	0.26985
2902.73568	0.26742
2901.77132	0.26491
2900.80695	0.26225
2899.84259	0.25941
2898.87823	0.25636
2897.91386	0.25312
2896.9495	0.24967
2895.98513	0.24605
2895.02077	0.24229
2894.05641	0.23842
2893.09204	0.23452
2892.12768	0.23068
2891.16331	0.22698
2890.19895	0.22347
2889.23458	0.22019
2888.27022	0.21719
2887.30586	0.21448
2886.34149	0.21209
2885.37713	0.21003
2884.41276	0.20828
2883.4484	0.20681
2882.48404	0.20553
2881.51967	0.20436
2880.55531	0.20326
2879.59094	0.20217
2878.62658	0.20104
2877.66222	0.19987
2876.69785	0.19861
2875.73349	0.19725
2874.76912	0.19577
2873.80476	0.19419
2872.8404	0.19251
2871.87603	0.19077
2870.91167	0.18901
2869.9473	0.18731
2868.98294	0.18571
2868.01858	0.18427
2867.05421	0.18299
2866.08985	0.18192
2865.12548	0.18105
2864.16112	0.18042
2863.19676	0.18003
2862.23239	0.17987
2861.26803	0.17993
2860.30366	0.18013
2859.3393	0.18039
2858.37494	0.18061
2857.41057	0.18064
2856.44621	0.18034
2855.48184	0.17963
2854.51748	0.17845
2853.55312	0.17678
2852.58875	0.17458
2851.62439	0.17186
2850.66002	0.16867
2849.69566	0.1651
2848.7313	0.16124
2847.76693	0.15718
2846.80257	0.153
2845.8382	0.14878
2844.87384	0.1446
2843.90948	0.14058
2842.94511	0.13677
2841.98075	0.13325
2841.01638	0.13008
2840.05202	0.12728
2839.08766	0.12489
2838.12329	0.12288
2837.15893	0.1212
2836.19456	0.11981
2835.2302	0.11863
2834.26584	0.11762
2833.30147	0.11672
2832.33711	0.11592
2831.37274	0.11522
2830.40838	0.11461
2829.44402	0.11405
2828.47965	0.11355
2827.51529	0.1131
2826.55092	0.11268
2825.58656	0.11226
2824.6222	0.11179
2823.65783	0.11125
2822.69347	0.11064
2821.7291	0.10998
2820.76474	0.10929
2819.80038	0.10858
2818.83601	0.10784
2817.87165	0.10703
2816.90728	0.10616
2815.94292	0.1052
2814.97856	0.10415
2814.01419	0.10301
2813.04983	0.10179
2812.08546	0.10053
2811.1211	0.09921
2810.15674	0.09787
2809.19237	0.09655
2808.22801	0.09524
2807.26364	0.09397
2806.29928	0.09272
2805.33492	0.09151
2804.37055	0.09031
2803.40619	0.08914
2802.44182	0.08801
2801.47746	0.08693
2800.5131	0.08594
2799.54873	0.08508
2798.58437	0.08435
2797.62	0.08375
2796.65564	0.08323
2795.69128	0.08276
2794.72691	0.08231
2793.76255	0.08186
2792.79818	0.0814
2791.83382	0.08093
2790.86946	0.08044
2789.90509	0.07993
2788.94073	0.0794
2787.97636	0.07887
2787.012	0.07838
2786.04764	0.07793
2785.08327	0.07751
2784.11891	0.0771
2783.15454	0.07671
2782.19018	0.07631
2781.22582	0.07591
2780.26145	0.0755
2779.29709	0.07511
2778.33272	0.07474
2777.36836	0.07439
2776.404	0.07407
2775.43963	0.07374
2774.47527	0.07341
2773.5109	0.07307
2772.54654	0.07273
2771.58218	0.07238
2770.61781	0.07204
2769.65345	0.07171
2768.68908	0.07139
2767.72472	0.07107
2766.76036	0.07076
2765.79599	0.07047
2764.83163	0.07021
2763.86726	0.06999
2762.9029	0.0698
2761.93854	0.06963
2760.97417	0.06947
2760.00981	0.06932
2759.04544	0.06918
2758.08108	0.06907
2757.11672	0.06898
2756.15235	0.06891
2755.18799	0.06884
2754.22362	0.06878
2753.25926	0.06871
2752.2949	0.06863
2751.33053	0.06854
2750.36617	0.06844
2749.4018	0.06833
2748.43744	0.06824
2747.47307	0.06815
2746.50871	0.06806
2745.54435	0.06795
2744.57998	0.06781
2743.61562	0.06766
2742.65125	0.06749
2741.68689	0.06731
2740.72253	0.06709
2739.75816	0.06684
2738.7938	0.06657
2737.82943	0.06629
2736.86507	0.06602
2735.90071	0.06575
2734.93634	0.06549
2733.97198	0.0652
2733.00761	0.06488
2732.04325	0.06454
2731.07889	0.06418
2730.11452	0.06379
2729.15016	0.06339
2728.18579	0.06298
2727.22143	0.06257
2726.25707	0.06216
2725.2927	0.06175
2724.32834	0.06134
2723.36397	0.0609
2722.39961	0.06046
2721.43525	0.06002
2720.47088	0.05959
2719.50652	0.05918
2718.54215	0.05877
2717.57779	0.05837
2716.61343	0.05798
2715.64906	0.0576
2714.6847	0.05726
2713.72033	0.05694
2712.75597	0.05664
2711.79161	0.05634
2710.82724	0.05604
2709.86288	0.05576
2708.89851	0.05548
2707.93415	0.0552
2706.96979	0.05493
2706.00542	0.05464
2705.04106	0.05434
2704.07669	0.05404
2703.11233	0.05373
2702.14797	0.05341
2701.1836	0.05308
2700.21924	0.05275
2699.25487	0.05242
2698.29051	0.0521
2697.32615	0.0518
2696.36178	0.05149
2695.39742	0.05119
2694.43305	0.0509
2693.46869	0.0506
2692.50433	0.0503
2691.53996	0.05004
2690.5756	0.04981
2689.61123	0.04959
2688.64687	0.04939
2687.68251	0.04921
2686.71814	0.04906
2685.75378	0.04891
2684.78941	0.04874
2683.82505	0.04858
2682.86069	0.04842
2681.89632	0.04826
2680.93196	0.04808
2679.96759	0.04789
2679.00323	0.0477
2678.03887	0.04748
2677.0745	0.04725
2676.11014	0.047
2675.14577	0.04672
2674.18141	0.04644
2673.21705	0.04613
2672.25268	0.04582
2671.28832	0.04549
2670.32395	0.04514
2669.35959	0.0448
2668.39523	0.04446
2667.43086	0.04411
2666.4665	0.04375
2665.50213	0.04338
2664.53777	0.043
2663.57341	0.04261
2662.60904	0.04221
2661.64468	0.04182
2660.68031	0.04142
2659.71595	0.04101
2658.75159	0.04058
2657.78722	0.04015
2656.82286	0.03971
2655.85849	0.03925
2654.89413	0.03878
2653.92977	0.03831
2652.9654	0.03784
2652.00104	0.03738
2651.03667	0.03693
2650.07231	0.03648
2649.10795	0.03603
2648.14358	0.03561
2647.17922	0.0352
2646.21485	0.03479
2645.25049	0.03439
2644.28613	0.034
2643.32176	0.03362
2642.3574	0.03325
2641.39303	0.03288
2640.42867	0.03251
2639.46431	0.03214
2638.49994	0.03176
2637.53558	0.0314
2636.57121	0.03104
2635.60685	0.03068
2634.64249	0.03034
2633.67812	0.03001
2632.71376	0.02967
2631.74939	0.02935
2630.78503	0.02905
2629.82067	0.02878
2628.8563	0.02852
2627.89194	0.02828
2626.92757	0.02805
2625.96321	0.02785
2624.99885	0.02767
2624.03448	0.02749
2623.07012	0.0273
2622.10575	0.02711
2621.14139	0.02692
2620.17703	0.02673
2619.21266	0.02653
2618.2483	0.02634
2617.28393	0.02615
2616.31957	0.02597
2615.35521	0.02581
2614.39084	0.02567
2613.42648	0.02555
2612.46211	0.02544
2611.49775	0.02534
2610.53339	0.02526
2609.56902	0.0252
2608.60466	0.02516
2607.64029	0.02515
2606.67593	0.02515
2605.71156	0.02516
2604.7472	0.02517
2603.78284	0.02519
2602.81847	0.0252
2601.85411	0.02522
2600.88974	0.02522
2599.92538	0.02522
2598.96102	0.02522
2597.99665	0.02522
2597.03229	0.02522
2596.06792	0.02522
2595.10356	0.02522
2594.1392	0.02522
2593.17483	0.02522
2592.21047	0.02522
2591.2461	0.02522
2590.28174	0.02522
2589.31738	0.02522
2588.35301	0.02522
2587.38865	0.02522
2586.42428	0.02522
2585.45992	0.02522
2584.49556	0.02522
2583.53119	0.02522
2582.56683	0.02522
2581.60246	0.02522
2580.6381	0.02522
2579.67374	0.02522
2578.70937	0.02522
2577.74501	0.02522
2576.78064	0.02522
2575.81628	0.02522
2574.85192	0.02522
2573.88755	0.02522
2572.92319	0.02522
2571.95882	0.02522
2570.99446	0.02522
2570.0301	0.02522
2569.06573	0.02522
2568.10137	0.02522
2567.137	0.02522
2566.17264	0.02522
2565.20828	0.02522
2564.24391	0.02522
2563.27955	0.02522
2562.31518	0.02522
2561.35082	0.02522
2560.38646	0.02522
2559.42209	0.02522
2558.45773	0.02522
2557.49336	0.02522
2556.529	0.02522
2555.56464	0.02522
2554.60027	0.02522
2553.63591	0.02522
2552.67154	0.02522
2551.70718	0.02522
2550.74282	0.02522
2549.77845	0.02522
2548.81409	0.02522
2547.84972	0.02522
2546.88536	0.02522
2545.921	0.02522
2544.95663	0.02522
2543.99227	0.02522
2543.0279	0.02522
2542.06354	0.02522
2541.09918	0.02522
2540.13481	0.02522
2539.17045	0.02522
2538.20608	0.02522
2537.24172	0.02522
2536.27736	0.02522
2535.31299	0.02522
2534.34863	0.02522
2533.38426	0.02522
2532.4199	0.02522
2531.45554	0.02522
2530.49117	0.02522
2529.52681	0.02522
2528.56244	0.02522
2527.59808	0.02522
2526.63372	0.02522
2525.66935	0.02522
2524.70499	0.02522
2523.74062	0.02522
2522.77626	0.02522
2521.8119	0.02522
2520.84753	0.02522
2519.88317	0.02522
2518.9188	0.02522
2517.95444	0.02522
2516.99008	0.02522
2516.02571	0.02522
2515.06135	0.02522
2514.09698	0.02522
2513.13262	0.02522
2512.16826	0.02522
2511.20389	0.02522
2510.23953	0.02522
2509.27516	0.02522
2508.3108	0.02522
2507.34644	0.02522
2506.38207	0.02522
2505.41771	0.02522
2504.45334	0.02522
2503.48898	0.02522
2502.52462	0.02522
2501.56025	0.02522
2500.59589	0.02522
2499.63152	0.02522
2498.66716	0.02522
2497.7028	0.02522
2496.73843	0.02522
2495.77407	0.02522
2494.8097	0.02522
2493.84534	0.02522
2492.88098	0.02522
2491.91661	0.02522
2490.95225	0.02522
2489.98788	0.02522
2489.02352	0.02522
2488.05916	0.02522
2487.09479	0.02522
2486.13043	0.02522
2485.16606	0.02522
2484.2017	0.02522
2483.23734	0.02522
2482.27297	0.02522
2481.30861	0.02522
2480.34424	0.02522
2479.37988	0.02522
2478.41552	0.02522
2477.45115	0.02522
2476.48679	0.02522
2475.52242	0.02522
2474.55806	0.02522
2473.5937	0.02522
2472.62933	0.02522
2471.66497	0.02522
2470.7006	0.02522
2469.73624	0.02522
2468.77187	0.02522
2467.80751	0.02522
2466.84315	0.02522
2465.87878	0.02522
2464.91442	0.02522
2463.95005	0.02522
2462.98569	0.02522
2462.02133	0.02522
2461.05696	0.02522
2460.0926	0.02522
2459.12823	0.02522
2458.16387	0.02522
2457.19951	0.02522
2456.23514	0.02522
2455.27078	0.02522
2454.30641	0.02522
2453.34205	0.02522
2452.37769	0.02522
2451.41332	0.02522
2450.44896	0.02522
2449.48459	0.02522
2448.52023	0.02522
2447.55587	0.02522
2446.5915	0.02522
2445.62714	0.02522
2444.66277	0.02522
2443.69841	0.02522
2442.73405	0.02522
2441.76968	0.02522
2440.80532	0.02522
2439.84095	0.02522
2438.87659	0.02522
2437.91223	0.02522
2436.94786	0.02522
2435.9835	0.02522
2435.01913	0.02522
2434.05477	0.02522
2433.09041	0.02522
2432.12604	0.02522
2431.16168	0.02522
2430.19731	0.02522
2429.23295	0.02522
2428.26859	0.02522
2427.30422	0.02522
2426.33986	0.02522
2425.37549	0.02522
2424.41113	0.02522
2423.44677	0.02522
2422.4824	0.02522
2421.51804	0.02522
2420.55367	0.02522
2419.58931	0.02522
2418.62495	0.02522
2417.66058	0.02522
2416.69622	0.02522
2415.73185	0.02522
2414.76749	0.02522
2413.80313	0.02522
2412.83876	0.02522
2411.8744	0.02522
2410.91003	0.02522
2409.94567	0.02522
2408.98131	0.02522
2408.01694	0.02522
2407.05258	0.02522
2406.08821	0.02522
2405.12385	0.02522
2404.15949	0.02522
2403.19512	0.02522
2402.23076	0.02522
2401.26639	0.02522
2400.30203	0.02522
2399.33767	0.02522
2398.3733	0.02522
2397.40894	0.02522
2396.44457	0.02522
2395.48021	0.02522
2394.51585	0.02522
2393.55148	0.02522
2392.58712	0.02522
2391.62275	0.02522
2390.65839	0.02522
2389.69403	0.02522
2388.72966	0.02522
2387.7653	0.02522
2386.80093	0.02522
2385.83657	0.02522
2384.87221	0.02522
2383.90784	0.02522
2382.94348	0.02522
2381.97911	0.02522
2381.01475	0.02522
2380.05039	0.02522
2379.08602	0.02522
2378.12166	0.02522
2377.15729	0.02522
2376.19293	0.02522
2375.22857	0.02522
2374.2642	0.02522
2373.29984	0.02522
2372.33547	0.02522
2371.37111	0.02522
2370.40675	0.02522
2369.44238	0.02522
2368.47802	0.02522
2367.51365	0.02522
2366.54929	0.02522
2365.58493	0.02522
2364.62056	0.02522
2363.6562	0.02522
2362.69183	0.02522
2361.72747	0.02522
2360.76311	0.02522
2359.79874	0.02522
2358.83438	0.02522
2357.87001	0.02522
2356.90565	0.02522
2355.94129	0.02522
2354.97692	0.02522
2354.01256	0.02522
2353.04819	0.02522
2352.08383	0.02522
2351.11947	0.02522
2350.1551	0.02522
2349.19074	0.02522
2348.22637	0.02522
2347.26201	0.02522
2346.29765	0.02522
2345.33328	0.02522
2344.36892	0.02522
2343.40455	0.02522
2342.44019	0.02522
2341.47583	0.02522
2340.51146	0.02522
2339.5471	0.02522
2338.58273	0.02522
2337.61837	0.02522
2336.65401	0.02522
2335.68964	0.02522
2334.72528	0.02522
2333.76091	0.02522
2332.79655	0.02522
2331.83219	0.02522
2330.86782	0.02522
2329.90346	0.02522
2328.93909	0.02522
2327.97473	0.02522
2327.01036	0.02522
2326.046	0.02522
2325.08164	0.02522
2324.11727	0.02522
2323.15291	0.02522
2322.18854	0.02522
2321.22418	0.02522
2320.25982	0.02522
2319.29545	0.02522
2318.33109	0.02522
2317.36672	0.02522
2316.40236	0.02522
2315.438	0.02522
2314.47363	0.02522
2313.50927	0.02522
2312.5449	0.02522
2311.58054	0.02522
2310.61618	0.02522
2309.65181	0.02522
2308.68745	0.02522
2307.72308	0.02522
2306.75872	0.02522
2305.79436	0.02522
2304.82999	0.02522
2303.86563	0.02522
2302.90126	0.02522
2301.9369	0.02522
2300.97254	0.02522
2300.00817	0.02522
2299.04381	0.02522
2298.07944	0.02522
2297.11508	0.02522
2296.15072	0.02522
2295.18635	0.02522
2294.22199	0.02522
2293.25762	0.02522
2292.29326	0.02522
2291.3289	0.02522
2290.36453	0.02522
2289.40017	0.02522
2288.4358	0.02522
2287.47144	0.02522
2286.50708	0.02522
2285.54271	0.02522
2284.57835	0.02522
2283.61398	0.02522
2282.64962	0.02522
2281.68526	0.02522
2280.72089	0.02522
2279.75653	0.02522
2278.79216	0.02522
2277.8278	0.02522
2276.86344	0.02522
2275.89907	0.02522
2274.93471	0.02522
2273.97034	0.02522
2273.00598	0.02522
2272.04162	0.02522
2271.07725	0.02522
2270.11289	0.02522
2269.14852	0.02522
2268.18416	0.02522
2267.2198	0.02522
2266.25543	0.02522
2265.29107	0.02522
2264.3267	0.02522
2263.36234	0.02522
2262.39798	0.02522
2261.43361	0.02522
2260.46925	0.02522
2259.50488	0.02522
2258.54052	0.02522
2257.57616	0.02522
2256.61179	0.02522
2255.64743	0.02522
2254.68306	0.02522
2253.7187	0.02522
2252.75434	0.02522
2251.78997	0.02522
2250.82561	0.02522
2249.86124	0.02522
2248.89688	0.02522
2247.93252	0.02522
2246.96815	0.02522
2246.00379	0.02522
2245.03942	0.02522
2244.07506	0.02522
2243.1107	0.02522
2242.14633	0.02522
2241.18197	0.02522
2240.2176	0.02522
2239.25324	0.02522
2238.28888	0.02522
2237.32451	0.02522
2236.36015	0.02522
2235.39578	0.02522
2234.43142	0.02522
2233.46706	0.02522
2232.50269	0.02522
2231.53833	0.02522
2230.57396	0.02522
2229.6096	0.02522
2228.64524	0.02522
2227.68087	0.02522
2226.71651	0.02522
2225.75214	0.02522
2224.78778	0.02522
2223.82342	0.02522
2222.85905	0.02522
2221.89469	0.02522
2220.93032	0.02522
2219.96596	0.02522
2219.0016	0.02522
2218.03723	0.02522
2217.07287	0.02522
2216.1085	0.02522
2215.14414	0.02522
2214.17978	0.02522
2213.21541	0.02522
2212.25105	0.02522
2211.28668	0.02522
2210.32232	0.02522
2209.35796	0.02522
2208.39359	0.02522
2207.42923	0.02522
2206.46486	0.02522
2205.5005	0.02522
2204.53614	0.02522
2203.57177	0.02522
2202.60741	0.02522
2201.64304	0.02522
2200.67868	0.02522
2199.71432	0.02522
2198.74995	0.02522
2197.78559	0.02522
2196.82122	0.02522
2195.85686	0.02522
2194.8925	0.02522
2193.92813	0.02522
2192.96377	0.02522
2191.9994	0.02522
2191.03504	0.02522
2190.07068	0.02522
2189.10631	0.02522
2188.14195	0.02522
2187.17758	0.02522
2186.21322	0.02522
2185.24885	0.02522
2184.28449	0.02522
2183.32013	0.02522
2182.35576	0.02522
2181.3914	0.02522
2180.42703	0.02522
2179.46267	0.02522
2178.49831	0.02522
2177.53394	0.02522
2176.56958	0.02522
2175.60521	0.02522
2174.64085	0.02522
2173.67649	0.02522
2172.71212	0.02522
2171.74776	0.02522
2170.78339	0.02522
2169.81903	0.02522
2168.85467	0.02522
2167.8903	0.02522
2166.92594	0.02522
2165.96157	0.02522
2164.99721	0.02522
2164.03285	0.02522
2163.06848	0.02522
2162.10412	0.02522
2161.13975	0.02522
2160.17539	0.02522
2159.21103	0.02522
2158.24666	0.02522
2157.2823	0.02522
2156.31793	0.02522
2155.35357	0.02522
2154.38921	0.02522
2153.42484	0.02522
2152.46048	0.02522
2151.49611	0.02522
2150.53175	0.02522
2149.56739	0.02522
2148.60302	0.02522
2147.63866	0.02522
2146.67429	0.02522
2145.70993	0.02522
2144.74557	0.02522
2143.7812	0.02522
2142.81684	0.02522
2141.85247	0.02522
2140.88811	0.02522
2139.92375	0.02522
2138.95938	0.02522
2137.99502	0.02522
2137.03065	0.02522
2136.06629	0.02522
2135.10193	0.02522
2134.13756	0.02522
2133.1732	0.02522
2132.20883	0.02522
2131.24447	0.02522
2130.28011	0.02522
2129.31574	0.02522
2128.35138	0.02522
2127.38701	0.02522
2126.42265	0.02522
2125.45829	0.02522
2124.49392	0.02522
2123.52956	0.02522
2122.56519	0.02522
2121.60083	0.02522
2120.63647	0.02522
2119.6721	0.02522
2118.70774	0.02522
2117.74337	0.02522
2116.77901	0.02522
2115.81465	0.02522
2114.85028	0.02525
2113.88592	0.02526
2112.92155	0.02527
2111.95719	0.02526
2110.99283	0.02523
2110.02846	0.02518
2109.0641	0.02514
2108.09973	0.0251
2107.13537	0.02507
2106.17101	0.02503
2105.20664	0.025
2104.24228	0.02498
2103.27791	0.02498
2102.31355	0.02501
2101.34919	0.02504
2100.38482	0.02504
2099.42046	0.02506
2098.45609	0.02509
2097.49173	0.02513
2096.52737	0.02518
2095.563	0.02524
2094.59864	0.02533
2093.63427	0.02544
2092.66991	0.02554
2091.70555	0.02565
2090.74118	0.02572
2089.77682	0.02579
2088.81245	0.02586
2087.84809	0.0259
2086.88373	0.02594
2085.91936	0.026
2084.955	0.02606
2083.99063	0.02611
2083.02627	0.02615
2082.06191	0.0262
2081.09754	0.02628
2080.13318	0.02637
2079.16881	0.02646
2078.20445	0.02654
2077.24009	0.02663
2076.27572	0.02671
2075.31136	0.02674
2074.34699	0.02674
2073.38263	0.02675
2072.41827	0.02677
2071.4539	0.0268
2070.48954	0.02683
2069.52517	0.02686
2068.56081	0.02689
2067.59645	0.02693
2066.63208	0.02698
2065.66772	0.02703
2064.70335	0.02707
2063.73899	0.02711
2062.77463	0.02715
2061.81026	0.02719
2060.8459	0.02725
2059.88153	0.0273
2058.91717	0.02736
2057.95281	0.02743
2056.98844	0.0275
2056.02408	0.02758
2055.05971	0.02764
2054.09535	0.02768
2053.13099	0.02765
2052.16662	0.02755
2051.20226	0.02744
2050.23789	0.02734
2049.27353	0.02723
2048.30917	0.02713
2047.3448	0.02704
2046.38044	0.02696
2045.41607	0.02688
2044.45171	0.02679
2043.48734	0.02672
2042.52298	0.02666
2041.55862	0.02662
2040.59425	0.02657
2039.62989	0.02654
2038.66552	0.02653
2037.70116	0.02652
2036.7368	0.02652
2035.77243	0.02652
2034.80807	0.02653
2033.8437	0.02654
2032.87934	0.02654
2031.91498	0.02655
2030.95061	0.02657
2029.98625	0.02657
2029.02188	0.0265
2028.05752	0.02636
2027.09316	0.02615
2026.12879	0.0259
2025.16443	0.02567
2024.20006	0.02547
2023.2357	0.0253
2022.27134	0.02514
2021.30697	0.02501
2020.34261	0.0249
2019.37824	0.02483
2018.41388	0.02478
2017.44952	0.02475
2016.48515	0.02473
2015.52079	0.02476
2014.55642	0.02483
2013.59206	0.02496
2012.6277	0.02513
2011.66333	0.02532
2010.69897	0.02554
2009.7346	0.02576
2008.77024	0.026
2007.80588	0.02623
2006.84151	0.0264
2005.87715	0.02654
2004.91278	0.02666
2003.94842	0.02678
2002.98406	0.02677
2002.01969	0.02663
2001.05533	0.0265
2000.09096	0.02638
1999.1266	0.0262
1998.16224	0.02596
1997.19787	0.02572
1996.23351	0.0255
1995.26914	0.0253
1994.30478	0.02513
1993.34042	0.025
1992.37605	0.02491
1991.41169	0.02489
1990.44732	0.02492
1989.48296	0.02498
1988.5186	0.02508
1987.55423	0.02521
1986.58987	0.02538
1985.6255	0.0256
1984.66114	0.02587
1983.69678	0.02618
1982.73241	0.02652
1981.76805	0.02685
1980.80368	0.02708
1979.83932	0.02723
1978.87496	0.02737
1977.91059	0.02745
1976.94623	0.02735
1975.98186	0.02713
1975.0175	0.02691
1974.05314	0.02673
1973.08877	0.02657
1972.12441	0.02639
1971.16004	0.02621
1970.19568	0.02601
1969.23132	0.02582
1968.26695	0.02565
1967.30259	0.0255
1966.33822	0.02535
1965.37386	0.02518
1964.4095	0.02501
1963.44513	0.02487
1962.48077	0.02477
1961.5164	0.0247
1960.55204	0.02467
1959.58768	0.0247
1958.62331	0.0248
1957.65895	0.02494
1956.69458	0.025
1955.73022	0.02494
1954.76586	0.02483
1953.80149	0.02461
1952.83713	0.02421
1951.87276	0.02375
1950.9084	0.02334
1949.94404	0.02296
1948.97967	0.02262
1948.01531	0.02233
1947.05094	0.02209
1946.08658	0.02191
1945.12222	0.02178
1944.15785	0.02168
1943.19349	0.02158
1942.22912	0.02151
1941.26476	0.02149
1940.3004	0.02154
1939.33603	0.02166
1938.37167	0.02186
1937.4073	0.02212
1936.44294	0.02248
1935.47858	0.02299
1934.51421	0.02346
1933.54985	0.02366
1932.58548	0.02365
1931.62112	0.02356
1930.65676	0.02336
1929.69239	0.02309
1928.72803	0.02274
1927.76366	0.02237
1926.7993	0.02205
1925.83494	0.02179
1924.87057	0.0216
1923.90621	0.0215
1922.94184	0.02152
1921.97748	0.02164
1921.01312	0.02176
1920.04875	0.02184
1919.08439	0.0219
1918.12002	0.02196
1917.15566	0.02209
1916.1913	0.02233
1915.22693	0.02267
1914.26257	0.02309
1913.2982	0.02358
1912.33384	0.02405
1911.36948	0.02435
1910.40511	0.02451
1909.44075	0.02479
1908.47638	0.02529
1907.51202	0.02586
1906.54766	0.02623
1905.58329	0.02632
1904.61893	0.02643
1903.65456	0.0267
1902.6902	0.02712
1901.72583	0.02767
1900.76147	0.02813
1899.79711	0.02839
1898.83274	0.02851
1897.86838	0.02856
1896.90401	0.02863
1895.93965	0.02872
1894.97529	0.02884
1894.01092	0.02903
1893.04656	0.02931
1892.08219	0.02967
1891.11783	0.0301
1890.15347	0.03059
1889.1891	0.03112
1888.22474	0.03174
1887.26037	0.03243
1886.29601	0.03319
1885.33165	0.03398
1884.36728	0.03475
1883.40292	0.03548
1882.43855	0.03629
1881.47419	0.0373
1880.50983	0.03829
1879.54546	0.03892
1878.5811	0.03906
1877.61673	0.03875
1876.65237	0.03828
1875.68801	0.03794
1874.72364	0.03777
1873.75928	0.0377
1872.79491	0.0377
1871.83055	0.03777
1870.86619	0.03795
1869.90182	0.03824
1868.93746	0.03862
1867.97309	0.03909
1867.00873	0.03967
1866.04437	0.04039
1865.08	0.04124
1864.11564	0.04224
1863.15127	0.04338
1862.18691	0.04467
1861.22255	0.04614
1860.25818	0.04781
1859.29382	0.04947
1858.32945	0.05089
1857.36509	0.05201
1856.40073	0.05286
1855.43636	0.05333
1854.472	0.05349
1853.50763	0.05365
1852.54327	0.05393
1851.57891	0.05435
1850.61454	0.05493
1849.65018	0.0557
1848.68581	0.05657
1847.72145	0.05745
1846.75709	0.05837
1845.79272	0.05945
1844.82836	0.06075
1843.86399	0.06229
1842.89963	0.06416
1841.93527	0.06636
1840.9709	0.06842
1840.00654	0.07017
1839.04217	0.07199
1838.07781	0.07412
1837.11345	0.07643
1836.14908	0.0785
1835.18472	0.08045
1834.22035	0.0825
1833.25599	0.08444
1832.29163	0.08611
1831.32726	0.08792
1830.3629	0.09019
1829.39853	0.09279
1828.43417	0.09563
1827.46981	0.09869
1826.50544	0.10199
1825.54108	0.10553
1824.57671	0.10938
1823.61235	0.11366
1822.64799	0.11825
1821.68362	0.12292
1820.71926	0.12782
1819.75489	0.13303
1818.79053	0.13828
1817.82617	0.14334
1816.8618	0.14871
1815.89744	0.15482
1814.93307	0.16157
1813.96871	0.16856
1813.00435	0.17561
1812.03998	0.18306
1811.07562	0.19084
1810.11125	0.19884
1809.14689	0.20738
1808.18253	0.21654
1807.21816	0.22602
1806.2538	0.2358
1805.28943	0.24608
1804.32507	0.25672
1803.36071	0.26728
1802.39634	0.27778
1801.43198	0.28841
1800.46761	0.29923
1799.50325	0.31016
1798.53889	0.32136
1797.57452	0.33314
1796.61016	0.34533
1795.64579	0.35776
1794.68143	0.37085
1793.71707	0.38497
1792.7527	0.40013
1791.78834	0.4161
1790.82397	0.43272
1789.85961	0.45002
1788.89525	0.46797
1787.93088	0.48628
1786.96652	0.50445
1786.00215	0.52164
1785.03779	0.53703
1784.07343	0.55019
1783.10906	0.56069
1782.1447	0.56827
1781.18033	0.57283
1780.21597	0.57472
1779.25161	0.5743
1778.28724	0.5712
1777.32288	0.5653
1776.35851	0.55674
1775.39415	0.54576
1774.42979	0.53278
1773.46542	0.51803
1772.50106	0.50184
1771.53669	0.48517
1770.57233	0.46875
1769.60797	0.45297
1768.6436	0.43804
1767.67924	0.42417
1766.71487	0.41183
1765.75051	0.40129
1764.78615	0.39259
1763.82178	0.38551
1762.85742	0.37971
1761.89305	0.37565
1760.92869	0.37422
1759.96432	0.37559
1758.99996	0.37989
1758.0356	0.38692
1757.07123	0.39585
1756.10687	0.40552
1755.1425	0.41497
1754.17814	0.42378
1753.21378	0.43167
1752.24941	0.43853
1751.28505	0.44393
1750.32068	0.44703
1749.35632	0.44776
1748.39196	0.4467
1747.42759	0.44416
1746.46323	0.44019
1745.49886	0.43428
1744.5345	0.42605
1743.57014	0.41689
1742.60577	0.40765
1741.64141	0.39852
1740.67704	0.38958
1739.71268	0.38136
1738.74832	0.37484
1737.78395	0.37058
1736.81959	0.36829
1735.85522	0.36768
1734.89086	0.36845
1733.9265	0.37031
1732.96213	0.37318
1731.99777	0.37705
1731.0334	0.38205
1730.06904	0.38819
1729.10468	0.39435
1728.14031	0.40059
1727.17595	0.40768
1726.21158	0.41586
1725.24722	0.4251
1724.28286	0.43553
1723.31849	0.44702
1722.35413	0.45911
1721.38976	0.47188
1720.4254	0.48591
1719.46104	0.50057
1718.49667	0.51525
1717.53231	0.52931
1716.56794	0.54195
1715.60358	0.55233
1714.63922	0.55972
1713.67485	0.56385
1712.71049	0.56488
1711.74612	0.56307
1710.78176	0.55706
1709.8174	0.547
1708.85303	0.5336
1707.88867	0.51711
1706.9243	0.49701
1705.95994	0.47377
1704.99558	0.44973
1704.03121	0.42587
1703.06685	0.40239
1702.10248	0.38029
1701.13812	0.36043
1700.17376	0.34307
1699.20939	0.32843
1698.24503	0.3168
1697.28066	0.30848
1696.3163	0.30354
1695.35194	0.30024
1694.38757	0.29751
1693.42321	0.29573
1692.45884	0.29523
1691.49448	0.29572
1690.53012	0.29701
1689.56575	0.29925
1688.60139	0.30208
1687.63702	0.30437
1686.67266	0.30663
1685.7083	0.30867
1684.74393	0.31043
1683.77957	0.31183
1682.8152	0.3134
1681.85084	0.31529
1680.88648	0.31705
1679.92211	0.31818
1678.95775	0.31901
1677.99338	0.31987
1677.02902	0.32094
1676.06466	0.32261
1675.10029	0.3251
1674.13593	0.32796
1673.17156	0.33078
1672.2072	0.33333
1671.24284	0.337
1670.27847	0.34268
1669.31411	0.34976
1668.34974	0.3578
1667.38538	0.36679
1666.42102	0.37696
1665.45665	0.38834
1664.49229	0.40016
1663.52792	0.41022
1662.56356	0.41869
1661.5992	0.42611
1660.63483	0.43225
1659.67047	0.43679
1658.7061	0.43907
1657.74174	0.4378
1656.77738	0.43273
1655.81301	0.42495
1654.84865	0.41505
1653.88428	0.40328
1652.91992	0.38982
1651.95556	0.37481
1650.99119	0.35855
1650.02683	0.34205
1649.06246	0.32606
1648.0981	0.31063
1647.13374	0.29552
1646.16937	0.28056
1645.20501	0.26662
1644.24064	0.2543
1643.27628	0.2438
1642.31192	0.23498
1641.34755	0.22713
1640.38319	0.21979
1639.41882	0.2141
1638.45446	0.20991
1637.4901	0.20716
1636.52573	0.20569
1635.56137	0.20484
1634.597	0.20382
1633.63264	0.20265
1632.66828	0.20189
1631.70391	0.20162
1630.73955	0.20165
1629.77518	0.20183
1628.81082	0.20193
1627.84646	0.20117
1626.88209	0.19976
1625.91773	0.19816
1624.95336	0.19629
1623.989	0.19409
1623.02464	0.19202
1622.06027	0.19095
1621.09591	0.19075
1620.13154	0.19098
1619.16718	0.19138
1618.20281	0.19175
1617.23845	0.19186
1616.27409	0.19159
1615.30972	0.1911
1614.34536	0.19055
1613.38099	0.18964
1612.41663	0.18798
1611.45227	0.18513
1610.4879	0.18108
1609.52354	0.17631
1608.55917	0.1709
1607.59481	0.16487
1606.63045	0.15822
1605.66608	0.15076
1604.70172	0.14255
1603.73735	0.13472
1602.77299	0.12778
1601.80863	0.12163
1600.84426	0.11622
1599.8799	0.11153
1598.91553	0.10751
1597.95117	0.10403
1596.98681	0.10088
1596.02244	0.09795
1595.05808	0.09507
1594.09371	0.09215
1593.12935	0.08921
1592.16499	0.08616
1591.20062	0.08282
1590.23626	0.07925
1589.27189	0.07563
1588.30753	0.07198
1587.34317	0.0677
1586.3788	0.06273
1585.41444	0.05753
1584.45007	0.05237
1583.48571	0.04745
1582.52135	0.043
1581.55698	0.03908
1580.59262	0.03508
1579.62825	0.03106
1578.66389	0.0276
1577.69953	0.02496
1576.73516	0.02308
1575.7708	0.02175
1574.80643	0.02118
1573.84207	0.02174
1572.87771	0.02363
1571.91334	0.02698
1570.94898	0.03184
1569.98461	0.03575
1569.02025	0.03856
1568.05589	0.04159
1567.09152	0.04515
1566.12716	0.0489
1565.16279	0.05214
1564.19843	0.05478
1563.23407	0.05769
1562.2697	0.06123
1561.30534	0.06473
1560.34097	0.06773
1559.37661	0.07049
1558.41225	0.07303
1557.44788	0.07523
1556.48352	0.07757
1555.51915	0.08016
1554.55479	0.08292
1553.59043	0.08565
1552.62606	0.0885
1551.6617	0.09189
1550.69733	0.09459
1549.73297	0.09705
1548.76861	0.10008
1547.80424	0.10327
1546.83988	0.10567
1545.87551	0.10939
1544.91115	0.11488
1543.94679	0.12108
1542.98242	0.12774
1542.01806	0.13497
1541.05369	0.14334
1540.08933	0.15278
1539.12497	0.16258
1538.1606	0.17207
1537.19624	0.18142
1536.23187	0.1908
1535.26751	0.19985
1534.30315	0.20832
1533.33878	0.21581
1532.37442	0.2213
1531.41005	0.22435
1530.44569	0.22525
1529.48133	0.22444
1528.51696	0.22181
1527.5526	0.21638
1526.58823	0.20994
1525.62387	0.20335
1524.65951	0.1964
1523.69514	0.18904
1522.73078	0.18107
1521.76641	0.17253
1520.80205	0.16411
1519.83769	0.15638
1518.87332	0.14937
1517.90896	0.14193
1516.94459	0.13344
1515.98023	0.12491
1515.01587	0.11698
1514.0515	0.10999
1513.08714	0.10383
1512.12277	0.09857
1511.15841	0.09429
1510.19405	0.09044
1509.22968	0.08623
1508.26532	0.08222
1507.30095	0.07888
1506.33659	0.07612
1505.37223	0.07365
1504.40786	0.07125
1503.4435	0.06977
1502.47913	0.0696
1501.51477	0.0701
1500.55041	0.07056
1499.58604	0.07115
1498.62168	0.07196
1497.65731	0.07296
1496.69295	0.07424
1495.72859	0.07573
1494.76422	0.07732
1493.79986	0.0803
1492.83549	0.08577
1491.87113	0.09296
1490.90677	0.10119
1489.9424	0.11004
1488.97804	0.11924
1488.01367	0.12838
1487.04931	0.13678
1486.08495	0.14429
1485.12058	0.15101
1484.15622	0.15632
1483.19185	0.15991
1482.22749	0.1625
1481.26312	0.16451
1480.29876	0.16595
1479.3344	0.16666
1478.37003	0.16645
1477.40567	0.16586
1476.4413	0.16541
1475.47694	0.16499
1474.51258	0.16523
1473.54821	0.16676
1472.58385	0.16976
1471.61948	0.17425
1470.65512	0.18001
1469.69076	0.18635
1468.72639	0.19211
1467.76203	0.1967
1466.79766	0.20043
1465.8333	0.2035
1464.86894	0.20598
1463.90457	0.20789
1462.94021	0.2094
1461.97584	0.21048
1461.01148	0.21099
1460.04712	0.21141
1459.08275	0.2125
1458.11839	0.21412
1457.15402	0.21616
1456.18966	0.21865
1455.2253	0.22154
1454.26093	0.22465
1453.29657	0.22773
1452.3322	0.23079
1451.36784	0.23418
1450.40348	0.23784
1449.43911	0.24163
1448.47475	0.24517
1447.51038	0.24751
1446.54602	0.24822
1445.58166	0.24735
1444.61729	0.24551
1443.65293	0.24358
1442.68856	0.24184
1441.7242	0.24031
1440.75984	0.23877
1439.79547	0.23734
1438.83111	0.2364
1437.86674	0.23618
1436.90238	0.23665
1435.93802	0.23754
1434.97365	0.23864
1434.00929	0.24042
1433.04492	0.24347
1432.08056	0.2481
1431.1162	0.25424
1430.15183	0.26146
1429.18747	0.26963
1428.2231	0.2787
1427.25874	0.28838
1426.29438	0.29828
1425.33001	0.30787
1424.36565	0.31682
1423.40128	0.32541
1422.43692	0.33355
1421.47256	0.34094
1420.50819	0.3475
1419.54383	0.35327
1418.57946	0.35822
1417.6151	0.36242
1416.65074	0.36606
1415.68637	0.36895
1414.72201	0.3711
1413.75764	0.3726
1412.79328	0.3734
1411.82892	0.37368
1410.86455	0.374
1409.90019	0.37444
1408.93582	0.37495
1407.97146	0.37553
1407.0071	0.37604
1406.04273	0.37639
1405.07837	0.37642
1404.114	0.37631
1403.14964	0.37622
1402.18528	0.37619
1401.22091	0.37634
1400.25655	0.37694
1399.29218	0.37823
1398.32782	0.38013
1397.36346	0.3825
1396.39909	0.38544
1395.43473	0.38898
1394.47036	0.39281
1393.506	0.39639
1392.54164	0.39928
1391.57727	0.40143
1390.61291	0.40275
1389.64854	0.40302
1388.68418	0.40212
1387.71982	0.40008
1386.75545	0.39715
1385.79109	0.39369
1384.82672	0.38984
1383.86236	0.38564
1382.898	0.38118
1381.93363	0.37692
1380.96927	0.37321
1380.0049	0.36978
1379.04054	0.36627
1378.07618	0.36268
1377.11181	0.3591
1376.14745	0.3555
1375.18308	0.35168
1374.21872	0.34743
1373.25436	0.34251
1372.28999	0.33679
1371.32563	0.33023
1370.36126	0.32284
1369.3969	0.31464
1368.43254	0.30577
1367.46817	0.29651
1366.50381	0.28718
1365.53944	0.27811
1364.57508	0.26965
1363.61072	0.26208
1362.64635	0.25572
1361.68199	0.25101
1360.71762	0.24826
1359.75326	0.24732
1358.7889	0.24791
1357.82453	0.24973
1356.86017	0.25251
1355.8958	0.25612
1354.93144	0.26063
1353.96708	0.26622
1353.00271	0.27305
1352.03835	0.28097
1351.07398	0.28945
1350.10962	0.29848
1349.14526	0.30869
1348.18089	0.32047
1347.21653	0.33381
1346.25216	0.34854
1345.2878	0.36437
1344.32344	0.38098
1343.35907	0.39797
1342.39471	0.41492
1341.43034	0.43139
1340.46598	0.44691
1339.50161	0.46104
1338.53725	0.47341
1337.57289	0.48363
1336.60852	0.49136
1335.64416	0.49632
1334.67979	0.49834
1333.71543	0.49738
1332.75107	0.49353
1331.7867	0.48692
1330.82234	0.47773
1329.85797	0.46619
1328.89361	0.45257
1327.92925	0.43737
1326.96488	0.42136
1326.00052	0.40527
1325.03615	0.38947
1324.07179	0.37423
1323.10743	0.35985
1322.14306	0.3466
1321.1787	0.33472
1320.21433	0.32451
1319.24997	0.31621
1318.28561	0.31
1317.32124	0.3059
1316.35688	0.30392
1315.39251	0.30409
1314.42815	0.30638
1313.46379	0.31059
1312.49942	0.31635
1311.53506	0.32323
1310.57069	0.33086
1309.60633	0.33887
1308.64197	0.34675
1307.6776	0.35387
1306.71324	0.35978
1305.74887	0.3643
1304.78451	0.36729
1303.82015	0.36854
1302.85578	0.36781
1301.89142	0.36496
1300.92705	0.36009
1299.96269	0.35346
1298.99833	0.3453
1298.03396	0.33574
1297.0696	0.32505
1296.10523	0.31368
1295.14087	0.30203
1294.17651	0.29041
1293.21214	0.27899
1292.24778	0.26804
1291.28341	0.25787
1290.31905	0.2487
1289.35469	0.24061
1288.39032	0.23359
1287.42596	0.22769
1286.46159	0.22309
1285.49723	0.2199
1284.53287	0.21814
1283.5685	0.2178
1282.60414	0.21897
1281.63977	0.22178
1280.67541	0.22627
1279.71105	0.23225
1278.74668	0.23948
1277.78232	0.24779
1276.81795	0.25704
1275.85359	0.26703
1274.88923	0.2775
1273.92486	0.2882
1272.9605	0.29902
1271.99613	0.30983
1271.03177	0.32038
1270.06741	0.3303
1269.10304	0.33926
1268.13868	0.34704
1267.17431	0.35358
1266.20995	0.3588
1265.24559	0.36263
1264.28122	0.36512
1263.31686	0.36653
1262.35249	0.36722
1261.38813	0.36742
1260.42377	0.36722
1259.4594	0.36671
1258.49504	0.36606
1257.53067	0.36547
1256.56631	0.36503
1255.60195	0.36473
1254.63758	0.36457
1253.67322	0.36472
1252.70885	0.3653
1251.74449	0.36627
1250.78013	0.36742
1249.81576	0.36857
1248.8514	0.36965
1247.88703	0.37064
1246.92267	0.37146
1245.95831	0.37192
1244.99394	0.37193
1244.02958	0.37161
1243.06521	0.37116
1242.10085	0.37072
1241.13649	0.37039
1240.17212	0.37026
1239.20776	0.37046
1238.24339	0.37107
1237.27903	0.37205
1236.31467	0.37338
1235.3503	0.37521
1234.38594	0.37796
1233.42157	0.382
1232.45721	0.38744
1231.49285	0.39412
1230.52848	0.40175
1229.56412	0.40994
1228.59975	0.41828
1227.63539	0.4263
1226.67103	0.43359
1225.70666	0.43998
1224.7423	0.44543
1223.77793	0.4499
1222.81357	0.45324
1221.84921	0.45529
1220.88484	0.45607
1219.92048	0.45574
1218.95611	0.45444
1217.99175	0.45217
1217.02739	0.44891
1216.06302	0.44479
1215.09866	0.44011
1214.13429	0.43522
1213.16993	0.43039
1212.20557	0.42581
1211.2412	0.42165
1210.27684	0.41798
1209.31247	0.41463
1208.34811	0.41124
1207.38375	0.4075
1206.41938	0.40333
1205.45502	0.39886
1204.49065	0.39425
1203.52629	0.38957
1202.56193	0.38489
1201.59756	0.38038
1200.6332	0.37627
1199.66883	0.37261
1198.70447	0.36933
1197.7401	0.36631
1196.77574	0.36359
1195.81138	0.36129
1194.84701	0.3594
1193.88265	0.35784
1192.91828	0.3565
1191.95392	0.35542
1190.98956	0.35466
1190.02519	0.35414
1189.06083	0.35368
1188.09646	0.35322
1187.1321	0.35295
1186.16774	0.35323
1185.20337	0.35438
1184.23901	0.35663
1183.27464	0.36019
1182.31028	0.36522
1181.34592	0.37175
1180.38155	0.37956
1179.41719	0.38825
1178.45282	0.3975
1177.48846	0.4071
1176.5241	0.41689
1175.55973	0.42669
1174.59537	0.43631
1173.631	0.44572
1172.66664	0.45509
1171.70228	0.46462
1170.73791	0.47438
1169.77355	0.48438
1168.80918	0.49478
1167.84482	0.50581
1166.88046	0.51762
1165.91609	0.53016
1164.95173	0.54327
1163.98736	0.55674
1163.023	0.57037
1162.05864	0.58377
1161.09427	0.59635
1160.12991	0.60736
1159.16554	0.61615
1158.20118	0.62219
1157.23682	0.62499
1156.27245	0.62413
1155.30809	0.61932
1154.34372	0.61057
1153.37936	0.59814
1152.415	0.58243
1151.45063	0.56386
1150.48627	0.54294
1149.5219	0.52043
1148.55754	0.49724
1147.59318	0.47418
1146.62881	0.45193
1145.66445	0.43107
1144.70008	0.41217
1143.73572	0.39566
1142.77136	0.38178
1141.80699	0.37053
1140.84263	0.36182
1139.87826	0.35559
1138.9139	0.35184
1137.94954	0.35046
1136.98517	0.35117
1136.02081	0.3537
1135.05644	0.35786
1134.09208	0.36352
1133.12772	0.3705
1132.16335	0.37853
1131.19899	0.38735
1130.23462	0.39686
1129.27026	0.40699
1128.3059	0.41763
1127.34153	0.42864
1126.37717	0.43998
1125.4128	0.45176
1124.44844	0.46411
1123.48408	0.47706
1122.51971	0.49058
1121.55535	0.50468
1120.59098	0.5194
1119.62662	0.53478
1118.66226	0.55076
1117.69789	0.56721
1116.73353	0.58405
1115.76916	0.6013
1114.8048	0.61893
1113.84044	0.63672
1112.87607	0.65436
1111.91171	0.67152
1110.94734	0.68785
1109.98298	0.70295
1109.01862	0.71632
1108.05425	0.72746
1107.08989	0.73605
1106.12552	0.74196
1105.16116	0.74515
1104.1968	0.74564
1103.23243	0.74354
1102.26807	0.73915
1101.3037	0.73294
1100.33934	0.72538
1099.37498	0.71696
1098.41061	0.70819
1097.44625	0.6997
1096.48188	0.69217
1095.51752	0.68626
1094.55316	0.68258
1093.58879	0.68168
1092.62443	0.68409
1091.66006	0.69015
1090.6957	0.69998
1089.73134	0.71342
1088.76697	0.73007
1087.80261	0.74946
1086.83824	0.77095
1085.87388	0.7937
1084.90952	0.81672
1083.94515	0.83897
1082.98079	0.85953
1082.01642	0.87754
1081.05206	0.89225
1080.0877	0.90305
1079.12333	0.90962
1078.15897	0.91199
1077.1946	0.91056
1076.23024	0.90596
1075.26588	0.89895
1074.30151	0.89048
1073.33715	0.88162
1072.37278	0.87342
1071.40842	0.86675
1070.44406	0.86231
1069.47969	0.86066
1068.51533	0.86222
1067.55096	0.86721
1066.5866	0.87558
1065.62224	0.88693
1064.65787	0.90058
1063.69351	0.91559
1062.72914	0.93084
1061.76478	0.94517
1060.80042	0.95751
1059.83605	0.96714
1058.87169	0.97379
1057.90732	0.9776
1056.94296	0.97903
1055.97859	0.97875
1055.01423	0.97753
1054.04987	0.97613
1053.0855	0.9751
1052.12114	0.97484
1051.15677	0.97556
1050.19241	0.97732
1049.22805	0.97997
1048.26368	0.98323
1047.29932	0.98684
1046.33495	0.99052
1045.37059	0.99402
1044.40623	0.99702
1043.44186	0.99916
1042.4775	1
1041.51313	0.99916
1040.54877	0.99637
1039.58441	0.99145
1038.62004	0.98443
1037.65568	0.9756
1036.69131	0.9655
1035.72695	0.95481
1034.76259	0.94416
1033.79822	0.934
1032.83386	0.92451
1031.86949	0.91574
1030.90513	0.90761
1029.94077	0.89997
1028.9764	0.89272
1028.01204	0.88574
1027.04767	0.879
1026.08331	0.87255
1025.11895	0.86652
1024.15458	0.8611
1023.19022	0.8565
1022.22585	0.85285
1021.26149	0.85009
1020.29713	0.84802
1019.33276	0.84644
1018.3684	0.84514
1017.40403	0.84395
1016.43967	0.8426
1015.47531	0.84078
1014.51094	0.83815
1013.54658	0.83444
1012.58221	0.82944
1011.61785	0.82293
1010.65349	0.81471
1009.68912	0.80471
1008.72476	0.79307
1007.76039	0.77999
1006.79603	0.76572
1005.83167	0.75051
1004.8673	0.73467
1003.90294	0.7186
1002.93857	0.70269
1001.97421	0.68724
1001.00985	0.67248
1000.04548	0.65856
999.08112	0.64554
998.11675	0.63338
997.15239	0.6219
996.18803	0.61092
995.22366	0.60032
994.2593	0.59003
993.29493	0.57989
992.33057	0.5696
991.36621	0.5589
990.40184	0.54773
989.43748	0.53612
988.47311	0.52407
987.50875	0.51146
986.54439	0.49821
985.58002	0.48438
984.61566	0.47009
983.65129	0.45536
982.68693	0.44012
981.72257	0.42435
980.7582	0.40818
979.79384	0.39184
978.82947	0.37552
977.86511	0.35931
976.90075	0.34333
975.93638	0.3278
974.97202	0.31291
974.00765	0.29869
973.04329	0.28513
972.07893	0.27233
971.11456	0.26056
970.1502	0.25006
969.18583	0.2409
968.22147	0.23301
967.25711	0.22637
966.29274	0.22097
965.32838	0.21674
964.36401	0.21349
963.39965	0.21108
962.43529	0.20959
961.47092	0.20928
960.50656	0.21039
959.54219	0.21303
958.57783	0.21718
957.61347	0.22288
956.6491	0.23015
955.68474	0.23879
954.72037	0.24841
953.75601	0.25856
952.79165	0.26899
951.82728	0.27956
950.86292	0.29018
949.89855	0.30065
948.93419	0.31075
947.96983	0.32032
947.00546	0.32925
946.0411	0.33722
945.07673	0.34372
944.11237	0.34825
943.14801	0.35053
942.18364	0.3506
941.21928	0.34852
940.25491	0.34433
939.29055	0.33816
938.32619	0.33033
937.36182	0.32126
936.39746	0.31123
935.43309	0.30033
934.46873	0.28865
933.50437	0.27653
932.54	0.26433
931.57564	0.25228
930.61127	0.24041
929.64691	0.22878
928.68255	0.21761
927.71818	0.20717
926.75382	0.19746
925.78945	0.18827
924.82509	0.17943
923.86073	0.17099
922.89636	0.16304
921.932	0.15547
920.96763	0.14803
920.00327	0.14057
919.03891	0.13321
918.07454	0.12605
917.11018	0.11898
916.14581	0.11177
915.18145	0.10435
914.21708	0.09691
913.25272	0.08967
912.28836	0.08268
911.32399	0.07587
910.35963	0.06928
909.39526	0.06314
908.4309	0.05753
907.46654	0.05227
906.50217	0.04711
905.53781	0.04202
904.57344	0.03718
903.60908	0.03275
902.64472	0.02859
901.68035	0.02453
900.71599	0.02063
899.75162	0.01737
898.78726	0.01565
897.8229	0.0164
896.85853	0.02003
895.89417	0.02638
894.9298	0.03494
893.96544	0.04505
893.00108	0.05587
892.03671	0.0667
891.07235	0.07716
890.10798	0.0871
889.14362	0.09623
888.17926	0.10408
887.21489	0.1103
886.25053	0.11489
885.28616	0.11803
884.3218	0.11974
883.35744	0.11987
882.39307	0.11842
881.42871	0.11579
880.46434	0.11258
879.49998	0.10936
878.53562	0.10659
877.57125	0.10496
876.60689	0.10552
875.64252	0.10928
874.67816	0.11639
873.7138	0.12592
872.74943	0.13669
871.78507	0.14809
870.8207	0.15987
869.85634	0.17161
868.89198	0.18273
867.92761	0.19273
866.96325	0.20144
865.99888	0.20874
865.03452	0.21433
864.07016	0.21792
863.10579	0.21941
862.14143	0.21903
861.17706	0.21702
860.2127	0.21345
859.24834	0.20832
858.28397	0.20194
857.31961	0.19489
856.35524	0.18776
855.39088	0.18077
854.42652	0.17387
853.46215	0.16708
852.49779	0.16069
851.53342	0.15493
850.56906	0.14969
849.6047	0.14475
848.64033	0.14003
847.67597	0.13567
846.7116	0.13168
845.74724	0.12781
844.78288	0.12371
843.81851	0.11932
842.85415	0.11485
841.88978	0.11045
840.92542	0.10595
839.96106	0.10111
838.99669	0.09601
838.03233	0.09091
837.06796	0.08594
836.1036	0.08101
835.13924	0.07606
834.17487	0.0714
833.21051	0.06756
832.24614	0.0648
831.28178	0.06303
830.31742	0.0621
829.35305	0.06209
828.38869	0.06313
827.42432	0.06506
826.45996	0.06743
825.4956	0.06991
824.53123	0.07251
823.56687	0.07532
822.6025	0.07819
821.63814	0.08067
820.67378	0.08251
819.70941	0.08384
818.74505	0.08487
817.78068	0.08549
816.81632	0.0854
815.85196	0.08454
814.88759	0.0832
813.92323	0.08177
812.95886	0.08032
811.9945	0.07876
811.03014	0.07716
810.06577	0.07593
809.10141	0.07539
808.13704	0.07542
807.17268	0.0757
806.20832	0.07612
805.24395	0.0768
804.27959	0.07782
803.31522	0.07894
802.35086	0.07982
801.3865	0.0804
800.42213	0.08087
799.45777	0.08134
798.4934	0.08162
797.52904	0.08153
796.56468	0.08121
795.60031	0.08104
794.63595	0.08119
793.67158	0.08153
792.70722	0.08189
791.74286	0.0825
790.77849	0.08378
789.81413	0.08601
788.84976	0.08915
787.8854	0.09307
786.92104	0.09784
785.95667	0.10354
784.99231	0.10992
784.02794	0.11643
783.06358	0.12263
782.09922	0.12846
781.13485	0.13406
780.17049	0.13936
779.20612	0.14403
778.24176	0.14794
777.2774	0.15133
776.31303	0.15454
775.34867	0.15767
774.3843	0.16054
773.41994	0.16313
772.45557	0.16578
771.49121	0.1688
770.52685	0.17222
769.56248	0.17595
768.59812	0.18009
767.63375	0.18504
766.66939	0.19111
765.70503	0.19818
764.74066	0.20576
763.7763	0.2135
762.81193	0.22136
761.84757	0.22926
760.88321	0.23686
759.91884	0.24374
758.95448	0.24977
757.99011	0.25503
757.02575	0.25954
756.06139	0.26305
755.09702	0.26522
754.13266	0.26603
753.16829	0.26573
752.20393	0.2644
751.23957	0.26185
750.2752	0.25793
749.31084	0.25286
748.34647	0.24704
747.38211	0.24072
746.41775	0.2338
745.45338	0.2262
744.48902	0.21816
743.52465	0.21013
742.56029	0.20237
741.59593	0.19482
740.63156	0.18746
739.6672	0.18055
738.70283	0.17443
737.73847	0.16914
736.77411	0.16437
735.80974	0.15986
734.84538	0.15573
733.88101	0.15226
732.91665	0.14947
731.95229	0.14698
730.98792	0.14451
730.02356	0.14223
729.05919	0.14043
728.09483	0.13907
727.13047	0.1379
726.1661	0.13684
725.20174	0.13613
724.23737	0.13595
723.27301	0.1362
722.30865	0.13662
721.34428	0.13721
720.37992	0.13827
719.41555	0.14002
718.45119	0.14231
717.48683	0.14483
716.52246	0.14748
715.5581	0.15041
714.59373	0.15368
713.62937	0.15699
712.66501	0.15993
711.70064	0.16242
710.73628	0.16463
709.77191	0.16661
708.80755	0.16797
707.84319	0.16839
706.87882	0.16806
705.91446	0.16732
704.95009	0.16624
703.98573	0.16466
703.02137	0.16246
702.057	0.1598
701.09264	0.15704
700.12827	0.15435
699.16391	0.15156
698.19955	0.14863
697.23518	0.1458
696.27082	0.14343
695.30645	0.14154
694.34209	0.13987
693.37773	0.13823
692.41336	0.13681
691.449	0.13588
690.48463	0.13534
689.52027	0.13485
688.55591	0.13431
687.59154	0.134
686.62718	0.13418
685.66281	0.13474
684.69845	0.13537
683.73409	0.13602
682.76972	0.13697
681.80536	0.13846
680.84099	0.14041
679.87663	0.14199
678.91227	0.14216
677.9479	0.14211
676.98354	0.14233
676.01917	0.14267
675.05481	0.14293
674.09045	0.14307
673.12608	0.14325
672.16172	0.14357
671.19735	0.14387
670.23299	0.14392
669.26863	0.14376
668.30426	0.14363
667.3399	0.14367
666.37553	0.14375
665.41117	0.14379
664.44681	0.14397
663.48244	0.14457
662.51808	0.14563
661.55371	0.14689
660.58935	0.14815
659.62499	0.14939
658.66062	0.1507
657.69626	0.15187
656.73189	0.15226
655.76753	0.1519
654.80317	0.15221
653.8388	0.15294
652.87444	0.15382
651.91007	0.15455
650.94571	0.15489
649.98135	0.15501
649.01698	0.15521
648.05262	0.15546
647.08825	0.15546
646.12389	0.15508
645.15953	0.15462
644.19516	0.15441
643.2308	0.15444
642.26643	0.15444
641.30207	0.15439
640.33771	0.1545
639.37334	0.15492
638.40898	0.15549
637.44461	0.15594
636.48025	0.15617
635.51589	0.15639
634.55152	0.15674
633.58716	0.1571
632.62279	0.15727
631.65843	0.15734
630.69406	0.15758
629.7297	0.15809
628.76534	0.15866
627.80097	0.15918
626.83661	0.15986
625.87224	0.16102
624.90788	0.1628
623.94352	0.16505
622.97915	0.1677
622.01479	0.17092
621.05042	0.1749
620.08606	0.17955
619.1217	0.18463
618.15733	0.18997
617.19297	0.19555
616.2286	0.20131
615.26424	0.20704
614.29988	0.21236
613.33551	0.21702
612.37115	0.22102
611.40678	0.22446
610.44242	0.22725
609.47806	0.22917
608.51369	0.23021
607.54933	0.23055
606.58496	0.23032
605.6206	0.22956
604.65624	0.22851
603.69187	0.22752
602.72751	0.22692
601.76314	0.22699
600.79878	0.22782
599.83442	0.22931
598.87005	0.23143
597.90569	0.23421
596.94132	0.23761
595.97696	0.24134
595.0126	0.24503
594.04823	0.24859
593.08387	0.25213
592.1195	0.25568
591.15514	0.25904
590.19078	0.26204
589.22641	0.26472
588.26205	0.26717
587.29768	0.26923
586.33332	0.2707
585.36896	0.27158
584.40459	0.27198
583.44023	0.272
582.47586	0.27179
581.5115	0.27151
580.54714	0.27117
579.58277	0.27071
578.61841	0.27015
577.65404	0.2694
576.68968	0.26828
575.72532	0.26662
574.76095	0.26432
573.79659	0.2613
572.83222	0.25751
571.86786	0.25304
570.9035	0.24803
569.93913	0.24263
568.97477	0.23694
568.0104	0.23104
567.04604	0.22503
566.08168	0.219
565.11731	0.21297
564.15295	0.20699
563.18858	0.20127
562.22422	0.19594
561.25986	0.19092
560.29549	0.18614
559.33113	0.18177
558.36676	0.17784
557.4024	0.17426
556.43804	0.17096
555.47367	0.16805
554.50931	0.16565
553.54494	0.16383
552.58058	0.16249
551.61622	0.16146
550.65185	0.16068
549.68749	0.1603
548.72312	0.16038
547.75876	0.16079
546.7944	0.16144
545.83003	0.16243
544.86567	0.16385
543.9013	0.16568
542.93694	0.16791
541.97258	0.17055
541.00821	0.17361
540.04385	0.17714
539.07948	0.18103
538.11512	0.18499
537.15076	0.18867
536.18639	0.19198
535.22203	0.19499
534.25766	0.19764
533.2933	0.19984
532.32894	0.20161
531.36457	0.20298
530.40021	0.20383
529.43584	0.204
528.47148	0.20326
527.50712	0.20148
526.54275	0.19886
525.57839	0.1956
524.61402	0.19175
523.64966	0.18739
522.6853	0.18269
521.72093	0.1778
520.75657	0.17289
519.7922	0.16814
518.82784	0.1636
517.86348	0.15925
516.89911	0.15515
515.93475	0.15136
514.97038	0.1478
514.00602	0.14433
513.04166	0.14096
512.07729	0.13788
511.11293	0.13514
510.14856	0.1327
509.1842	0.13058
508.21984	0.12875
507.25547	0.12717
506.29111	0.12585
505.32674	0.12465
504.36238	0.12351
503.39802	0.12265
502.43365	0.12215
501.46929	0.12197
500.50492	0.1221
499.54056	0.12255
498.5762	0.12336
497.61183	0.12461
496.64747	0.12616
495.6831	0.12763
494.71874	0.12873
493.75437	0.1296
492.79001	0.13048
491.82565	0.13124
490.86128	0.13147
489.89692	0.13113
488.93255	0.13067
487.96819	0.13029
487.00383	0.12979
486.03946	0.12921
485.0751	0.12886
484.11073	0.12881
483.14637	0.12852
482.18201	0.12758
481.21764	0.12607
480.25328	0.12422
479.28891	0.12226
478.32455	0.12032
477.36019	0.11832
476.39582	0.11605
475.43146	0.11366
474.46709	0.11132
473.50273	0.10883
472.53837	0.10578
471.574	0.10211
470.60964	0.09823
469.64527	0.09436
468.68091	0.09006
467.71655	0.08523
466.75218	0.0805
465.78782	0.07647
464.82345	0.07319
463.85909	0.0703
462.89473	0.06764
461.93036	0.06539
460.966	0.06358
460.00163	0.06214
459.03727	0.06128
458.07291	0.06092
457.10854	0.06083
456.14418	0.06116
455.17981	0.06193
454.21545	0.0628
453.25109	0.06336
452.28672	0.06386
451.32236	0.06469
450.35799	0.06553
449.39363	0.06588
448.42927	0.06582
447.4649	0.06586
446.50054	0.06614
445.53617	0.06646
444.57181	0.06681
443.60745	0.06733
442.64308	0.06797
441.67872	0.06853
440.71435	0.06876
439.74999	0.0689
438.78563	0.0695
437.82126	0.07082
436.8569	0.0727
435.89253	0.07449
434.92817	0.07559
433.96381	0.07627
432.99944	0.07698
432.03508	0.07765
431.07071	0.07812
430.10635	0.07747
429.14199	0.07506
428.17762	0.07178
427.21326	0.06795
426.24889	0.06358
425.28453	0.05913
424.32017	0.05527
423.3558	0.05195
422.39144	0.04844
421.42707	0.04448
420.46271	0.04055
419.49835	0.0371
418.53398	0.03401
417.56962	0.03098
416.60525	0.02826
415.64089	0.02644
414.67653	0.02582
413.71216	0.02592
412.7478	0.0259
411.78343	0.02561
410.81907	0.02386
409.85471	0.02203
408.89034	0.02014
407.92598	0.01818
406.96161	0.01614
405.99725	0.01404
405.03289	0.01188
404.06852	0.00964
403.10416	0.00733
402.13979	0.00496
401.17543	0.00251
400.21107	0