3996.41167	0.01133
3994.4829	0.01133
3992.55413	0.01135
3990.62536	0.01139
3988.69659	0.01144
3986.76782	0.0115
3984.83905	0.01157
3982.91028	0.01167
3980.98151	0.01177
3979.05274	0.01189
3977.12397	0.01202
3975.1952	0.01217
3973.26643	0.01233
3971.33766	0.01239
3969.40889	0.0126
3967.48012	0.01287
3965.55135	0.01316
3963.62258	0.01354
3961.69381	0.01402
3959.76504	0.01452
3957.83627	0.01493
3955.9075	0.01515
3953.97873	0.01525
3952.04996	0.01541
3950.12119	0.01563
3948.19242	0.01579
3946.26365	0.01593
3944.33488	0.01611
3942.40611	0.01623
3940.47734	0.01626
3938.54857	0.0163
3936.6198	0.01645
3934.69103	0.01665
3932.76226	0.01682
3930.83349	0.01681
3928.90472	0.01652
3926.97595	0.01599
3925.04718	0.01549
3923.11841	0.01521
3921.18964	0.01523
3919.26087	0.01563
3917.3321	0.01629
3915.40333	0.01681
3913.47456	0.01703
3911.54579	0.01708
3909.61702	0.01701
3907.68825	0.01687
3905.75948	0.01674
3903.83071	0.01656
3901.90194	0.01641
3899.97317	0.01648
3898.0444	0.01663
3896.11563	0.01654
3894.18686	0.01622
3892.25809	0.0159
3890.32932	0.01571
3888.40055	0.01546
3886.47178	0.0149
3884.54301	0.01414
3882.61424	0.01348
3880.68547	0.01323
3878.7567	0.01333
3876.82792	0.01316
3874.89915	0.0125
3872.97038	0.01188
3871.04161	0.01153
3869.11284	0.0113
3867.18407	0.01112
3865.2553	0.01093
3863.32653	0.01059
3861.39776	0.01008
3859.46899	0.00967
3857.54022	0.00949
3855.61145	0.00952
3853.68268	0.00958
3851.75391	0.00945
3849.82514	0.0092
3847.89637	0.00908
3845.9676	0.00915
3844.03883	0.00921
3842.11006	0.00914
3840.18129	0.00912
3838.25252	0.00933
3836.32375	0.00977
3834.39498	0.01026
3832.46621	0.01039
3830.53744	0.00996
3828.60867	0.00963
3826.6799	0.00995
3824.75113	0.01035
3822.82236	0.01033
3820.89359	0.01002
3818.96482	0.00968
3817.03605	0.00946
3815.10728	0.00943
3813.17851	0.00967
3811.24974	0.0101
3809.32097	0.01052
3807.3922	0.01091
3805.46343	0.01139
3803.53466	0.01196
3801.60589	0.01255
3799.67712	0.01312
3797.74835	0.01375
3795.81958	0.01455
3793.89081	0.01542
3791.96204	0.01621
3790.03327	0.01703
3788.1045	0.01793
3786.17573	0.01875
3784.24696	0.01935
3782.31819	0.01967
3780.38942	0.01976
3778.46065	0.01972
3776.53188	0.01966
3774.60311	0.01943
3772.67434	0.01885
3770.74557	0.01814
3768.8168	0.01736
3766.88803	0.01632
3764.95926	0.01512
3763.03049	0.01405
3761.10172	0.01312
3759.17295	0.01219
3757.24418	0.01134
3755.31541	0.01079
3753.38664	0.01079
3751.45787	0.0111
3749.5291	0.01141
3747.60033	0.01168
3745.67156	0.01208
3743.74279	0.01279
3741.81402	0.01389
3739.88525	0.01546
3737.95648	0.01729
3736.02771	0.01892
3734.09894	0.02016
3732.17017	0.02109
3730.2414	0.0218
3728.31263	0.02224
3726.38386	0.02252
3724.45509	0.02274
3722.52632	0.02293
3720.59755	0.02322
3718.66878	0.02394
3716.74001	0.02505
3714.81124	0.02622
3712.88247	0.02721
3710.9537	0.02849
3709.02493	0.03051
3707.09616	0.03318
3705.16739	0.0362
3703.23861	0.03938
3701.30984	0.04255
3699.38107	0.04551
3697.4523	0.04836
3695.52353	0.05142
3693.59476	0.05457
3691.66599	0.05749
3689.73722	0.0602
3687.80845	0.06294
3685.87968	0.06593
3683.95091	0.06916
3682.02214	0.07235
3680.09337	0.07529
3678.1646	0.0781
3676.23583	0.08109
3674.30706	0.08397
3672.37829	0.08612
3670.44952	0.08772
3668.52075	0.08943
3666.59198	0.09149
3664.66321	0.094
3662.73444	0.09686
3660.80567	0.09967
3658.8769	0.10207
3656.94813	0.10385
3655.01936	0.10495
3653.09059	0.10536
3651.16182	0.1055
3649.23305	0.10609
3647.30428	0.10727
3645.37551	0.10885
3643.44674	0.11054
3641.51797	0.11217
3639.5892	0.11398
3637.66043	0.11621
3635.73166	0.11876
3633.80289	0.12139
3631.87412	0.12401
3629.94535	0.12661
3628.01658	0.12921
3626.08781	0.13207
3624.15904	0.13571
3622.23027	0.14014
3620.3015	0.14477
3618.37273	0.14933
3616.44396	0.15393
3614.51519	0.15874
3612.58642	0.16348
3610.65765	0.16783
3608.72888	0.17211
3606.80011	0.17676
3604.87134	0.18207
3602.94257	0.18806
3601.0138	0.19425
3599.08503	0.20015
3597.15626	0.20582
3595.22749	0.21171
3593.29872	0.21791
3591.36995	0.22388
3589.44118	0.22938
3587.51241	0.23495
3585.58364	0.24106
3583.65487	0.24772
3581.7261	0.25478
3579.79733	0.2619
3577.86856	0.26875
3575.93979	0.27532
3574.01102	0.28183
3572.08225	0.28838
3570.15348	0.29484
3568.22471	0.30115
3566.29594	0.30749
3564.36717	0.31425
3562.4384	0.32168
3560.50963	0.32946
3558.58086	0.33709
3556.65209	0.34448
3554.72332	0.35166
3552.79455	0.35858
3550.86578	0.36524
3548.93701	0.37169
3547.00824	0.37798
3545.07947	0.38431
3543.1507	0.39115
3541.22193	0.39874
3539.29316	0.40668
3537.36439	0.41457
3535.43562	0.42228
3533.50685	0.42974
3531.57807	0.43696
3529.6493	0.4441
3527.72053	0.45116
3525.79176	0.45811
3523.86299	0.46516
3521.93422	0.47273
3520.00545	0.48085
3518.07668	0.48916
3516.14791	0.49732
3514.21914	0.50529
3512.29037	0.51317
3510.3616	0.52096
3508.43283	0.52862
3506.50406	0.53612
3504.57529	0.54359
3502.64652	0.55128
3500.71775	0.55933
3498.78898	0.56759
3496.86021	0.57586
3494.93144	0.58409
3493.00267	0.5923
3491.0739	0.60044
3489.14513	0.60843
3487.21636	0.61628
3485.28759	0.62407
3483.35882	0.63187
3481.43005	0.63971
3479.50128	0.64769
3477.57251	0.65589
3475.64374	0.66416
3473.71497	0.67229
3471.7862	0.68019
3469.85743	0.68788
3467.92866	0.69552
3465.99989	0.70319
3464.07112	0.7109
3462.14235	0.71863
3460.21358	0.72632
3458.28481	0.73398
3456.35604	0.74165
3454.42727	0.74923
3452.4985	0.75658
3450.56973	0.76374
3448.64096	0.77085
3446.71219	0.77787
3444.78342	0.78466
3442.85465	0.79124
3440.92588	0.79778
3438.99711	0.80438
3437.06834	0.81097
3435.13957	0.81746
3433.2108	0.82373
3431.28203	0.82967
3429.35326	0.83534
3427.42449	0.84077
3425.49572	0.84599
3423.56695	0.85108
3421.63818	0.85619
3419.70941	0.8612
3417.78064	0.86596
3415.85187	0.87045
3413.9231	0.87465
3411.99433	0.87857
3410.06556	0.88225
3408.13679	0.88562
3406.20802	0.88868
3404.27925	0.89152
3402.35048	0.89421
3400.42171	0.89672
3398.49294	0.89902
3396.56417	0.90121
3394.6354	0.90334
3392.70663	0.9053
3390.77786	0.90703
3388.84909	0.90853
3386.92032	0.90975
3384.99155	0.91069
3383.06278	0.91146
3381.13401	0.91211
3379.20524	0.91263
3377.27647	0.91301
3375.3477	0.91323
3373.41893	0.91323
3371.49016	0.913
3369.56139	0.91258
3367.63262	0.91199
3365.70385	0.91125
3363.77508	0.91031
3361.84631	0.90913
3359.91753	0.90771
3357.98876	0.9061
3356.05999	0.90432
3354.13122	0.90242
3352.20245	0.90043
3350.27368	0.89834
3348.34491	0.89607
3346.41614	0.89358
3344.48737	0.89092
3342.5586	0.8881
3340.62983	0.88509
3338.70106	0.88199
3336.77229	0.87886
3334.84352	0.87569
3332.91475	0.87242
3330.98598	0.869
3329.05721	0.86539
3327.12844	0.86161
3325.19967	0.85769
3323.2709	0.85367
3321.34213	0.8496
3319.41336	0.84543
3317.48459	0.84109
3315.55582	0.83658
3313.62705	0.83189
3311.69828	0.82713
3309.76951	0.82236
3307.84074	0.81761
3305.91197	0.81285
3303.9832	0.80804
3302.05443	0.8032
3300.12566	0.79839
3298.19689	0.79367
3296.26812	0.78901
3294.33935	0.78435
3292.41058	0.77971
3290.48181	0.77509
3288.55304	0.77047
3286.62427	0.76582
3284.6955	0.76115
3282.76673	0.75648
3280.83796	0.75182
3278.90919	0.74717
3276.98042	0.74255
3275.05165	0.73793
3273.12288	0.73324
3271.19411	0.72851
3269.26534	0.72376
3267.33657	0.71897
3265.4078	0.71411
3263.47903	0.70925
3261.55026	0.70443
3259.62149	0.69968
3257.69272	0.695
3255.76395	0.69035
3253.83518	0.68571
3251.90641	0.68107
3249.97764	0.6764
3248.04887	0.67173
3246.1201	0.66711
3244.19133	0.66259
3242.26256	0.65812
3240.33379	0.65366
3238.40502	0.6492
3236.47625	0.64471
3234.54748	0.64017
3232.61871	0.63558
3230.68994	0.63093
3228.76117	0.62621
3226.8324	0.62142
3224.90363	0.61654
3222.97486	0.61153
3221.04609	0.60631
3219.11732	0.60093
3217.18855	0.59541
3215.25978	0.58978
3213.33101	0.58402
3211.40224	0.57814
3209.47347	0.57214
3207.5447	0.56606
3205.61593	0.55992
3203.68716	0.55372
3201.75839	0.54748
3199.82962	0.54125
3197.90085	0.53502
3195.97208	0.52876
3194.04331	0.5225
3192.11454	0.51626
3190.18577	0.51005
3188.257	0.5039
3186.32822	0.49786
3184.39945	0.49199
3182.47068	0.48629
3180.54191	0.48074
3178.61314	0.47532
3176.68437	0.47002
3174.7556	0.46482
3172.82683	0.45967
3170.89806	0.45456
3168.96929	0.44944
3167.04052	0.44428
3165.11175	0.43907
3163.18298	0.43377
3161.25421	0.42835
3159.32544	0.42282
3157.39667	0.41715
3155.4679	0.41132
3153.53913	0.40535
3151.61036	0.39929
3149.68159	0.39313
3147.75282	0.3869
3145.82405	0.38062
3143.89528	0.3744
3141.96651	0.36834
3140.03774	0.36249
3138.10897	0.35687
3136.1802	0.35148
3134.25143	0.34633
3132.32266	0.34145
3130.39389	0.33687
3128.46512	0.33255
3126.53635	0.32841
3124.60758	0.32438
3122.67881	0.32047
3120.75004	0.31673
3118.82127	0.31315
3116.8925	0.30971
3114.96373	0.30639
3113.03496	0.30321
3111.10619	0.30013
3109.17742	0.29718
3107.24865	0.29438
3105.31988	0.29175
3103.39111	0.28924
3101.46234	0.28682
3099.53357	0.28454
3097.6048	0.28248
3095.67603	0.28064
3093.74726	0.27899
3091.81849	0.27753
3089.88972	0.2763
3087.96095	0.2753
3086.03218	0.27453
3084.10341	0.27402
3082.17464	0.27371
3080.24587	0.27354
3078.3171	0.27349
3076.38833	0.27358
3074.45956	0.27381
3072.53079	0.2741
3070.60202	0.27442
3068.67325	0.2748
3066.74448	0.27527
3064.81571	0.27579
3062.88694	0.27627
3060.95817	0.27665
3059.0294	0.27689
3057.10063	0.27698
3055.17186	0.27694
3053.24309	0.27681
3051.31432	0.27661
3049.38555	0.27633
3047.45678	0.27603
3045.52801	0.27578
3043.59924	0.27562
3041.67047	0.27557
3039.7417	0.2757
3037.81293	0.27609
3035.88416	0.27676
3033.95539	0.27774
3032.02662	0.27912
3030.09785	0.28097
3028.16908	0.28334
3026.24031	0.28625
3024.31154	0.2897
3022.38277	0.29373
3020.454	0.29843
3018.52523	0.30384
3016.59646	0.30988
3014.66768	0.31636
3012.73891	0.32339
3010.81014	0.3315
3008.88137	0.34103
3006.9526	0.35182
3005.02383	0.36361
3003.09506	0.37619
3001.16629	0.38951
2999.23752	0.4035
2997.30875	0.41805
2995.37998	0.43311
2993.45121	0.44868
2991.52244	0.46462
2989.59367	0.48061
2987.6649	0.49616
2985.73613	0.51073
2983.80736	0.52387
2981.87859	0.5352
2979.94982	0.54447
2978.02105	0.55156
2976.09228	0.55643
2974.16351	0.55921
2972.23474	0.55997
2970.30597	0.55884
2968.3772	0.55622
2966.44843	0.55303
2964.51966	0.55011
2962.59089	0.54767
2960.66212	0.54579
2958.73335	0.54481
2956.80458	0.54519
2954.87581	0.54728
2952.94704	0.55128
2951.01827	0.55725
2949.0895	0.56509
2947.16073	0.57451
2945.23196	0.58501
2943.30319	0.59599
2941.37442	0.60685
2939.44565	0.617
2937.51688	0.626
2935.58811	0.63355
2933.65934	0.63953
2931.73057	0.64377
2929.8018	0.64612
2927.87303	0.64651
2925.94426	0.64498
2924.01549	0.64197
2922.08672	0.6381
2920.15795	0.63369
2918.22918	0.62872
2916.30041	0.62325
2914.37164	0.61749
2912.44287	0.61162
2910.5141	0.60566
2908.58533	0.59965
2906.65656	0.59371
2904.72779	0.58788
2902.79902	0.58208
2900.87025	0.57622
2898.94148	0.57025
2897.01271	0.56415
2895.08394	0.55782
2893.15517	0.55116
2891.2264	0.54411
2889.29763	0.53667
2887.36886	0.52884
2885.44009	0.52044
2883.51132	0.51135
2881.58255	0.50156
2879.65378	0.49122
2877.72501	0.48057
2875.79624	0.46957
2873.86747	0.45793
2871.9387	0.44559
2870.00993	0.43283
2868.08116	0.41991
2866.15239	0.40694
2864.22362	0.39413
2862.29485	0.38181
2860.36608	0.37029
2858.43731	0.35971
2856.50854	0.35007
2854.57977	0.34142
2852.651	0.33383
2850.72223	0.32726
2848.79346	0.32161
2846.86469	0.31675
2844.93592	0.31254
2843.00714	0.30883
2841.07837	0.30542
2839.1496	0.30211
2837.22083	0.29876
2835.29206	0.29525
2833.36329	0.29152
2831.43452	0.28756
2829.50575	0.28333
2827.57698	0.27881
2825.64821	0.27399
2823.71944	0.26888
2821.79067	0.26351
2819.8619	0.25792
2817.93313	0.25222
2816.00436	0.24653
2814.07559	0.24091
2812.14682	0.2354
2810.21805	0.23
2808.28928	0.22476
2806.36051	0.21963
2804.43174	0.21459
2802.50297	0.20967
2800.5742	0.20492
2798.64543	0.20042
2796.71666	0.19621
2794.78789	0.1923
2792.85912	0.18866
2790.93035	0.18526
2789.00158	0.18213
2787.07281	0.17928
2785.14404	0.17668
2783.21527	0.17427
2781.2865	0.17198
2779.35773	0.16977
2777.42896	0.16765
2775.50019	0.16558
2773.57142	0.16358
2771.64265	0.16167
2769.71388	0.15994
2767.78511	0.15837
2765.85634	0.15693
2763.92757	0.15558
2761.9988	0.15428
2760.07003	0.15303
2758.14126	0.15186
2756.21249	0.15075
2754.28372	0.14965
2752.35495	0.14854
2750.42618	0.14738
2748.49741	0.1462
2746.56864	0.14502
2744.63987	0.14385
2742.7111	0.1427
2740.78233	0.14155
2738.85356	0.14037
2736.92479	0.13915
2734.99602	0.1379
2733.06725	0.13668
2731.13848	0.13548
2729.20971	0.13431
2727.28094	0.13319
2725.35217	0.13216
2723.4234	0.13121
2721.49463	0.13029
2719.56586	0.12939
2717.63709	0.1285
2715.70832	0.12765
2713.77955	0.12684
2711.85078	0.12606
2709.92201	0.12525
2707.99324	0.12437
2706.06447	0.12343
2704.1357	0.12251
2702.20693	0.12168
2700.27816	0.12095
2698.34939	0.12026
2696.42062	0.11957
2694.49185	0.1189
2692.56308	0.11824
2690.63431	0.11759
2688.70554	0.11693
2686.77677	0.11625
2684.848	0.11556
2682.91923	0.11486
2680.99046	0.11419
2679.06169	0.11357
2677.13292	0.113
2675.20415	0.11248
2673.27538	0.11202
2671.34661	0.11165
2669.41783	0.1114
2667.48906	0.11126
2665.56029	0.1112
2663.63152	0.11116
2661.70275	0.11117
2659.77398	0.11125
2657.84521	0.1114
2655.91644	0.11157
2653.98767	0.11171
2652.0589	0.11175
2650.13013	0.11167
2648.20136	0.11145
2646.27259	0.11108
2644.34382	0.11058
2642.41505	0.10991
2640.48628	0.10909
2638.55751	0.10817
2636.62874	0.10718
2634.69997	0.10612
2632.7712	0.10497
2630.84243	0.10377
2628.91366	0.10254
2626.98489	0.10135
2625.05612	0.10022
2623.12735	0.09914
2621.19858	0.09809
2619.26981	0.09709
2617.34104	0.09615
2615.41227	0.09528
2613.4835	0.09446
2611.55473	0.09364
2609.62596	0.09279
2607.69719	0.09186
2605.76842	0.09087
2603.83965	0.08983
2601.91088	0.08878
2599.98211	0.08773
2598.05334	0.08663
2596.12457	0.08548
2594.1958	0.0843
2592.26703	0.08313
2590.33826	0.08193
2588.40949	0.08069
2586.48072	0.07943
2584.55195	0.07818
2582.62318	0.07695
2580.69441	0.0757
2578.76564	0.07441
2576.83687	0.07316
2574.9081	0.07199
2572.97933	0.07089
2571.05056	0.06981
2569.12179	0.06877
2567.19302	0.06777
2565.26425	0.06683
2563.33548	0.06593
2561.40671	0.06504
2559.47794	0.06418
2557.54917	0.06338
2555.6204	0.06263
2553.69163	0.0619
2551.76286	0.06123
2549.83409	0.06062
2547.90532	0.06002
2545.97655	0.0594
2544.04778	0.0588
2542.11901	0.05823
2540.19024	0.05769
2538.26147	0.05717
2536.3327	0.05664
2534.40393	0.0561
2532.47516	0.05558
2530.54639	0.05511
2528.61762	0.05465
2526.68885	0.05412
2524.76008	0.05357
2522.83131	0.05302
2520.90254	0.05246
2518.97377	0.0519
2517.045	0.0513
2515.11623	0.05068
2513.18746	0.05004
2511.25869	0.0494
2509.32992	0.04877
2507.40115	0.04815
2505.47238	0.04751
2503.54361	0.04683
2501.61484	0.04614
2499.68607	0.04554
2497.75729	0.04502
2495.82852	0.04453
2493.89975	0.04406
2491.97098	0.04362
2490.04221	0.04322
2488.11344	0.04286
2486.18467	0.04257
2484.2559	0.04232
2482.32713	0.0421
2480.39836	0.04188
2478.46959	0.0417
2476.54082	0.04153
2474.61205	0.04137
2472.68328	0.04121
2470.75451	0.04106
2468.82574	0.04089
2466.89697	0.04069
2464.9682	0.04047
2463.03943	0.04025
2461.11066	0.04005
2459.18189	0.03984
2457.25312	0.03963
2455.32435	0.03942
2453.39558	0.03919
2451.46681	0.03892
2449.53804	0.03859
2447.60927	0.03824
2445.6805	0.03785
2443.75173	0.03746
2441.82296	0.03707
2439.89419	0.03667
2437.96542	0.03626
2436.03665	0.03586
2434.10788	0.03548
2432.17911	0.03512
2430.25034	0.03476
2428.32157	0.03439
2426.3928	0.03399
2424.46403	0.03357
2422.53526	0.033
2420.60649	0.03249
2418.67772	0.03214
2416.74895	0.03195
2414.82018	0.03184
2412.89141	0.03175
2410.96264	0.03162
2409.03387	0.03144
2407.1051	0.03114
2405.17633	0.03069
2403.24756	0.03015
2401.31879	0.02964
2399.39002	0.02929
2397.46125	0.02905
2395.53248	0.02903
2393.60371	0.02924
2391.67494	0.02939
2389.74617	0.02975
2387.8174	0.03011
2385.88863	0.03011
2383.95986	0.0298
2382.03109	0.0285
2380.10232	0.02611
2378.17355	0.02309
2376.24478	0.01997
2374.31601	0.01776
2372.38724	0.01664
2370.45847	0.01478
2368.5297	0.01244
2366.60093	0.01081
2364.67216	0.00951
2362.74339	0.00848
2360.81462	0.00743
2358.88585	0.00618
2356.95708	0.00506
2355.02831	0.00409
2353.09954	0.00352
2351.17077	0.0032
2349.242	0.00335
2347.31323	0.0036
2345.38446	0.00391
2343.45569	0.00456
2341.52692	0.0055
2339.59815	0.00642
2337.66938	0.00712
2335.74061	0.00725
2333.81184	0.0076
2331.88307	0.00883
2329.9543	0.01109
2328.02553	0.01424
2326.09675	0.01732
2324.16798	0.01935
2322.23921	0.02189
2320.31044	0.02515
2318.38167	0.02786
2316.4529	0.03001
2314.52413	0.03138
2312.59536	0.03199
2310.66659	0.03218
2308.73782	0.03196
2306.80905	0.03155
2304.88028	0.03082
2302.95151	0.02992
2301.02274	0.02877
2299.09397	0.02774
2297.1652	0.0269
2295.23643	0.02628
2293.30766	0.0255
2291.37889	0.02454
2289.45012	0.02365
2287.52135	0.02295
2285.59258	0.02242
2283.66381	0.02193
2281.73504	0.02148
2279.80627	0.02106
2277.8775	0.02067
2275.94873	0.02031
2274.01996	0.01986
2272.09119	0.01924
2270.16242	0.01854
2268.23365	0.01785
2266.30488	0.01724
2264.37611	0.01674
2262.44734	0.01632
2260.51857	0.01595
2258.5898	0.01566
2256.66103	0.01549
2254.73226	0.01539
2252.80349	0.01528
2250.87472	0.0151
2248.94595	0.01491
2247.01718	0.01476
2245.08841	0.01464
2243.15964	0.01453
2241.23087	0.01438
2239.3021	0.01419
2237.37333	0.01399
2235.44456	0.01384
2233.51579	0.0137
2231.58702	0.01351
2229.65825	0.01325
2227.72948	0.01296
2225.80071	0.01271
2223.87194	0.01256
2221.94317	0.01255
2220.0144	0.01264
2218.08563	0.01275
2216.15686	0.01291
2214.22809	0.01315
2212.29932	0.01347
2210.37055	0.01378
2208.44178	0.01405
2206.51301	0.01435
2204.58424	0.01472
2202.65547	0.01511
2200.7267	0.01545
2198.79793	0.01572
2196.86916	0.01587
2194.94039	0.01584
2193.01162	0.01564
2191.08285	0.01534
2189.15408	0.01501
2187.22531	0.01475
2185.29654	0.01464
2183.36777	0.01483
2181.439	0.01523
2179.51023	0.01536
2177.58146	0.01496
2175.65269	0.01416
2173.72392	0.01308
2171.79515	0.01184
2169.86638	0.01056
2167.93761	0.0093
2166.00884	0.00813
2164.08007	0.00711
2162.1513	0.0063
2160.22253	0.00575
2158.29376	0.00542
2156.36499	0.00513
2154.43622	0.0048
2152.50744	0.00446
2150.57867	0.00414
2148.6499	0.0039
2146.72113	0.00389
2144.79236	0.00423
2142.86359	0.00496
2140.93482	0.00607
2139.00605	0.00747
2137.07728	0.00904
2135.14851	0.01044
2133.21974	0.01136
2131.29097	0.012
2129.3622	0.01267
2127.43343	0.01337
2125.50466	0.01411
2123.57589	0.01494
2121.64712	0.01581
2119.71835	0.01666
2117.78958	0.01745
2115.86081	0.01813
2113.93204	0.01865
2112.00327	0.01897
2110.0745	0.01902
2108.14573	0.01888
2106.21696	0.01864
2104.28819	0.01835
2102.35942	0.01805
2100.43065	0.01778
2098.50188	0.01757
2096.57311	0.01747
2094.64434	0.01748
2092.71557	0.01759
2090.7868	0.01777
2088.85803	0.01798
2086.92926	0.0182
2085.00049	0.01846
2083.07172	0.01872
2081.14295	0.01898
2079.21418	0.01921
2077.28541	0.0193
2075.35664	0.01914
2073.42787	0.01883
2071.4991	0.01859
2069.57033	0.01845
2067.64156	0.01832
2065.71279	0.01815
2063.78402	0.01791
2061.85525	0.01762
2059.92648	0.01732
2057.99771	0.01706
2056.06894	0.0168
2054.14017	0.01649
2052.2114	0.01613
2050.28263	0.01581
2048.35386	0.0155
2046.42509	0.0151
2044.49632	0.01453
2042.56755	0.01383
2040.63878	0.01308
2038.71001	0.01226
2036.78124	0.01136
2034.85247	0.0103
2032.9237	0.00906
2030.99493	0.00769
2029.06616	0.00642
2027.13739	0.00544
2025.20862	0.00474
2023.27985	0.00412
2021.35108	0.00343
2019.42231	0.00268
2017.49354	0.00197
2015.56477	0.0014
2013.636	9.92024E-4
2011.70723	6.79689E-4
2009.77846	3.81551E-4
2007.84969	1.26096E-4
2005.92092	0
2003.99215	5.76648E-5
2002.06338	3.33806E-4
2000.13461	8.34444E-4
1998.20584	0.0015
1996.27707	0.00222
1994.3483	0.00285
1992.41953	0.00325
1990.49076	0.00338
1988.56199	0.00338
1986.63322	0.00338
1984.70445	0.00347
1982.77568	0.00358
1980.8469	0.00357
1978.91813	0.00339
1976.98936	0.00304
1975.06059	0.00261
1973.13182	0.00215
1971.20305	0.00169
1969.27428	0.00126
1967.34551	8.9364E-4
1965.41674	6.11824E-4
1963.48797	4.47825E-4
1961.5592	4.40002E-4
1959.63043	6.00823E-4
1957.70166	9.87365E-4
1955.77289	0.00164
1953.84412	0.00245
1951.91535	0.00319
1949.98658	0.00374
1948.05781	0.0041
1946.12904	0.00429
1944.20027	0.00451
1942.2715	0.00486
1940.34273	0.0053
1938.41396	0.00574
1936.48519	0.00613
1934.55642	0.00645
1932.62765	0.00674
1930.69888	0.00711
1928.77011	0.00757
1926.84134	0.00808
1924.91257	0.00853
1922.9838	0.00894
1921.05503	0.00932
1919.12626	0.00969
1917.19749	0.01006
1915.26872	0.01042
1913.33995	0.01075
1911.41118	0.01104
1909.48241	0.01133
1907.55364	0.01156
1905.62487	0.01174
1903.6961	0.01183
1901.76733	0.01184
1899.83856	0.01181
1897.90979	0.0118
1895.98102	0.01178
1894.05225	0.01168
1892.12348	0.01153
1890.19471	0.01137
1888.26594	0.01129
1886.33717	0.01131
1884.4084	0.0114
1882.47963	0.01148
1880.55086	0.01148
1878.62209	0.01144
1876.69332	0.01135
1874.76455	0.01123
1872.83578	0.01108
1870.90701	0.01093
1868.97824	0.01077
1867.04947	0.01063
1865.1207	0.01058
1863.19193	0.01067
1861.26316	0.01082
1859.33439	0.01098
1857.40562	0.01115
1855.47685	0.01132
1853.54808	0.01147
1851.61931	0.0116
1849.69054	0.01175
1847.76177	0.01192
1845.833	0.0122
1843.90423	0.0127
1841.97546	0.01337
1840.04669	0.01409
1838.11792	0.01476
1836.18915	0.01529
1834.26038	0.01564
1832.33161	0.01614
1830.40284	0.01743
1828.47407	0.02016
1826.5453	0.02461
1824.61653	0.03073
1822.68776	0.03828
1820.75899	0.04708
1818.83022	0.05693
1816.90145	0.0675
1814.97268	0.07846
1813.04391	0.08994
1811.11514	0.10211
1809.18636	0.11481
1807.25759	0.1278
1805.32882	0.14097
1803.40005	0.15419
1801.47128	0.16732
1799.54251	0.18016
1797.61374	0.19238
1795.68497	0.20363
1793.7562	0.214
1791.82743	0.22383
1789.89866	0.23324
1787.96989	0.2422
1786.04112	0.25085
1784.11235	0.25928
1782.18358	0.26727
1780.25481	0.27436
1778.32604	0.28014
1776.39727	0.28453
1774.4685	0.2878
1772.53973	0.29058
1770.61096	0.29337
1768.68219	0.29618
1766.75342	0.29879
1764.82465	0.30074
1762.89588	0.3015
1760.96711	0.30075
1759.03834	0.29838
1757.10957	0.29441
1755.1808	0.289
1753.25203	0.28234
1751.32326	0.27447
1749.39449	0.26549
1747.46572	0.25564
1745.53695	0.24492
1743.60818	0.23295
1741.67941	0.2194
1739.75064	0.20434
1737.82187	0.18834
1735.8931	0.17213
1733.96433	0.15621
1732.03556	0.14108
1730.10679	0.12733
1728.17802	0.11568
1726.24925	0.10671
1724.32048	0.10007
1722.39171	0.09486
1720.46294	0.09097
1718.53417	0.08891
1716.6054	0.08938
1714.67663	0.09291
1712.74786	0.0997
1710.81909	0.10966
1708.89032	0.12232
1706.96155	0.13678
1705.03278	0.15173
1703.10401	0.16611
1701.17524	0.17929
1699.24647	0.19082
1697.3177	0.20031
1695.38893	0.20746
1693.46016	0.21223
1691.53139	0.2148
1689.60262	0.21522
1687.67385	0.21332
1685.74508	0.209
1683.81631	0.20249
1681.88754	0.19422
1679.95877	0.18453
1678.03	0.17358
1676.10123	0.16195
1674.17246	0.1509
1672.24369	0.14142
1670.31492	0.13397
1668.38615	0.12861
1666.45738	0.1252
1664.52861	0.12335
1662.59984	0.12246
1660.67107	0.12195
1658.7423	0.1214
1656.81353	0.1209
1654.88476	0.12063
1652.95599	0.1205
1651.02722	0.12041
1649.09845	0.12031
1647.16968	0.12019
1645.24091	0.1201
1643.31214	0.12004
1641.38337	0.11979
1639.4546	0.11923
1637.52583	0.11842
1635.59705	0.11736
1633.66828	0.11592
1631.73951	0.11404
1629.81074	0.1119
1627.88197	0.10976
1625.9532	0.10762
1624.02443	0.10546
1622.09566	0.10341
1620.16689	0.10148
1618.23812	0.09948
1616.30935	0.0973
1614.38058	0.09494
1612.45181	0.09251
1610.52304	0.09016
1608.59427	0.08789
1606.6655	0.08562
1604.73673	0.08332
1602.80796	0.081
1600.87919	0.07862
1598.95042	0.07616
1597.02165	0.0738
1595.09288	0.07161
1593.16411	0.06946
1591.23534	0.06742
1589.30657	0.06582
1587.3778	0.06496
1585.44903	0.06511
1583.52026	0.06635
1581.59149	0.06856
1579.66272	0.07174
1577.73395	0.07586
1575.80518	0.08066
1573.87641	0.08584
1571.94764	0.09115
1570.01887	0.09641
1568.0901	0.10141
1566.16133	0.106
1564.23256	0.11008
1562.30379	0.11355
1560.37502	0.11638
1558.44625	0.11847
1556.51748	0.11964
1554.58871	0.11991
1552.65994	0.11945
1550.73117	0.11841
1548.8024	0.1168
1546.87363	0.11463
1544.94486	0.1122
1543.01609	0.10987
1541.08732	0.10773
1539.15855	0.10579
1537.22978	0.10405
1535.30101	0.10253
1533.37224	0.1013
1531.44347	0.10012
1529.5147	0.09878
1527.58593	0.09764
1525.65716	0.09692
1523.72839	0.09643
1521.79962	0.09583
1519.87085	0.09517
1517.94208	0.09512
1516.01331	0.09638
1514.08454	0.09916
1512.15577	0.10303
1510.227	0.10737
1508.29823	0.11181
1506.36946	0.11613
1504.44069	0.12038
1502.51192	0.12477
1500.58315	0.12931
1498.65438	0.13363
1496.72561	0.13729
1494.79684	0.14021
1492.86807	0.14274
1490.9393	0.145
1489.01053	0.14674
1487.08176	0.14788
1485.15299	0.14884
1483.22422	0.15015
1481.29545	0.15207
1479.36668	0.15456
1477.43791	0.15778
1475.50914	0.16192
1473.58037	0.1672
1471.6516	0.17385
1469.72283	0.18143
1467.79406	0.18901
1465.86529	0.19573
1463.93651	0.20109
1462.00774	0.20495
1460.07897	0.20743
1458.1502	0.20863
1456.22143	0.20854
1454.29266	0.20688
1452.36389	0.20339
1450.43512	0.19823
1448.50635	0.19198
1446.57758	0.18512
1444.64881	0.17771
1442.72004	0.16981
1440.79127	0.16196
1438.8625	0.15497
1436.93373	0.14917
1435.00496	0.14471
1433.07619	0.14196
1431.14742	0.14107
1429.21865	0.14167
1427.28988	0.14343
1425.36111	0.14615
1423.43234	0.14953
1421.50357	0.15318
1419.5748	0.15689
1417.64603	0.16074
1415.71726	0.16495
1413.78849	0.1694
1411.85972	0.17371
1409.93095	0.17751
1408.00218	0.18063
1406.07341	0.18311
1404.14464	0.18499
1402.21587	0.18625
1400.2871	0.18686
1398.35833	0.18685
1396.42956	0.18644
1394.50079	0.18618
1392.57202	0.18656
1390.64325	0.1877
1388.71448	0.18966
1386.78571	0.19251
1384.85694	0.19624
1382.92817	0.20059
1380.9994	0.20518
1379.07063	0.20959
1377.14186	0.21347
1375.21309	0.21672
1373.28432	0.21945
1371.35555	0.22175
1369.42678	0.22339
1367.49801	0.22381
1365.56924	0.22259
1363.64047	0.21974
1361.7117	0.21566
1359.78293	0.2108
1357.85416	0.20541
1355.92539	0.19972
1353.99662	0.19398
1352.06785	0.18856
1350.13908	0.1839
1348.21031	0.18039
1346.28154	0.17815
1344.35277	0.17718
1342.424	0.1774
1340.49523	0.1787
1338.56646	0.18086
1336.63769	0.18358
1334.70892	0.18656
1332.78015	0.18959
1330.85138	0.19253
1328.92261	0.1952
1326.99384	0.19741
1325.06507	0.19899
1323.1363	0.19983
1321.20753	0.19989
1319.27876	0.19925
1317.34999	0.19813
1315.42122	0.19683
1313.49245	0.19558
1311.56368	0.19439
1309.63491	0.19323
1307.70614	0.19213
1305.77737	0.19111
1303.8486	0.1902
1301.91983	0.18936
1299.99106	0.18852
1298.06229	0.18756
1296.13352	0.18633
1294.20475	0.18474
1292.27597	0.1827
1290.3472	0.18018
1288.41843	0.17711
1286.48966	0.17343
1284.56089	0.16905
1282.63212	0.16395
1280.70335	0.15823
1278.77458	0.15204
1276.84581	0.14572
1274.91704	0.13971
1272.98827	0.13457
1271.0595	0.13078
1269.13073	0.12856
1267.20196	0.12791
1265.27319	0.12878
1263.34442	0.13117
1261.41565	0.13492
1259.48688	0.13963
1257.55811	0.14486
1255.62934	0.15023
1253.70057	0.15539
1251.7718	0.16001
1249.84303	0.16379
1247.91426	0.1665
1245.98549	0.16796
1244.05672	0.16804
1242.12795	0.16668
1240.19918	0.16388
1238.27041	0.15973
1236.34164	0.1544
1234.41287	0.14821
1232.4841	0.14157
1230.55533	0.135
1228.62656	0.12905
1226.69779	0.12424
1224.76902	0.1209
1222.84025	0.1193
1220.91148	0.11962
1218.98271	0.12193
1217.05394	0.12595
1215.12517	0.13116
1213.1964	0.137
1211.26763	0.14313
1209.33886	0.14925
1207.41009	0.15505
1205.48132	0.16017
1203.55255	0.16424
1201.62378	0.16693
1199.69501	0.16804
1197.76624	0.16745
1195.83747	0.16518
1193.9087	0.16139
1191.97993	0.15641
1190.05116	0.15074
1188.12239	0.14504
1186.19362	0.14009
1184.26485	0.13689
1182.33608	0.13655
1180.40731	0.14029
1178.47854	0.14912
1176.54977	0.16366
1174.621	0.1839
1172.69223	0.2092
1170.76346	0.23852
1168.83469	0.27059
1166.90592	0.30405
1164.97715	0.3375
1163.04838	0.36958
1161.11961	0.39905
1159.19084	0.42486
1157.26207	0.4463
1155.3333	0.46298
1153.40453	0.47473
1151.47576	0.48157
1149.54699	0.48372
1147.61822	0.48171
1145.68945	0.47614
1143.76068	0.4677
1141.83191	0.45712
1139.90314	0.44548
1137.97437	0.43427
1136.0456	0.42519
1134.11683	0.41974
1132.18806	0.4188
1130.25929	0.42249
1128.33052	0.43029
1126.40175	0.4412
1124.47298	0.45407
1122.54421	0.46772
1120.61544	0.48114
1118.68666	0.49349
1116.75789	0.5042
1114.82912	0.51298
1112.90035	0.51993
1110.97158	0.52556
1109.04281	0.53054
1107.11404	0.53556
1105.18527	0.54135
1103.2565	0.54859
1101.32773	0.55759
1099.39896	0.56808
1097.47019	0.57926
1095.54142	0.59023
1093.61265	0.60034
1091.68388	0.60938
1089.75511	0.61761
1087.82634	0.62554
1085.89757	0.63328
1083.9688	0.64046
1082.04003	0.64673
1080.11126	0.65207
1078.18249	0.65658
1076.25372	0.66032
1074.32495	0.66339
1072.39618	0.66609
1070.46741	0.66893
1068.53864	0.67259
1066.60987	0.67802
1064.6811	0.6862
1062.75233	0.69796
1060.82356	0.7139
1058.89479	0.73425
1056.96602	0.7586
1055.03725	0.78582
1053.10848	0.81437
1051.17971	0.8428
1049.25094	0.87012
1047.32217	0.89571
1045.3934	0.91927
1043.46463	0.94076
1041.53586	0.95992
1039.60709	0.97598
1037.67832	0.98817
1035.74955	0.99616
1033.82078	1
1031.89201	0.99984
1029.96324	0.99599
1028.03447	0.98902
1026.1057	0.97965
1024.17693	0.96842
1022.24816	0.95564
1020.31939	0.94131
1018.39062	0.92517
1016.46185	0.9069
1014.53308	0.8863
1012.60431	0.86337
1010.67554	0.83824
1008.74677	0.81125
1006.818	0.78297
1004.88923	0.75424
1002.96046	0.72595
1001.03169	0.69851
999.10292	0.67185
997.17415	0.6455
995.24538	0.619
993.31661	0.59223
991.38784	0.56568
989.45907	0.5402
987.5303	0.51668
985.60153	0.49579
983.67276	0.47785
981.74399	0.46289
979.81522	0.45055
977.88645	0.44019
975.95768	0.43095
974.02891	0.42202
972.10014	0.41272
970.17137	0.40259
968.2426	0.39144
966.31383	0.37939
964.38506	0.36679
962.45629	0.35407
960.52752	0.34159
958.59875	0.32962
956.66998	0.31814
954.74121	0.30678
952.81244	0.29502
950.88367	0.28265
948.9549	0.26992
947.02612	0.25738
945.09735	0.24557
943.16858	0.23478
941.23981	0.22492
939.31104	0.21577
937.38227	0.20715
935.4535	0.19898
933.52473	0.19125
931.59596	0.18398
929.66719	0.1772
927.73842	0.17092
925.80965	0.16505
923.88088	0.1595
921.95211	0.15427
920.02334	0.1494
918.09457	0.1449
916.1658	0.14063
914.23703	0.13636
912.30826	0.1319
910.37949	0.12715
908.45072	0.1221
906.52195	0.11684
904.59318	0.11147
902.66441	0.10604
900.73564	0.1006
898.80687	0.09512
896.8781	0.08958
894.94933	0.08402
893.02056	0.07853
891.09179	0.07329
889.16302	0.06857
887.23425	0.0647
885.30548	0.06191
883.37671	0.06031
881.44794	0.05996
879.51917	0.06092
877.5904	0.06318
875.66163	0.06656
873.73286	0.07074
871.80409	0.07543
869.87532	0.08038
867.94655	0.08542
866.01778	0.09042
864.08901	0.09521
862.16024	0.09959
860.23147	0.10326
858.3027	0.10593
856.37393	0.10732
854.44516	0.10722
852.51639	0.1055
850.58762	0.10214
848.65885	0.09726
846.73008	0.09106
844.80131	0.08389
842.87254	0.07617
840.94377	0.06831
839.015	0.06056
837.08623	0.05308
835.15746	0.04607
833.22869	0.03964
831.29992	0.03382
829.37115	0.02852
827.44238	0.02368
825.51361	0.01932
823.58484	0.01553
821.65607	0.01242
819.7273	0.00999
817.79853	0.00815
815.86976	0.00675
813.94099	0.00567
812.01222	0.00485
810.08345	0.00434
808.15468	0.00416
806.22591	0.0043
804.29714	0.00473
802.36837	0.00539
800.4396	0.00626
798.51083	0.00733
796.58206	0.00859
794.65329	0.01006
792.72452	0.01183
790.79575	0.01397
788.86698	0.01651
786.93821	0.01946
785.00944	0.02287
783.08067	0.02686
781.1519	0.03145
779.22313	0.03662
777.29436	0.04227
775.36558	0.04824
773.43681	0.05436
771.50804	0.06045
769.57927	0.0664
767.6505	0.07206
765.72173	0.07728
763.79296	0.08187
761.86419	0.08567
759.93542	0.08854
758.00665	0.09044
756.07788	0.09143
754.14911	0.09156
752.22034	0.09088
750.29157	0.08947
748.3628	0.08754
746.43403	0.08546
744.50526	0.08331
742.57649	0.08116
740.64772	0.07915
738.71895	0.07738
736.79018	0.07603
734.86141	0.07518
732.93264	0.07487
731.00387	0.07514
729.0751	0.07605
727.14633	0.07767
725.21756	0.07998
723.28879	0.08286
721.36002	0.08613
719.43125	0.08967
717.50248	0.09355
715.57371	0.09787
713.64494	0.10253
711.71617	0.10717
709.7874	0.11142
707.85863	0.11498
705.92986	0.1177
704.00109	0.11957
702.07232	0.12064
700.14355	0.12092
698.21478	0.12029
696.28601	0.11885
694.35724	0.11657
692.42847	0.11308
690.4997	0.10909
688.57093	0.10561
686.64216	0.10203
684.71339	0.09847
682.78462	0.09524
680.85585	0.09256
678.92708	0.09051
676.99831	0.08918
675.06954	0.08862
673.14077	0.08893
671.212	0.09017
669.28323	0.09212
667.35446	0.09429
665.42569	0.09625
663.49692	0.09784
661.56815	0.09909
659.63938	0.10003
657.71061	0.10071
655.78184	0.10111
653.85307	0.10125
651.9243	0.10113
649.99553	0.10079
648.06676	0.10016
646.13799	0.09933
644.20922	0.09905
642.28045	0.09914
640.35168	0.09871
638.42291	0.09845
636.49414	0.09869
634.56537	0.09949
632.6366	0.10092
630.70783	0.10306
628.77906	0.10587
626.85029	0.10927
624.92152	0.11312
622.99275	0.11728
621.06398	0.12159
619.13521	0.12589
617.20644	0.13005
615.27767	0.13394
613.3489	0.1375
611.42013	0.14072
609.49136	0.14358
607.56259	0.14607
605.63382	0.14818
603.70505	0.14995
601.77627	0.15147
599.8475	0.15285
597.91873	0.1542
595.98996	0.1556
594.06119	0.15716
592.13242	0.15896
590.20365	0.16097
588.27488	0.16313
586.34611	0.16535
584.41734	0.16753
582.48857	0.16952
580.5598	0.17122
578.63103	0.17251
576.70226	0.17332
574.77349	0.17355
572.84472	0.17314
570.91595	0.17209
568.98718	0.17044
567.05841	0.16829
565.12964	0.16574
563.20087	0.16287
561.2721	0.15978
559.34333	0.1566
557.41456	0.15344
555.48579	0.15045
553.55702	0.14771
551.62825	0.14521
549.69948	0.14293
547.77071	0.14085
545.84194	0.13898
543.91317	0.13735
541.9844	0.13593
540.05563	0.13472
538.12686	0.13364
536.19809	0.13259
534.26932	0.13149
532.34055	0.13031
530.41178	0.12904
528.48301	0.12768
526.55424	0.12622
524.62547	0.12468
522.6967	0.12308
520.76793	0.12145
518.83916	0.11978
516.91039	0.11814
514.98162	0.1166
513.05285	0.11521
511.12408	0.11394
509.19531	0.11275
507.26654	0.11159
505.33777	0.11042
503.409	0.10923
501.48023	0.10803
499.55146	0.10681
497.62269	0.10558
495.69392	0.10427
493.76515	0.10278
491.83638	0.10101
489.90761	0.09897
487.97884	0.09674
486.05007	0.0944
484.1213	0.092
482.19253	0.0896
480.26376	0.08725
478.33499	0.08502
476.40622	0.08294
474.47745	0.08103
472.54868	0.07934
470.61991	0.07787
468.69114	0.0766
466.76237	0.07548
464.8336	0.07443
462.90483	0.0734
460.97606	0.07235
459.04729	0.07124
457.11852	0.07011
455.18975	0.06898
453.26098	0.06786
451.33221	0.06676
449.40344	0.06566
447.47467	0.06459
445.5459	0.06358
443.61713	0.06269
441.68836	0.06194
439.75959	0.06134
437.83082	0.06085
435.90205	0.0604
433.97328	0.05995
432.04451	0.05944
430.11573	0.05879
428.18696	0.05794
426.25819	0.05685
424.32942	0.0555
422.40065	0.05388
420.47188	0.05215
418.54311	0.05024
416.61434	0.04816
414.68557	0.04591
412.7568	0.04347
410.82803	0.04086
408.89926	0.03807
406.97049	0.03511
405.04172	0.03197
403.11295	0.02865
401.18418	0.02516
399.25541	0.02149