3996.41167	0.01595
3994.4829	0.01598
3992.55413	0.01601
3990.62536	0.01603
3988.69659	0.01606
3986.76782	0.01608
3984.83905	0.0161
3982.91028	0.01612
3980.98151	0.01614
3979.05274	0.01615
3977.12397	0.01617
3975.1952	0.01618
3973.26643	0.0162
3971.33766	0.01613
3969.40889	0.01613
3967.48012	0.01618
3965.55135	0.01627
3963.62258	0.01645
3961.69381	0.01671
3959.76504	0.01693
3957.83627	0.01699
3955.9075	0.01689
3953.97873	0.01675
3952.04996	0.01669
3950.12119	0.01668
3948.19242	0.01667
3946.26365	0.01666
3944.33488	0.01661
3942.40611	0.01638
3940.47734	0.01606
3938.54857	0.01593
3936.6198	0.01605
3934.69103	0.01624
3932.76226	0.01631
3930.83349	0.01612
3928.90472	0.0156
3926.97595	0.01484
3925.04718	0.01417
3923.11841	0.0139
3921.18964	0.01402
3919.26087	0.01446
3917.3321	0.01505
3915.40333	0.01555
3913.47456	0.01587
3911.54579	0.01607
3909.61702	0.01618
3907.68825	0.01626
3905.75948	0.01636
3903.83071	0.01649
3901.90194	0.01671
3899.97317	0.01705
3898.0444	0.01733
3896.11563	0.01741
3894.18686	0.01739
3892.25809	0.01742
3890.32932	0.01751
3888.40055	0.0175
3886.47178	0.01727
3884.54301	0.01682
3882.61424	0.01635
3880.68547	0.01614
3878.7567	0.0163
3876.82792	0.01656
3874.89915	0.01666
3872.97038	0.0167
3871.04161	0.01673
3869.11284	0.01669
3867.18407	0.01656
3865.2553	0.01633
3863.32653	0.01603
3861.39776	0.01572
3859.46899	0.0155
3857.54022	0.01543
3855.61145	0.01541
3853.68268	0.01531
3851.75391	0.015
3849.82514	0.01459
3847.89637	0.01423
3845.9676	0.014
3844.03883	0.01376
3842.11006	0.01344
3840.18129	0.0131
3838.25252	0.01283
3836.32375	0.01268
3834.39498	0.01259
3832.46621	0.01239
3830.53744	0.01197
3828.60867	0.01152
3826.6799	0.0113
3824.75113	0.01111
3822.82236	0.01076
3820.89359	0.01028
3818.96482	0.00978
3817.03605	0.00936
3815.10728	0.00904
3813.17851	0.00879
3811.24974	0.00865
3809.32097	0.00857
3807.3922	0.0085
3805.46343	0.00846
3803.53466	0.00848
3801.60589	0.00852
3799.67712	0.00849
3797.74835	0.00841
3795.81958	0.00843
3793.89081	0.00855
3791.96204	0.0087
3790.03327	0.00894
3788.1045	0.0093
3786.17573	0.00968
3784.24696	0.00993
3782.31819	0.01
3780.38942	0.00998
3778.46065	0.01002
3776.53188	0.01013
3774.60311	0.01016
3772.67434	0.00998
3770.74557	0.00975
3768.8168	0.00956
3766.88803	0.00947
3764.95926	0.00978
3763.03049	0.01053
3761.10172	0.0114
3759.17295	0.01216
3757.24418	0.013
3755.31541	0.01413
3753.38664	0.01549
3751.45787	0.01689
3749.5291	0.0183
3747.60033	0.01985
3745.67156	0.02172
3743.74279	0.02384
3741.81402	0.026
3739.88525	0.02799
3737.95648	0.02975
3736.02771	0.03123
3734.09894	0.03225
3732.17017	0.03285
3730.2414	0.03314
3728.31263	0.03312
3726.38386	0.03284
3724.45509	0.03236
3722.52632	0.03171
3720.59755	0.03119
3718.66878	0.03104
3716.74001	0.03106
3714.81124	0.03105
3712.88247	0.0311
3710.9537	0.03147
3709.02493	0.0323
3707.09616	0.0335
3705.16739	0.03506
3703.23861	0.03701
3701.30984	0.03931
3699.38107	0.04173
3697.4523	0.04422
3695.52353	0.04692
3693.59476	0.04974
3691.66599	0.0526
3689.73722	0.05544
3687.80845	0.0582
3685.87968	0.06105
3683.95091	0.06409
3682.02214	0.06711
3680.09337	0.06989
3678.1646	0.07245
3676.23583	0.07509
3674.30706	0.07776
3672.37829	0.0801
3670.44952	0.08219
3668.52075	0.08437
3666.59198	0.08667
3664.66321	0.08901
3662.73444	0.09145
3660.80567	0.09386
3658.8769	0.09599
3656.94813	0.09776
3655.01936	0.09924
3653.09059	0.1005
3651.16182	0.10182
3649.23305	0.10352
3647.30428	0.10558
3645.37551	0.10791
3643.44674	0.11035
3641.51797	0.11265
3639.5892	0.11484
3637.66043	0.11709
3635.73166	0.11946
3633.80289	0.12193
3631.87412	0.12446
3629.94535	0.12709
3628.01658	0.12987
3626.08781	0.13286
3624.15904	0.13632
3622.23027	0.1402
3620.3015	0.1441
3618.37273	0.14784
3616.44396	0.15157
3614.51519	0.15542
3612.58642	0.15925
3610.65765	0.16293
3608.72888	0.16663
3606.80011	0.17058
3604.87134	0.17494
3602.94257	0.17975
3601.0138	0.1846
3599.08503	0.18911
3597.15626	0.19313
3595.22749	0.19682
3593.29872	0.20045
3591.36995	0.20399
3589.44118	0.20749
3587.51241	0.21122
3585.58364	0.21536
3583.65487	0.21996
3581.7261	0.2249
3579.79733	0.22985
3577.86856	0.23459
3575.93979	0.23913
3574.01102	0.24362
3572.08225	0.24815
3570.15348	0.25273
3568.22471	0.25741
3566.29594	0.26232
3564.36717	0.2676
3562.4384	0.27326
3560.50963	0.279
3558.58086	0.28456
3556.65209	0.28994
3554.72332	0.2951
3552.79455	0.29992
3550.86578	0.30442
3548.93701	0.30877
3547.00824	0.31318
3545.07947	0.31779
3543.1507	0.3228
3541.22193	0.32827
3539.29316	0.33397
3537.36439	0.33968
3535.43562	0.34532
3533.50685	0.3508
3531.57807	0.35612
3529.6493	0.36142
3527.72053	0.36679
3525.79176	0.37234
3523.86299	0.37844
3521.93422	0.38556
3520.00545	0.39374
3518.07668	0.40255
3516.14791	0.41159
3514.21914	0.42072
3512.29037	0.42991
3510.3616	0.43903
3508.43283	0.4479
3506.50406	0.45637
3504.57529	0.46442
3502.64652	0.4722
3500.71775	0.47988
3498.78898	0.48734
3496.86021	0.49433
3494.93144	0.50073
3493.00267	0.50653
3491.0739	0.51178
3489.14513	0.51656
3487.21636	0.52095
3485.28759	0.52505
3483.35882	0.52904
3481.43005	0.53317
3479.50128	0.53773
3477.57251	0.54289
3475.64374	0.54856
3473.71497	0.55445
3471.7862	0.56037
3469.85743	0.56625
3467.92866	0.57214
3465.99989	0.57805
3464.07112	0.58393
3462.14235	0.58975
3460.21358	0.59547
3458.28481	0.60121
3456.35604	0.60714
3454.42727	0.61317
3452.4985	0.61918
3450.56973	0.62521
3448.64096	0.63136
3446.71219	0.63754
3444.78342	0.6437
3442.85465	0.64991
3440.92588	0.65616
3438.99711	0.6624
3437.06834	0.66863
3435.13957	0.67494
3433.2108	0.68122
3431.28203	0.6873
3429.35326	0.69311
3427.42449	0.69862
3425.49572	0.70381
3423.56695	0.70873
3421.63818	0.71338
3419.70941	0.71761
3417.78064	0.72124
3415.85187	0.72432
3413.9231	0.72702
3411.99433	0.72942
3410.06556	0.73141
3408.13679	0.73288
3406.20802	0.73391
3404.27925	0.73461
3402.35048	0.73498
3400.42171	0.73503
3398.49294	0.73491
3396.56417	0.73477
3394.6354	0.73464
3392.70663	0.73451
3390.77786	0.73452
3388.84909	0.73479
3386.92032	0.73527
3384.99155	0.73587
3383.06278	0.73662
3381.13401	0.73754
3379.20524	0.73862
3377.27647	0.73982
3375.3477	0.7411
3373.41893	0.74242
3371.49016	0.74371
3369.56139	0.74491
3367.63262	0.74597
3365.70385	0.74677
3363.77508	0.74712
3361.84631	0.747
3359.91753	0.74648
3357.98876	0.74561
3356.05999	0.74437
3354.13122	0.7427
3352.20245	0.7406
3350.27368	0.73805
3348.34491	0.73509
3346.41614	0.73179
3344.48737	0.72824
3342.5586	0.72446
3340.62983	0.72041
3338.70106	0.71619
3336.77229	0.71194
3334.84352	0.70774
3332.91475	0.70368
3330.98598	0.69989
3329.05721	0.69653
3327.12844	0.69366
3325.19967	0.6912
3323.2709	0.68912
3321.34213	0.68737
3319.41336	0.68586
3317.48459	0.68451
3315.55582	0.68329
3313.62705	0.68219
3311.69828	0.68112
3309.76951	0.67996
3307.84074	0.67865
3305.91197	0.67716
3303.9832	0.67548
3302.05443	0.67362
3300.12566	0.67162
3298.19689	0.66946
3296.26812	0.66714
3294.33935	0.66471
3292.41058	0.6622
3290.48181	0.65965
3288.55304	0.65704
3286.62427	0.65443
3284.6955	0.65191
3282.76673	0.64946
3280.83796	0.64692
3278.90919	0.64423
3276.98042	0.64135
3275.05165	0.63814
3273.12288	0.63447
3271.19411	0.63028
3269.26534	0.62561
3267.33657	0.62045
3265.4078	0.61487
3263.47903	0.60888
3261.55026	0.60248
3259.62149	0.59569
3257.69272	0.58863
3255.76395	0.58141
3253.83518	0.5741
3251.90641	0.5668
3249.97764	0.55953
3248.04887	0.55231
3246.1201	0.54517
3244.19133	0.53811
3242.26256	0.53123
3240.33379	0.52471
3238.40502	0.51866
3236.47625	0.5131
3234.54748	0.50802
3232.61871	0.50341
3230.68994	0.49921
3228.76117	0.49527
3226.8324	0.49146
3224.90363	0.48773
3222.97486	0.48409
3221.04609	0.4805
3219.11732	0.47694
3217.18855	0.47337
3215.25978	0.46975
3213.33101	0.46607
3211.40224	0.46231
3209.47347	0.45836
3207.5447	0.45415
3205.61593	0.44964
3203.68716	0.4448
3201.75839	0.43964
3199.82962	0.43423
3197.90085	0.42861
3195.97208	0.4229
3194.04331	0.41718
3192.11454	0.41144
3190.18577	0.40566
3188.257	0.3998
3186.32822	0.39382
3184.39945	0.38771
3182.47068	0.38149
3180.54191	0.37518
3178.61314	0.36887
3176.68437	0.36267
3174.7556	0.35669
3172.82683	0.351
3170.89806	0.34564
3168.96929	0.34053
3167.04052	0.33564
3165.11175	0.33092
3163.18298	0.32636
3161.25421	0.32197
3159.32544	0.31778
3157.39667	0.31375
3155.4679	0.30981
3153.53913	0.30593
3151.61036	0.3021
3149.68159	0.29831
3147.75282	0.29451
3145.82405	0.29067
3143.89528	0.28684
3141.96651	0.28306
3140.03774	0.27936
3138.10897	0.27574
3136.1802	0.27222
3134.25143	0.26874
3132.32266	0.2653
3130.39389	0.26192
3128.46512	0.25861
3126.53635	0.25524
3124.60758	0.25174
3122.67881	0.24813
3120.75004	0.24452
3118.82127	0.24093
3116.8925	0.23731
3114.96373	0.23367
3113.03496	0.23003
3111.10619	0.2264
3109.17742	0.22278
3107.24865	0.21923
3105.31988	0.2158
3103.39111	0.21251
3101.46234	0.20937
3099.53357	0.20647
3097.6048	0.20384
3095.67603	0.20149
3093.74726	0.19932
3091.81849	0.1973
3089.88972	0.19542
3087.96095	0.1937
3086.03218	0.19216
3084.10341	0.19078
3082.17464	0.18945
3080.24587	0.18811
3078.3171	0.18684
3076.38833	0.18573
3074.45956	0.18478
3072.53079	0.18395
3070.60202	0.18319
3068.67325	0.1825
3066.74448	0.18193
3064.81571	0.18153
3062.88694	0.18128
3060.95817	0.18116
3059.0294	0.18113
3057.10063	0.18119
3055.17186	0.18134
3053.24309	0.18155
3051.31432	0.18176
3049.38555	0.1819
3047.45678	0.182
3045.52801	0.18216
3043.59924	0.18247
3041.67047	0.18293
3039.7417	0.1835
3037.81293	0.18418
3035.88416	0.18507
3033.95539	0.1863
3032.02662	0.188
3030.09785	0.1902
3028.16908	0.19291
3026.24031	0.19618
3024.31154	0.20005
3022.38277	0.20463
3020.454	0.20996
3018.52523	0.21606
3016.59646	0.2228
3014.66768	0.22987
3012.73891	0.23727
3010.81014	0.24541
3008.88137	0.25448
3006.9526	0.26425
3005.02383	0.27431
3003.09506	0.28436
3001.16629	0.2943
2999.23752	0.304
2997.30875	0.31333
2995.37998	0.32225
2993.45121	0.33085
2991.52244	0.33918
2989.59367	0.34714
2987.6649	0.35456
2985.73613	0.36113
2983.80736	0.36664
2981.87859	0.371
2979.94982	0.37426
2978.02105	0.3765
2976.09228	0.37787
2974.16351	0.37854
2972.23474	0.3787
2970.30597	0.3785
2968.3772	0.37829
2966.44843	0.37881
2964.51966	0.38068
2962.59089	0.38392
2960.66212	0.38831
2958.73335	0.39379
2956.80458	0.40035
2954.87581	0.40787
2952.94704	0.41619
2951.01827	0.42517
2949.0895	0.43466
2947.16073	0.44443
2945.23196	0.4541
2943.30319	0.46325
2941.37442	0.47141
2939.44565	0.47817
2937.51688	0.48326
2935.58811	0.48656
2933.65934	0.48813
2931.73057	0.48806
2929.8018	0.48643
2927.87303	0.48329
2925.94426	0.47887
2924.01549	0.47372
2922.08672	0.46862
2920.15795	0.46394
2918.22918	0.45968
2916.30041	0.4558
2914.37164	0.45224
2912.44287	0.44884
2910.5141	0.44534
2908.58533	0.44156
2906.65656	0.43749
2904.72779	0.43317
2902.79902	0.42857
2900.87025	0.42363
2898.94148	0.41823
2897.01271	0.41225
2895.08394	0.40558
2893.15517	0.39816
2891.2264	0.38996
2889.29763	0.38107
2887.36886	0.3716
2885.44009	0.36155
2883.51132	0.35097
2881.58255	0.34003
2879.65378	0.32908
2877.72501	0.3185
2875.79624	0.30838
2873.86747	0.29848
2871.9387	0.28869
2870.00993	0.27923
2868.08116	0.27024
2866.15239	0.26174
2864.22362	0.2538
2862.29485	0.24666
2860.36608	0.24058
2858.43731	0.23561
2856.50854	0.23165
2854.57977	0.22854
2852.651	0.22612
2850.72223	0.2242
2848.79346	0.22266
2846.86469	0.22135
2844.93592	0.22018
2843.00714	0.21903
2841.07837	0.21781
2839.1496	0.21636
2837.22083	0.21456
2835.29206	0.21232
2833.36329	0.20963
2831.43452	0.2065
2829.50575	0.20292
2827.57698	0.19884
2825.64821	0.19425
2823.71944	0.18918
2821.79067	0.18371
2819.8619	0.17795
2817.93313	0.17211
2816.00436	0.16637
2814.07559	0.16079
2812.14682	0.15538
2810.21805	0.15016
2808.28928	0.14511
2806.36051	0.14016
2804.43174	0.1353
2802.50297	0.13059
2800.5742	0.12614
2798.64543	0.12202
2796.71666	0.11834
2794.78789	0.11512
2792.85912	0.11232
2790.93035	0.10991
2789.00158	0.10788
2787.07281	0.10624
2785.14404	0.1049
2783.21527	0.10372
2781.2865	0.10257
2779.35773	0.10143
2777.42896	0.10027
2775.50019	0.09914
2773.57142	0.09806
2771.64265	0.09705
2769.71388	0.09614
2767.78511	0.09536
2765.85634	0.0947
2763.92757	0.09407
2761.9988	0.09338
2760.07003	0.09265
2758.14126	0.09193
2756.21249	0.09123
2754.28372	0.09052
2752.35495	0.08982
2750.42618	0.08915
2748.49741	0.0885
2746.56864	0.08786
2744.63987	0.08722
2742.7111	0.08658
2740.78233	0.08594
2738.85356	0.08527
2736.92479	0.08455
2734.99602	0.0838
2733.06725	0.08305
2731.13848	0.08229
2729.20971	0.08153
2727.28094	0.08076
2725.35217	0.08004
2723.4234	0.07935
2721.49463	0.07865
2719.56586	0.07791
2717.63709	0.07714
2715.70832	0.07635
2713.77955	0.07559
2711.85078	0.07486
2709.92201	0.07412
2707.99324	0.07332
2706.06447	0.0725
2704.1357	0.0717
2702.20693	0.07102
2700.27816	0.07045
2698.34939	0.06995
2696.42062	0.06949
2694.49185	0.06906
2692.56308	0.06865
2690.63431	0.06822
2688.70554	0.06779
2686.77677	0.06735
2684.848	0.0669
2682.91923	0.06646
2680.99046	0.06602
2679.06169	0.06553
2677.13292	0.065
2675.20415	0.06444
2673.27538	0.06384
2671.34661	0.06319
2669.41783	0.06254
2667.48906	0.0619
2665.56029	0.06125
2663.63152	0.06054
2661.70275	0.05979
2659.77398	0.05907
2657.84521	0.05844
2655.91644	0.0579
2653.98767	0.05742
2652.0589	0.05694
2650.13013	0.05644
2648.20136	0.05594
2646.27259	0.05546
2644.34382	0.05499
2642.41505	0.05453
2640.48628	0.05409
2638.55751	0.05367
2636.62874	0.05325
2634.69997	0.05278
2632.7712	0.05224
2630.84243	0.05162
2628.91366	0.05096
2626.98489	0.05029
2625.05612	0.04964
2623.12735	0.04902
2621.19858	0.04839
2619.26981	0.04774
2617.34104	0.04711
2615.41227	0.04651
2613.4835	0.04596
2611.55473	0.04546
2609.62596	0.04499
2607.69719	0.0445
2605.76842	0.044
2603.83965	0.04355
2601.91088	0.04318
2599.98211	0.04288
2598.05334	0.04263
2596.12457	0.04241
2594.1958	0.04219
2592.26703	0.04197
2590.33826	0.04175
2588.40949	0.04151
2586.48072	0.04128
2584.55195	0.04108
2582.62318	0.04091
2580.69441	0.04078
2578.76564	0.04066
2576.83687	0.04056
2574.9081	0.04048
2572.97933	0.04042
2571.05056	0.04033
2569.12179	0.0402
2567.19302	0.04007
2565.26425	0.03995
2563.33548	0.03979
2561.40671	0.03957
2559.47794	0.0393
2557.54917	0.03904
2555.6204	0.03877
2553.69163	0.03847
2551.76286	0.03817
2549.83409	0.03786
2547.90532	0.03753
2545.97655	0.0372
2544.04778	0.03691
2542.11901	0.03667
2540.19024	0.03652
2538.26147	0.03642
2536.3327	0.03634
2534.40393	0.0363
2532.47516	0.03631
2530.54639	0.03635
2528.61762	0.03637
2526.68885	0.03633
2524.76008	0.03623
2522.83131	0.03609
2520.90254	0.03595
2518.97377	0.03579
2517.045	0.03558
2515.11623	0.0353
2513.18746	0.03499
2511.25869	0.03467
2509.32992	0.03437
2507.40115	0.03406
2505.47238	0.03372
2503.54361	0.03337
2501.61484	0.03304
2499.68607	0.03279
2497.75729	0.0326
2495.82852	0.03244
2493.89975	0.03232
2491.97098	0.03224
2490.04221	0.03217
2488.11344	0.03212
2486.18467	0.0321
2484.2559	0.03209
2482.32713	0.03208
2480.39836	0.03207
2478.46959	0.03206
2476.54082	0.03205
2474.61205	0.03204
2472.68328	0.03202
2470.75451	0.03196
2468.82574	0.03187
2466.89697	0.03174
2464.9682	0.03161
2463.03943	0.03144
2461.11066	0.03123
2459.18189	0.03097
2457.25312	0.03069
2455.32435	0.03041
2453.39558	0.03012
2451.46681	0.02978
2449.53804	0.02942
2447.60927	0.02908
2445.6805	0.02874
2443.75173	0.02842
2441.82296	0.02813
2439.89419	0.0279
2437.96542	0.02771
2436.03665	0.02756
2434.10788	0.02744
2432.17911	0.02735
2430.25034	0.02729
2428.32157	0.02725
2426.3928	0.02722
2424.46403	0.0272
2422.53526	0.0272
2420.60649	0.02721
2418.67772	0.02723
2416.74895	0.02725
2414.82018	0.02727
2412.89141	0.02729
2410.96264	0.02729
2409.03387	0.02729
2407.1051	0.02729
2405.17633	0.02729
2403.24756	0.02729
2401.31879	0.02729
2399.39002	0.02729
2397.46125	0.02729
2395.53248	0.02729
2393.60371	0.02729
2391.67494	0.02729
2389.74617	0.02729
2387.8174	0.02729
2385.88863	0.02729
2383.95986	0.02729
2382.03109	0.02729
2380.10232	0.02729
2378.17355	0.02729
2376.24478	0.02729
2374.31601	0.02729
2372.38724	0.02729
2370.45847	0.02729
2368.5297	0.02729
2366.60093	0.02729
2364.67216	0.02729
2362.74339	0.02729
2360.81462	0.02729
2358.88585	0.02729
2356.95708	0.02729
2355.02831	0.02729
2353.09954	0.02729
2351.17077	0.02729
2349.242	0.02729
2347.31323	0.02729
2345.38446	0.02729
2343.45569	0.02729
2341.52692	0.02729
2339.59815	0.02729
2337.66938	0.02729
2335.74061	0.02729
2333.81184	0.02729
2331.88307	0.02729
2329.9543	0.02729
2328.02553	0.02729
2326.09675	0.02729
2324.16798	0.02729
2322.23921	0.02729
2320.31044	0.02729
2318.38167	0.02729
2316.4529	0.02729
2314.52413	0.02729
2312.59536	0.02729
2310.66659	0.02729
2308.73782	0.02729
2306.80905	0.02729
2304.88028	0.02729
2302.95151	0.02729
2301.02274	0.02729
2299.09397	0.02729
2297.1652	0.02729
2295.23643	0.02729
2293.30766	0.02729
2291.37889	0.02729
2289.45012	0.02729
2287.52135	0.02729
2285.59258	0.02729
2283.66381	0.02729
2281.73504	0.02729
2279.80627	0.02729
2277.8775	0.02729
2275.94873	0.02729
2274.01996	0.02729
2272.09119	0.02729
2270.16242	0.02729
2268.23365	0.02729
2266.30488	0.02729
2264.37611	0.02729
2262.44734	0.02729
2260.51857	0.02729
2258.5898	0.02729
2256.66103	0.02729
2254.73226	0.02729
2252.80349	0.02729
2250.87472	0.02729
2248.94595	0.02729
2247.01718	0.02729
2245.08841	0.02729
2243.15964	0.02729
2241.23087	0.02729
2239.3021	0.02729
2237.37333	0.02729
2235.44456	0.02729
2233.51579	0.02729
2231.58702	0.02729
2229.65825	0.02729
2227.72948	0.02729
2225.80071	0.02729
2223.87194	0.02729
2221.94317	0.02729
2220.0144	0.02729
2218.08563	0.02729
2216.15686	0.02729
2214.22809	0.02729
2212.29932	0.02729
2210.37055	0.02729
2208.44178	0.02729
2206.51301	0.02729
2204.58424	0.02729
2202.65547	0.02729
2200.7267	0.02729
2198.79793	0.02729
2196.86916	0.02729
2194.94039	0.02729
2193.01162	0.02729
2191.08285	0.02729
2189.15408	0.02729
2187.22531	0.02729
2185.29654	0.02729
2183.36777	0.02729
2181.439	0.02729
2179.51023	0.02729
2177.58146	0.02729
2175.65269	0.02729
2173.72392	0.02729
2171.79515	0.02729
2169.86638	0.02729
2167.93761	0.02729
2166.00884	0.02729
2164.08007	0.02729
2162.1513	0.02729
2160.22253	0.02729
2158.29376	0.02729
2156.36499	0.02729
2154.43622	0.02729
2152.50744	0.02729
2150.57867	0.02729
2148.6499	0.02729
2146.72113	0.02729
2144.79236	0.02729
2142.86359	0.02729
2140.93482	0.02725
2139.00605	0.02724
2137.07728	0.02728
2135.14851	0.02733
2133.21974	0.02736
2131.29097	0.02741
2129.3622	0.02745
2127.43343	0.02747
2125.50466	0.02746
2123.57589	0.02742
2121.64712	0.02734
2119.71835	0.02725
2117.78958	0.02715
2115.86081	0.02704
2113.93204	0.02687
2112.00327	0.02668
2110.0745	0.02652
2108.14573	0.02641
2106.21696	0.0263
2104.28819	0.02619
2102.35942	0.02605
2100.43065	0.02588
2098.50188	0.02569
2096.57311	0.02553
2094.64434	0.02539
2092.71557	0.02532
2090.7868	0.02526
2088.85803	0.02517
2086.92926	0.02507
2085.00049	0.02501
2083.07172	0.02494
2081.14295	0.02483
2079.21418	0.02469
2077.28541	0.0245
2075.35664	0.02426
2073.42787	0.02401
2071.4991	0.02377
2069.57033	0.0235
2067.64156	0.02317
2065.71279	0.02277
2063.78402	0.02237
2061.85525	0.02204
2059.92648	0.02175
2057.99771	0.02143
2056.06894	0.02097
2054.14017	0.02036
2052.2114	0.01965
2050.28263	0.01891
2048.35386	0.01813
2046.42509	0.01727
2044.49632	0.01636
2042.56755	0.01546
2040.63878	0.01462
2038.71001	0.01384
2036.78124	0.01304
2034.85247	0.01219
2032.9237	0.01129
2030.99493	0.01036
2029.06616	0.00944
2027.13739	0.00858
2025.20862	0.0078
2023.27985	0.00712
2021.35108	0.00655
2019.42231	0.00611
2017.49354	0.00587
2015.56477	0.00584
2013.636	0.00589
2011.70723	0.00595
2009.77846	0.00599
2007.84969	0.00607
2005.92092	0.00634
2003.99215	0.00685
2002.06338	0.00749
2000.13461	0.00809
1998.20584	0.0086
1996.27707	0.00904
1994.3483	0.00938
1992.41953	0.00957
1990.49076	0.00962
1988.56199	0.00958
1986.63322	0.00952
1984.70445	0.00941
1982.77568	0.00923
1980.8469	0.00902
1978.91813	0.00886
1976.98936	0.00877
1975.06059	0.00878
1973.13182	0.00888
1971.20305	0.00906
1969.27428	0.00936
1967.34551	0.00978
1965.41674	0.01034
1963.48797	0.01099
1961.5592	0.01173
1959.63043	0.01254
1957.70166	0.01336
1955.77289	0.01404
1953.84412	0.01452
1951.91535	0.01487
1949.98658	0.01517
1948.05781	0.01541
1946.12904	0.01561
1944.20027	0.01586
1942.2715	0.01615
1940.34273	0.01641
1938.41396	0.01659
1936.48519	0.01671
1934.55642	0.01682
1932.62765	0.01696
1930.69888	0.01715
1928.77011	0.01739
1926.84134	0.01762
1924.91257	0.01779
1922.9838	0.0179
1921.05503	0.01796
1919.12626	0.01793
1917.19749	0.01782
1915.26872	0.01765
1913.33995	0.01742
1911.41118	0.01712
1909.48241	0.0168
1907.55364	0.01648
1905.62487	0.01619
1903.6961	0.01592
1901.76733	0.01569
1899.83856	0.0155
1897.90979	0.01539
1895.98102	0.01533
1894.05225	0.01527
1892.12348	0.01522
1890.19471	0.01519
1888.26594	0.01517
1886.33717	0.01521
1884.4084	0.01528
1882.47963	0.01534
1880.55086	0.01535
1878.62209	0.01534
1876.69332	0.01534
1874.76455	0.0153
1872.83578	0.01522
1870.90701	0.01513
1868.97824	0.01502
1867.04947	0.01489
1865.1207	0.01478
1863.19193	0.01476
1861.26316	0.01481
1859.33439	0.01488
1857.40562	0.01496
1855.47685	0.01509
1853.54808	0.01527
1851.61931	0.01546
1849.69054	0.01564
1847.76177	0.01582
1845.833	0.01605
1843.90423	0.01638
1841.97546	0.01681
1840.04669	0.01732
1838.11792	0.01788
1836.18915	0.01851
1834.26038	0.01919
1832.33161	0.01996
1830.40284	0.02094
1828.47407	0.02228
1826.5453	0.02407
1824.61653	0.02637
1822.68776	0.02942
1820.75899	0.03359
1818.83022	0.03922
1816.90145	0.04623
1814.97268	0.05449
1813.04391	0.06437
1811.11514	0.07631
1809.18636	0.09022
1807.25759	0.10581
1805.32882	0.12315
1803.40005	0.14265
1801.47128	0.1649
1799.54251	0.19017
1797.61374	0.21787
1795.68497	0.24679
1793.7562	0.27591
1791.82743	0.30464
1789.89866	0.33223
1787.96989	0.35766
1786.04112	0.38001
1784.11235	0.3986
1782.18358	0.4129
1780.25481	0.42255
1778.32604	0.42756
1776.39727	0.42825
1774.4685	0.4251
1772.53973	0.4191
1770.61096	0.41188
1768.68219	0.40478
1766.75342	0.39841
1764.82465	0.39255
1762.89588	0.38679
1760.96711	0.38136
1759.03834	0.37694
1757.10957	0.37403
1755.1808	0.37291
1753.25203	0.3734
1751.32326	0.37469
1749.39449	0.37616
1747.46572	0.37774
1745.53695	0.37946
1743.60818	0.3808
1741.67941	0.3807
1739.75064	0.37852
1737.82187	0.37521
1735.8931	0.37229
1733.96433	0.37082
1732.03556	0.37162
1730.10679	0.37532
1728.17802	0.38217
1726.24925	0.39196
1724.32048	0.40394
1722.39171	0.41627
1720.46294	0.42674
1718.53417	0.434
1716.6054	0.43765
1714.67663	0.43767
1712.74786	0.43418
1710.81909	0.42749
1708.89032	0.418
1706.96155	0.40594
1705.03278	0.39179
1703.10401	0.37634
1701.17524	0.36018
1699.24647	0.34368
1697.3177	0.32708
1695.38893	0.31078
1693.46016	0.29587
1691.53139	0.28404
1689.60262	0.27621
1687.67385	0.27212
1685.74508	0.27116
1683.81631	0.27291
1681.88754	0.27698
1679.95877	0.2827
1678.03	0.28963
1676.10123	0.29734
1674.17246	0.30521
1672.24369	0.31301
1670.31492	0.32064
1668.38615	0.32747
1666.45738	0.33275
1664.52861	0.33617
1662.59984	0.3376
1660.67107	0.33702
1658.7423	0.33469
1656.81353	0.33071
1654.88476	0.32495
1652.95599	0.3173
1651.02722	0.30781
1649.09845	0.29678
1647.16968	0.28458
1645.24091	0.2717
1643.31214	0.25854
1641.38337	0.24516
1639.4546	0.23188
1637.52583	0.21998
1635.59705	0.21067
1633.66828	0.20432
1631.73951	0.20086
1629.81074	0.19988
1627.88197	0.20054
1625.9532	0.20197
1624.02443	0.20337
1622.09566	0.20393
1620.16689	0.2034
1618.23812	0.20189
1616.30935	0.19944
1614.38058	0.19599
1612.45181	0.19156
1610.52304	0.18636
1608.59427	0.18054
1606.6655	0.1741
1604.73673	0.16714
1602.80796	0.15986
1600.87919	0.15228
1598.95042	0.14415
1597.02165	0.1354
1595.09288	0.12625
1593.16411	0.11721
1591.23534	0.10909
1589.30657	0.10242
1587.3778	0.09726
1585.44903	0.09343
1583.52026	0.09054
1581.59149	0.08816
1579.66272	0.08635
1577.73395	0.08538
1575.80518	0.08534
1573.87641	0.08612
1571.94764	0.08762
1570.01887	0.08974
1568.0901	0.09234
1566.16133	0.09519
1564.23256	0.0979
1562.30379	0.10031
1560.37502	0.10304
1558.44625	0.1064
1556.51748	0.11024
1554.58871	0.11449
1552.65994	0.11933
1550.73117	0.12489
1548.8024	0.13113
1546.87363	0.13791
1544.94486	0.14508
1543.01609	0.15241
1541.08732	0.15948
1539.15855	0.16592
1537.22978	0.1713
1535.30101	0.17535
1533.37224	0.17817
1531.44347	0.1797
1529.5147	0.17963
1527.58593	0.17757
1525.65716	0.1734
1523.72839	0.16725
1521.79962	0.15921
1519.87085	0.14939
1517.94208	0.13816
1516.01331	0.12632
1514.08454	0.11459
1512.15577	0.10285
1510.227	0.09134
1508.29823	0.08103
1506.36946	0.07276
1504.44069	0.06692
1502.51192	0.06356
1500.58315	0.06237
1498.65438	0.06274
1496.72561	0.06397
1494.79684	0.06579
1492.86807	0.06843
1490.9393	0.072
1489.01053	0.0764
1487.08176	0.08158
1485.15299	0.08759
1483.22422	0.09418
1481.29545	0.1008
1479.36668	0.10714
1477.43791	0.11339
1475.50914	0.11963
1473.58037	0.12576
1471.6516	0.13171
1469.72283	0.13741
1467.79406	0.1427
1465.86529	0.14762
1463.93651	0.15253
1462.00774	0.15767
1460.07897	0.16288
1458.1502	0.1678
1456.22143	0.17197
1454.29266	0.17491
1452.36389	0.1763
1450.43512	0.17623
1448.50635	0.1751
1446.57758	0.17334
1444.64881	0.1713
1442.72004	0.1694
1440.79127	0.1683
1438.8625	0.16867
1436.93373	0.17045
1435.00496	0.17327
1433.07619	0.17722
1431.14742	0.18279
1429.21865	0.19008
1427.28988	0.199
1425.36111	0.20935
1423.43234	0.22068
1421.50357	0.23233
1419.5748	0.24374
1417.64603	0.25465
1415.71726	0.26498
1413.78849	0.27456
1411.85972	0.28314
1409.93095	0.29065
1408.00218	0.29722
1406.07341	0.3029
1404.14464	0.30753
1402.21587	0.3109
1400.2871	0.31302
1398.35833	0.31427
1396.42956	0.31524
1394.50079	0.31657
1392.57202	0.31836
1390.64325	0.31996
1388.71448	0.32078
1386.78571	0.32069
1384.85694	0.31976
1382.92817	0.31787
1380.9994	0.31475
1379.07063	0.31008
1377.14186	0.30362
1375.21309	0.29539
1373.28432	0.28579
1371.35555	0.27532
1369.42678	0.26442
1367.49801	0.25329
1365.56924	0.24213
1363.64047	0.23136
1361.7117	0.22172
1359.78293	0.21426
1357.85416	0.20987
1355.92539	0.20908
1353.99662	0.21222
1352.06785	0.21948
1350.13908	0.23079
1348.21031	0.24555
1346.28154	0.26255
1344.35277	0.28042
1342.424	0.29801
1340.49523	0.31439
1338.56646	0.32871
1336.63769	0.34011
1334.70892	0.348
1332.78015	0.35215
1330.85138	0.35265
1328.92261	0.34992
1326.99384	0.34452
1325.06507	0.337
1323.1363	0.32787
1321.20753	0.31754
1319.27876	0.30652
1317.34999	0.29551
1315.42122	0.28554
1313.49245	0.27742
1311.56368	0.27107
1309.63491	0.26594
1307.70614	0.26147
1305.77737	0.25716
1303.8486	0.25257
1301.91983	0.24728
1299.99106	0.24092
1298.06229	0.23322
1296.13352	0.2241
1294.20475	0.21376
1292.27597	0.20274
1290.3472	0.19172
1288.41843	0.18141
1286.48966	0.17246
1284.56089	0.16547
1282.63212	0.16089
1280.70335	0.15886
1278.77458	0.15916
1276.84581	0.16145
1274.91704	0.16548
1272.98827	0.17099
1271.0595	0.17769
1269.13073	0.18509
1267.20196	0.19269
1265.27319	0.20014
1263.34442	0.20721
1261.41565	0.21361
1259.48688	0.21897
1257.55811	0.22309
1255.62934	0.22592
1253.70057	0.2275
1251.7718	0.22801
1249.84303	0.22769
1247.91426	0.22695
1245.98549	0.22643
1244.05672	0.22686
1242.12795	0.22862
1240.19918	0.23159
1238.27041	0.23533
1236.34164	0.23936
1234.41287	0.24332
1232.4841	0.24703
1230.55533	0.25048
1228.62656	0.25374
1226.69779	0.25676
1224.76902	0.25939
1222.84025	0.26132
1220.91148	0.26228
1218.98271	0.26213
1217.05394	0.26079
1215.12517	0.25818
1213.1964	0.25435
1211.26763	0.24937
1209.33886	0.24325
1207.41009	0.2359
1205.48132	0.22724
1203.55255	0.21734
1201.62378	0.20651
1199.69501	0.19534
1197.76624	0.1844
1195.83747	0.17401
1193.9087	0.16423
1191.97993	0.15512
1190.05116	0.14676
1188.12239	0.13935
1186.19362	0.13322
1184.26485	0.12892
1182.33608	0.1273
1180.40731	0.12937
1178.47854	0.13624
1176.54977	0.14867
1174.621	0.16689
1172.69223	0.19054
1170.76346	0.21868
1168.83469	0.24989
1166.90592	0.2824
1164.97715	0.31436
1163.04838	0.3441
1161.11961	0.3702
1159.19084	0.39161
1157.26207	0.40762
1155.3333	0.41787
1153.40453	0.4224
1151.47576	0.42152
1149.54699	0.41565
1147.61822	0.40516
1145.68945	0.39045
1143.76068	0.37222
1141.83191	0.35157
1139.90314	0.32995
1137.97437	0.309
1136.0456	0.29041
1134.11683	0.27572
1132.18806	0.26609
1130.25929	0.26203
1128.33052	0.26335
1126.40175	0.2695
1124.47298	0.27982
1122.54421	0.29361
1120.61544	0.30997
1118.68666	0.3279
1116.75789	0.34645
1114.82912	0.36477
1112.90035	0.38226
1110.97158	0.39862
1109.04281	0.41389
1107.11404	0.42838
1105.18527	0.4427
1103.2565	0.45758
1101.32773	0.47373
1099.39896	0.49158
1097.47019	0.51118
1095.54142	0.53209
1093.61265	0.55334
1091.68388	0.5737
1089.75511	0.59229
1087.82634	0.60891
1085.89757	0.62382
1083.9688	0.63739
1082.04003	0.65028
1080.11126	0.6634
1078.18249	0.67751
1076.25372	0.6927
1074.32495	0.70834
1072.39618	0.72342
1070.46741	0.73711
1068.53864	0.74938
1066.60987	0.76127
1064.6811	0.77434
1062.75233	0.78988
1060.82356	0.80865
1058.89479	0.83079
1056.96602	0.85571
1055.03725	0.88221
1053.10848	0.90876
1051.17971	0.93385
1049.25094	0.9562
1047.32217	0.97459
1045.3934	0.98809
1043.46463	0.99646
1041.53586	1
1039.60709	0.99916
1037.67832	0.99467
1035.74955	0.98773
1033.82078	0.97967
1031.89201	0.97129
1029.96324	0.96273
1028.03447	0.95378
1026.1057	0.94413
1024.17693	0.93381
1022.24816	0.92317
1020.31939	0.91253
1018.39062	0.90165
1016.46185	0.8897
1014.53308	0.87561
1012.60431	0.85845
1010.67554	0.83773
1008.74677	0.81341
1006.818	0.78582
1004.88923	0.75542
1002.96046	0.72251
1001.03169	0.68709
999.10292	0.64909
997.17415	0.60875
995.24538	0.56671
993.31661	0.52396
991.38784	0.4818
989.45907	0.44157
987.5303	0.40421
985.60153	0.37018
983.67276	0.33962
981.74399	0.31258
979.81522	0.28887
977.88645	0.26806
975.95768	0.24971
974.02891	0.23368
972.10014	0.22018
970.17137	0.20958
968.2426	0.20218
966.31383	0.19822
964.38506	0.19778
962.45629	0.20072
960.52752	0.20657
958.59875	0.21459
956.66998	0.22384
954.74121	0.23333
952.81244	0.24219
950.88367	0.24966
948.9549	0.25516
947.02612	0.25837
945.09735	0.25927
943.16858	0.25794
941.23981	0.2544
939.31104	0.24856
937.38227	0.24043
935.4535	0.23014
933.52473	0.21781
931.59596	0.20361
929.66719	0.18793
927.73842	0.17145
925.80965	0.15494
923.88088	0.13896
921.95211	0.12384
920.02334	0.1098
918.09457	0.09702
916.1658	0.08554
914.23703	0.07516
912.30826	0.06555
910.37949	0.05699
908.45072	0.0505
906.52195	0.04671
904.59318	0.04523
902.66441	0.04538
900.73564	0.04682
898.80687	0.04934
896.8781	0.05259
894.94933	0.05612
893.02056	0.05956
891.09179	0.06297
889.16302	0.06673
887.23425	0.07123
885.30548	0.07669
883.37671	0.08316
881.44794	0.09047
879.51917	0.09817
877.5904	0.1057
875.66163	0.11249
873.73286	0.11814
871.80409	0.12233
869.87532	0.1249
867.94655	0.12607
866.01778	0.1266
864.08901	0.12753
862.16024	0.12926
860.23147	0.13096
858.3027	0.1314
856.37393	0.12991
854.44516	0.12631
852.51639	0.12053
850.58762	0.11272
848.65885	0.10327
846.73008	0.09284
844.80131	0.08233
842.87254	0.07259
840.94377	0.06416
839.015	0.05718
837.08623	0.05155
835.15746	0.04698
833.22869	0.04307
831.29992	0.03952
829.37115	0.03616
827.44238	0.03292
825.51361	0.0298
823.58484	0.02694
821.65607	0.0245
819.7273	0.02262
817.79853	0.0212
815.86976	0.02003
813.94099	0.01893
812.01222	0.01771
810.08345	0.01623
808.15468	0.01451
806.22591	0.01263
804.29714	0.01075
802.36837	0.00915
800.4396	0.00835
798.51083	0.00888
796.58206	0.0109
794.65329	0.01406
792.72452	0.01789
790.79575	0.02209
788.86698	0.02653
786.93821	0.0312
785.00944	0.03611
783.08067	0.0413
781.1519	0.0469
779.22313	0.05307
777.29436	0.05988
775.36558	0.06737
773.43681	0.07557
771.50804	0.0844
769.57927	0.09362
767.6505	0.10282
765.72173	0.11162
763.79296	0.11971
761.86419	0.12686
759.93542	0.13287
758.00665	0.13763
756.07788	0.14115
754.14911	0.14347
752.22034	0.14447
750.29157	0.1438
748.3628	0.14126
746.43403	0.1368
744.50526	0.13088
742.57649	0.1238
740.64772	0.11586
738.71895	0.10744
736.79018	0.09892
734.86141	0.09076
732.93264	0.08341
731.00387	0.07732
729.0751	0.07284
727.14633	0.07016
725.21756	0.06921
723.28879	0.06972
721.36002	0.07137
719.43125	0.07383
717.50248	0.07682
715.57371	0.08007
713.64494	0.08334
711.71617	0.08644
709.7874	0.08926
707.85863	0.09172
705.92986	0.09377
704.00109	0.09536
702.07232	0.0964
700.14355	0.09688
698.21478	0.09702
696.28601	0.09689
694.35724	0.09671
692.42847	0.09623
690.4997	0.09504
688.57093	0.09362
686.64216	0.09222
684.71339	0.09108
682.78462	0.09037
680.85585	0.09005
678.92708	0.09006
676.99831	0.09037
675.06954	0.09094
673.14077	0.09173
671.212	0.09266
669.28323	0.09366
667.35446	0.0947
665.42569	0.09575
663.49692	0.09677
661.56815	0.09776
659.63938	0.09868
657.71061	0.09949
655.78184	0.10021
653.85307	0.10093
651.9243	0.10172
649.99553	0.10258
648.06676	0.10322
646.13799	0.10314
644.20922	0.10235
642.28045	0.10135
640.35168	0.10008
638.42291	0.09884
636.49414	0.09777
634.56537	0.09696
632.6366	0.09664
630.70783	0.09707
628.77906	0.09836
626.85029	0.10049
624.92152	0.10329
622.99275	0.10663
621.06398	0.11034
619.13521	0.1142
617.20644	0.11806
615.27767	0.12188
613.3489	0.12578
611.42013	0.12989
609.49136	0.13418
607.56259	0.13848
605.63382	0.14256
603.70505	0.14629
601.77627	0.14964
599.8475	0.15266
597.91873	0.1554
595.98996	0.15799
594.06119	0.16061
592.13242	0.16337
590.20365	0.16626
588.27488	0.16919
586.34611	0.17206
584.41734	0.17467
582.48857	0.17668
580.5598	0.17781
578.63103	0.17785
576.70226	0.17673
574.77349	0.17444
572.84472	0.17105
570.91595	0.16669
568.98718	0.16162
567.05841	0.15612
565.12964	0.15031
563.20087	0.1442
561.2721	0.13784
559.34333	0.13146
557.41456	0.12541
555.48579	0.12004
553.55702	0.11561
551.62825	0.11226
549.69948	0.11008
547.77071	0.10908
545.84194	0.10912
543.91317	0.10998
541.9844	0.11135
540.05563	0.11292
538.12686	0.1144
536.19809	0.1156
534.26932	0.11641
532.34055	0.11677
530.41178	0.11661
528.48301	0.11588
526.55424	0.11451
524.62547	0.11248
522.6967	0.10987
520.76793	0.10674
518.83916	0.10314
516.91039	0.09915
514.98162	0.09495
513.05285	0.09082
511.12408	0.08704
509.19531	0.0838
507.26654	0.0812
505.33777	0.07923
503.409	0.07788
501.48023	0.07705
499.55146	0.07663
497.62269	0.07652
495.69392	0.07663
493.76515	0.07684
491.83638	0.07705
489.90761	0.07718
487.97884	0.07713
486.05007	0.07678
484.1213	0.07603
482.19253	0.07483
480.26376	0.0731
478.33499	0.07081
476.40622	0.06802
474.47745	0.06483
472.54868	0.06141
470.61991	0.05795
468.69114	0.05457
466.76237	0.05133
464.8336	0.04824
462.90483	0.04531
460.97606	0.04263
459.04729	0.04033
457.11852	0.03851
455.18975	0.03715
453.26098	0.03618
451.33221	0.03557
449.40344	0.03539
447.47467	0.03572
445.5459	0.03656
443.61713	0.03776
441.68836	0.03913
439.75959	0.04041
437.83082	0.04141
435.90205	0.04195
433.97328	0.04195
432.04451	0.04144
430.11573	0.04053
428.18696	0.03926
426.25819	0.03765
424.32942	0.03566
422.40065	0.03326
420.47188	0.03152
418.54311	0.02959
416.61434	0.02747
414.68557	0.02517
412.7568	0.02268
410.82803	0.02
408.89926	0.01714
406.97049	0.01408
405.04172	0.01084
403.11295	0.00742
401.18418	0.0038
399.25541	0