3999.93888	3.50856E-4
3998.97458	2.99511E-4
3998.01027	2.48167E-4
3997.04597	1.96822E-4
3996.08166	1.54034E-4
3995.11735	1.11247E-4
3994.15305	6.84597E-5
3993.18874	2.56724E-5
3992.22444	0
3991.26013	1.71149E-5
3990.29583	6.84597E-5
3989.33152	1.36919E-4
3988.36722	1.36919E-4
3987.40291	1.19805E-4
3986.43861	1.36919E-4
3985.4743	1.88264E-4
3984.51	2.65281E-4
3983.54569	3.33741E-4
3982.58138	3.93644E-4
3981.61708	4.19316E-4
3980.65277	4.44988E-4
3979.68847	4.96333E-4
3978.72416	5.64793E-4
3977.75986	6.4181E-4
3976.79555	6.93155E-4
3975.83125	7.01712E-4
3974.86694	7.1027E-4
3973.90264	7.445E-4
3972.93833	7.87287E-4
3971.97402	8.38632E-4
3971.00972	8.38632E-4
3970.04541	8.21517E-4
3969.08111	7.7873E-4
3968.1168	7.35942E-4
3967.1525	7.27385E-4
3966.18819	7.35942E-4
3965.22389	7.445E-4
3964.25958	7.35942E-4
3963.29528	7.1027E-4
3962.33097	6.84597E-4
3961.36667	7.01712E-4
3960.40236	7.18827E-4
3959.43805	7.445E-4
3958.47375	7.61615E-4
3957.50944	7.35942E-4
3956.54514	6.7604E-4
3955.58083	6.58925E-4
3954.61653	6.93155E-4
3953.65222	7.35942E-4
3952.68792	7.53057E-4
3951.72361	7.53057E-4
3950.75931	7.445E-4
3949.795	7.27385E-4
3948.83069	7.445E-4
3947.86639	7.87287E-4
3946.90208	8.04402E-4
3945.93778	7.95844E-4
3944.97347	7.7873E-4
3944.00917	7.7873E-4
3943.04486	7.87287E-4
3942.08056	8.04402E-4
3941.11625	7.95844E-4
3940.15195	7.7873E-4
3939.18764	7.70172E-4
3938.22333	7.53057E-4
3937.25903	7.18827E-4
3936.29472	7.1027E-4
3935.33042	7.18827E-4
3934.36611	7.1027E-4
3933.40181	6.58925E-4
3932.4375	5.90465E-4
3931.4732	5.30563E-4
3930.50889	4.96333E-4
3929.54459	4.87776E-4
3928.58028	4.87776E-4
3927.61598	4.70661E-4
3926.65167	4.44988E-4
3925.68736	4.10758E-4
3924.72306	3.85086E-4
3923.75875	3.85086E-4
3922.79445	3.93644E-4
3921.83014	3.93644E-4
3920.86584	3.76529E-4
3919.90153	3.42299E-4
3918.93723	3.33741E-4
3917.97292	3.42299E-4
3917.00862	3.50856E-4
3916.04431	3.67971E-4
3915.08	3.85086E-4
3914.1157	3.76529E-4
3913.15139	3.50856E-4
3912.18709	3.42299E-4
3911.22278	3.59414E-4
3910.25848	3.85086E-4
3909.29417	3.85086E-4
3908.32987	3.67971E-4
3907.36556	3.67971E-4
3906.40126	3.67971E-4
3905.43695	3.85086E-4
3904.47265	4.02201E-4
3903.50834	4.19316E-4
3902.54403	4.10758E-4
3901.57973	3.85086E-4
3900.61542	3.85086E-4
3899.65112	3.93644E-4
3898.68681	3.93644E-4
3897.72251	4.02201E-4
3896.7582	4.19316E-4
3895.7939	4.02201E-4
3894.82959	3.76529E-4
3893.86529	3.67971E-4
3892.90098	3.85086E-4
3891.93667	4.19316E-4
3890.97237	4.36431E-4
3890.00806	4.02201E-4
3889.04376	3.59414E-4
3888.07945	3.59414E-4
3887.11515	4.02201E-4
3886.15084	4.53546E-4
3885.18654	4.70661E-4
3884.22223	4.62103E-4
3883.25793	4.10758E-4
3882.29362	3.85086E-4
3881.32932	3.85086E-4
3880.36501	4.02201E-4
3879.4007	4.19316E-4
3878.4364	4.02201E-4
3877.47209	3.93644E-4
3876.50779	3.85086E-4
3875.54348	3.93644E-4
3874.57918	4.19316E-4
3873.61487	4.27873E-4
3872.65057	4.19316E-4
3871.68626	3.93644E-4
3870.72196	3.85086E-4
3869.75765	3.85086E-4
3868.79334	3.93644E-4
3867.82904	3.93644E-4
3866.86473	3.93644E-4
3865.90043	3.93644E-4
3864.93612	3.93644E-4
3863.97182	3.76529E-4
3863.00751	3.85086E-4
3862.04321	4.19316E-4
3861.0789	4.36431E-4
3860.1146	4.10758E-4
3859.15029	3.59414E-4
3858.18599	3.33741E-4
3857.22168	3.50856E-4
3856.25737	3.85086E-4
3855.29307	4.36431E-4
3854.32876	4.79218E-4
3853.36446	4.53546E-4
3852.40015	3.93644E-4
3851.43585	3.59414E-4
3850.47154	3.67971E-4
3849.50724	3.85086E-4
3848.54293	3.93644E-4
3847.57863	3.76529E-4
3846.61432	3.42299E-4
3845.65001	3.33741E-4
3844.68571	3.50856E-4
3843.7214	3.93644E-4
3842.7571	4.10758E-4
3841.79279	3.93644E-4
3840.82849	3.67971E-4
3839.86418	3.42299E-4
3838.89988	3.50856E-4
3837.93557	4.10758E-4
3836.97127	4.27873E-4
3836.00696	4.19316E-4
3835.04266	4.19316E-4
3834.07835	4.27873E-4
3833.11404	4.44988E-4
3832.14974	4.70661E-4
3831.18543	4.87776E-4
3830.22113	4.79218E-4
3829.25682	4.62103E-4
3828.29252	4.19316E-4
3827.32821	4.02201E-4
3826.36391	4.27873E-4
3825.3996	4.44988E-4
3824.4353	4.44988E-4
3823.47099	4.27873E-4
3822.50668	4.36431E-4
3821.54238	4.27873E-4
3820.57807	4.10758E-4
3819.61377	4.10758E-4
3818.64946	4.27873E-4
3817.68516	4.27873E-4
3816.72085	4.27873E-4
3815.75655	4.19316E-4
3814.79224	4.19316E-4
3813.82794	4.36431E-4
3812.86363	4.62103E-4
3811.89932	4.53546E-4
3810.93502	4.36431E-4
3809.97071	4.19316E-4
3809.00641	4.19316E-4
3808.0421	4.19316E-4
3807.0778	4.36431E-4
3806.11349	4.27873E-4
3805.14919	3.93644E-4
3804.18488	3.67971E-4
3803.22058	3.33741E-4
3802.25627	3.42299E-4
3801.29197	3.76529E-4
3800.32766	3.85086E-4
3799.36335	3.59414E-4
3798.39905	3.25184E-4
3797.43474	3.08069E-4
3796.47044	2.90954E-4
3795.50613	2.82396E-4
3794.54183	2.99511E-4
3793.57752	3.16626E-4
3792.61322	3.08069E-4
3791.64891	3.08069E-4
3790.68461	3.25184E-4
3789.7203	3.33741E-4
3788.75599	3.50856E-4
3787.79169	3.67971E-4
3786.82738	3.85086E-4
3785.86308	3.76529E-4
3784.89877	3.76529E-4
3783.93447	3.85086E-4
3782.97016	3.93644E-4
3782.00586	4.10758E-4
3781.04155	4.19316E-4
3780.07725	4.19316E-4
3779.11294	4.02201E-4
3778.14864	3.76529E-4
3777.18433	3.85086E-4
3776.22002	4.10758E-4
3775.25572	4.62103E-4
3774.29141	4.87776E-4
3773.32711	4.70661E-4
3772.3628	4.53546E-4
3771.3985	4.53546E-4
3770.43419	4.70661E-4
3769.46989	4.79218E-4
3768.50558	4.62103E-4
3767.54128	4.27873E-4
3766.57697	4.02201E-4
3765.61266	3.76529E-4
3764.64836	3.67971E-4
3763.68405	3.93644E-4
3762.71975	4.02201E-4
3761.75544	3.93644E-4
3760.79114	3.85086E-4
3759.82683	3.76529E-4
3758.86253	3.76529E-4
3757.89822	4.10758E-4
3756.93392	4.36431E-4
3755.96961	4.19316E-4
3755.00531	3.76529E-4
3754.041	3.50856E-4
3753.07669	3.85086E-4
3752.11239	4.27873E-4
3751.14808	4.44988E-4
3750.18378	4.70661E-4
3749.21947	4.62103E-4
3748.25517	4.19316E-4
3747.29086	4.10758E-4
3746.32656	4.36431E-4
3745.36225	5.04891E-4
3744.39795	5.3912E-4
3743.43364	5.13448E-4
3742.46933	4.62103E-4
3741.50503	4.19316E-4
3740.54072	4.53546E-4
3739.57642	5.13448E-4
3738.61211	5.56235E-4
3737.64781	5.7335E-4
3736.6835	5.81908E-4
3735.7192	5.7335E-4
3734.75489	5.64793E-4
3733.79059	5.99023E-4
3732.82628	6.7604E-4
3731.86198	7.18827E-4
3730.89767	7.1027E-4
3729.93336	7.1027E-4
3728.96906	7.53057E-4
3728.00475	8.30074E-4
3727.04045	9.15649E-4
3726.07614	9.49879E-4
3725.11184	9.66994E-4
3724.14753	9.75551E-4
3723.18323	0.00102
3722.21892	0.0011
3721.25462	0.00115
3720.29031	0.00121
3719.326	0.00126
3718.3617	0.00128
3717.39739	0.0013
3716.43309	0.00138
3715.46878	0.00147
3714.50448	0.00154
3713.54017	0.0016
3712.57587	0.00166
3711.61156	0.0017
3710.64726	0.00175
3709.68295	0.00182
3708.71865	0.00191
3707.75434	0.00196
3706.79003	0.00201
3705.82573	0.0021
3704.86142	0.00219
3703.89712	0.00228
3702.93281	0.0024
3701.96851	0.00247
3701.0042	0.00253
3700.0399	0.00262
3699.07559	0.00273
3698.11129	0.00285
3697.14698	0.00298
3696.18267	0.00311
3695.21837	0.00324
3694.25406	0.00337
3693.28976	0.00351
3692.32545	0.00365
3691.36115	0.0038
3690.39684	0.004
3689.43254	0.00422
3688.46823	0.00442
3687.50393	0.00461
3686.53962	0.00483
3685.57531	0.00507
3684.61101	0.00536
3683.6467	0.00566
3682.6824	0.00597
3681.71809	0.00632
3680.75379	0.00668
3679.78948	0.00705
3678.82518	0.00744
3677.86087	0.00791
3676.89657	0.0084
3675.93226	0.00889
3674.96796	0.00935
3674.00365	0.0098
3673.03934	0.01028
3672.07504	0.01082
3671.11073	0.01142
3670.14643	0.01199
3669.18212	0.01251
3668.21782	0.01302
3667.25351	0.01359
3666.28921	0.01421
3665.3249	0.01482
3664.3606	0.01542
3663.39629	0.016
3662.43198	0.01659
3661.46768	0.01719
3660.50337	0.01778
3659.53907	0.0184
3658.57476	0.019
3657.61046	0.01958
3656.64615	0.02017
3655.68185	0.02076
3654.71754	0.02135
3653.75324	0.02194
3652.78893	0.02251
3651.82463	0.0231
3650.86032	0.02364
3649.89601	0.02417
3648.93171	0.0247
3647.9674	0.02523
3647.0031	0.02574
3646.03879	0.02624
3645.07449	0.02671
3644.11018	0.02718
3643.14588	0.02767
3642.18157	0.02817
3641.21727	0.02865
3640.25296	0.02908
3639.28865	0.0295
3638.32435	0.02991
3637.36004	0.0303
3636.39574	0.03071
3635.43143	0.03114
3634.46713	0.03156
3633.50282	0.03195
3632.53852	0.03229
3631.57421	0.03262
3630.60991	0.03298
3629.6456	0.03339
3628.6813	0.03376
3627.71699	0.03406
3626.75268	0.03432
3625.78838	0.0346
3624.82407	0.0349
3623.85977	0.03521
3622.89546	0.03552
3621.93116	0.0358
3620.96685	0.03605
3620.00255	0.03631
3619.03824	0.03656
3618.07394	0.03681
3617.10963	0.03707
3616.14532	0.03729
3615.18102	0.03746
3614.21671	0.03759
3613.25241	0.03773
3612.2881	0.0379
3611.3238	0.03806
3610.35949	0.03821
3609.39519	0.03835
3608.43088	0.03844
3607.46658	0.03854
3606.50227	0.03869
3605.53797	0.03887
3604.57366	0.03904
3603.60935	0.03918
3602.64505	0.0393
3601.68074	0.03942
3600.71644	0.03957
3599.75213	0.03976
3598.78783	0.03996
3597.82352	0.04013
3596.85922	0.04025
3595.89491	0.0404
3594.93061	0.04059
3593.9663	0.04081
3593.00199	0.04105
3592.03769	0.04128
3591.07338	0.04148
3590.10908	0.04166
3589.14477	0.04186
3588.18047	0.0421
3587.21616	0.04233
3586.25186	0.04256
3585.28755	0.0428
3584.32325	0.04305
3583.35894	0.0433
3582.39464	0.04357
3581.43033	0.04389
3580.46602	0.0442
3579.50172	0.04447
3578.53741	0.04476
3577.57311	0.04506
3576.6088	0.04535
3575.6445	0.04567
3574.68019	0.046
3573.71589	0.04634
3572.75158	0.04667
3571.78728	0.04701
3570.82297	0.04737
3569.85866	0.04772
3568.89436	0.04812
3567.93005	0.0485
3566.96575	0.04889
3566.00144	0.04927
3565.03714	0.04968
3564.07283	0.05008
3563.10853	0.05051
3562.14422	0.05096
3561.17992	0.05146
3560.21561	0.05195
3559.2513	0.05242
3558.287	0.0529
3557.32269	0.05344
3556.35839	0.05401
3555.39408	0.05456
3554.42978	0.05509
3553.46547	0.05561
3552.50117	0.05617
3551.53686	0.05674
3550.57256	0.05729
3549.60825	0.05785
3548.64395	0.05844
3547.67964	0.05902
3546.71533	0.05957
3545.75103	0.06016
3544.78672	0.06079
3543.82242	0.06147
3542.85811	0.0622
3541.89381	0.06299
3540.9295	0.06381
3539.9652	0.0647
3539.00089	0.0657
3538.03659	0.06679
3537.07228	0.06801
3536.10797	0.06934
3535.14367	0.07071
3534.17936	0.07214
3533.21506	0.07367
3532.25075	0.0753
3531.28645	0.07704
3530.32214	0.07888
3529.35784	0.08077
3528.39353	0.08272
3527.42923	0.08477
3526.46492	0.08694
3525.50062	0.08927
3524.53631	0.09173
3523.572	0.09429
3522.6077	0.09695
3521.64339	0.09974
3520.67909	0.1027
3519.71478	0.10585
3518.75048	0.10918
3517.78617	0.11268
3516.82187	0.1163
3515.85756	0.12013
3514.89326	0.12425
3513.92895	0.12871
3512.96464	0.13348
3512.00034	0.13858
3511.03603	0.14407
3510.07173	0.15004
3509.10742	0.1565
3508.14312	0.16347
3507.17881	0.17089
3506.21451	0.17853
3505.2502	0.18615
3504.2859	0.19338
3503.32159	0.19983
3502.35729	0.20511
3501.39298	0.20884
3500.42867	0.21079
3499.46437	0.21091
3498.50006	0.2094
3497.53576	0.20662
3496.57145	0.20294
3495.60715	0.19876
3494.64284	0.19443
3493.67854	0.19018
3492.71423	0.18613
3491.74993	0.18247
3490.78562	0.17928
3489.82131	0.17652
3488.85701	0.17417
3487.8927	0.17212
3486.9284	0.17031
3485.96409	0.16874
3484.99979	0.16736
3484.03548	0.16619
3483.07118	0.16515
3482.10687	0.16419
3481.14257	0.16328
3480.17826	0.16242
3479.21396	0.1616
3478.24965	0.16079
3477.28534	0.16003
3476.32104	0.1593
3475.35673	0.15856
3474.39243	0.15782
3473.42812	0.15709
3472.46382	0.1564
3471.49951	0.15573
3470.53521	0.15504
3469.5709	0.15436
3468.6066	0.15368
3467.64229	0.15302
3466.67798	0.15239
3465.71368	0.15179
3464.74937	0.1512
3463.78507	0.15062
3462.82076	0.15006
3461.85646	0.14951
3460.89215	0.14902
3459.92785	0.14856
3458.96354	0.1481
3457.99924	0.14765
3457.03493	0.14727
3456.07063	0.14695
3455.10632	0.14665
3454.14201	0.14638
3453.17771	0.14619
3452.2134	0.14606
3451.2491	0.14598
3450.28479	0.14597
3449.32049	0.14604
3448.35618	0.14618
3447.39188	0.1464
3446.42757	0.1467
3445.46327	0.14706
3444.49896	0.14753
3443.53465	0.14813
3442.57035	0.14881
3441.60604	0.14958
3440.64174	0.15046
3439.67743	0.15151
3438.71313	0.15268
3437.74882	0.15397
3436.78452	0.15537
3435.82021	0.15684
3434.85591	0.15842
3433.8916	0.16013
3432.92729	0.16192
3431.96299	0.16376
3430.99868	0.16564
3430.03438	0.16755
3429.07007	0.16945
3428.10577	0.17135
3427.14146	0.17325
3426.17716	0.17508
3425.21285	0.17675
3424.24855	0.17828
3423.28424	0.17962
3422.31994	0.18077
3421.35563	0.18168
3420.39132	0.18235
3419.42702	0.18276
3418.46271	0.18288
3417.49841	0.18282
3416.5341	0.18272
3415.5698	0.18259
3414.60549	0.18243
3413.64119	0.18219
3412.67688	0.18181
3411.71258	0.18124
3410.74827	0.18042
3409.78396	0.17939
3408.81966	0.17819
3407.85535	0.17684
3406.89105	0.17543
3405.92674	0.17408
3404.96244	0.17285
3403.99813	0.17183
3403.03383	0.1711
3402.06952	0.17063
3401.10522	0.1704
3400.14091	0.17042
3399.17661	0.17064
3398.2123	0.17109
3397.24799	0.17183
3396.28369	0.17279
3395.31938	0.17389
3394.35508	0.1751
3393.39077	0.17647
3392.42647	0.17802
3391.46216	0.17975
3390.49786	0.18162
3389.53355	0.1836
3388.56925	0.18565
3387.60494	0.18779
3386.64063	0.19002
3385.67633	0.19237
3384.71202	0.19485
3383.74772	0.19745
3382.78341	0.20011
3381.81911	0.20284
3380.8548	0.2057
3379.8905	0.20868
3378.92619	0.21178
3377.96189	0.21499
3376.99758	0.21825
3376.03328	0.22154
3375.06897	0.22488
3374.10466	0.22823
3373.14036	0.23157
3372.17605	0.23487
3371.21175	0.2381
3370.24744	0.24129
3369.28314	0.24447
3368.31883	0.24761
3367.35453	0.25071
3366.39022	0.2538
3365.42592	0.25684
3364.46161	0.2597
3363.4973	0.26236
3362.533	0.26486
3361.56869	0.26716
3360.60439	0.26921
3359.64008	0.27102
3358.67578	0.27256
3357.71147	0.27381
3356.74717	0.2748
3355.78286	0.27548
3354.81856	0.27587
3353.85425	0.27597
3352.88995	0.27576
3351.92564	0.27521
3350.96133	0.27433
3349.99703	0.27323
3349.03272	0.27202
3348.06842	0.27076
3347.10411	0.2695
3346.13981	0.26835
3345.1755	0.26734
3344.2112	0.26652
3343.24689	0.26595
3342.28259	0.26563
3341.31828	0.2655
3340.35397	0.2655
3339.38967	0.26563
3338.42536	0.26592
3337.46106	0.26627
3336.49675	0.26663
3335.53245	0.26691
3334.56814	0.26707
3333.60384	0.26703
3332.63953	0.26676
3331.67523	0.26634
3330.71092	0.26583
3329.74661	0.2653
3328.78231	0.26486
3327.818	0.26459
3326.8537	0.26456
3325.88939	0.26489
3324.92509	0.26562
3323.96078	0.2668
3322.99648	0.26835
3322.03217	0.27021
3321.06787	0.27235
3320.10356	0.27469
3319.13926	0.27724
3318.17495	0.27997
3317.21064	0.28278
3316.24634	0.28561
3315.28203	0.28836
3314.31773	0.29105
3313.35342	0.29371
3312.38912	0.29633
3311.42481	0.29886
3310.46051	0.3013
3309.4962	0.30358
3308.5319	0.30564
3307.56759	0.30733
3306.60328	0.30855
3305.63898	0.30922
3304.67467	0.30941
3303.71037	0.30909
3302.74606	0.30833
3301.78176	0.30733
3300.81745	0.3063
3299.85315	0.30537
3298.88884	0.30468
3297.92454	0.30421
3296.96023	0.304
3295.99593	0.30412
3295.03162	0.30455
3294.06731	0.30526
3293.10301	0.30624
3292.1387	0.3074
3291.1744	0.30864
3290.21009	0.30993
3289.24579	0.3113
3288.28148	0.31273
3287.31718	0.31418
3286.35287	0.31557
3285.38857	0.31688
3284.42426	0.3181
3283.45995	0.31923
3282.49565	0.32027
3281.53134	0.3212
3280.56704	0.32203
3279.60273	0.32267
3278.63843	0.32308
3277.67412	0.32327
3276.70982	0.32325
3275.74551	0.323
3274.78121	0.32253
3273.8169	0.32182
3272.8526	0.32082
3271.88829	0.31956
3270.92398	0.31809
3269.95968	0.31638
3268.99537	0.31442
3268.03107	0.31223
3267.06676	0.30979
3266.10246	0.30711
3265.13815	0.30422
3264.17385	0.30113
3263.20954	0.29791
3262.24524	0.29457
3261.28093	0.29106
3260.31662	0.2874
3259.35232	0.28362
3258.38801	0.27971
3257.42371	0.27578
3256.4594	0.27185
3255.4951	0.26788
3254.53079	0.26383
3253.56649	0.25975
3252.60218	0.25569
3251.63788	0.25165
3250.67357	0.24769
3249.70927	0.24377
3248.74496	0.23989
3247.78065	0.23605
3246.81635	0.23226
3245.85204	0.22857
3244.88774	0.225
3243.92343	0.22152
3242.95913	0.21813
3241.99482	0.21489
3241.03052	0.21174
3240.06621	0.20869
3239.10191	0.20582
3238.1376	0.20315
3237.17329	0.20062
3236.20899	0.19823
3235.24468	0.19599
3234.28038	0.19391
3233.31607	0.19202
3232.35177	0.1904
3231.38746	0.18898
3230.42316	0.18777
3229.45885	0.18678
3228.49455	0.18606
3227.53024	0.18564
3226.56594	0.18551
3225.60163	0.1857
3224.63732	0.18618
3223.67302	0.18696
3222.70871	0.18801
3221.74441	0.18935
3220.7801	0.1909
3219.8158	0.19246
3218.85149	0.19384
3217.88719	0.19485
3216.92288	0.19527
3215.95858	0.19497
3214.99427	0.19395
3214.02996	0.19229
3213.06566	0.19018
3212.10135	0.18777
3211.13705	0.18523
3210.17274	0.18271
3209.20844	0.18033
3208.24413	0.17819
3207.27983	0.17629
3206.31552	0.17462
3205.35122	0.17317
3204.38691	0.17197
3203.4226	0.17098
3202.4583	0.1702
3201.49399	0.16963
3200.52969	0.16922
3199.56538	0.16889
3198.60108	0.16858
3197.63677	0.16821
3196.67247	0.16772
3195.70816	0.167
3194.74386	0.16598
3193.77955	0.16455
3192.81525	0.16272
3191.85094	0.16054
3190.88663	0.15811
3189.92233	0.1555
3188.95802	0.15281
3187.99372	0.15008
3187.02941	0.14738
3186.06511	0.14472
3185.1008	0.14217
3184.1365	0.13972
3183.17219	0.1374
3182.20789	0.13519
3181.24358	0.13304
3180.27927	0.13096
3179.31497	0.12896
3178.35066	0.12704
3177.38636	0.1252
3176.42205	0.12346
3175.45775	0.1218
3174.49344	0.12017
3173.52914	0.11862
3172.56483	0.11714
3171.60053	0.11574
3170.63622	0.11444
3169.67192	0.11325
3168.70761	0.11213
3167.7433	0.11109
3166.779	0.11014
3165.81469	0.1093
3164.85039	0.10859
3163.88608	0.108
3162.92178	0.10748
3161.95747	0.107
3160.99317	0.10655
3160.02886	0.10619
3159.06456	0.10592
3158.10025	0.10566
3157.13594	0.1054
3156.17164	0.1051
3155.20733	0.10476
3154.24303	0.10441
3153.27872	0.10406
3152.31442	0.10372
3151.35011	0.10334
3150.38581	0.10291
3149.4215	0.10241
3148.4572	0.10184
3147.49289	0.10125
3146.52859	0.10066
3145.56428	0.10005
3144.59997	0.09943
3143.63567	0.09882
3142.67136	0.09826
3141.70706	0.09777
3140.74275	0.09735
3139.77845	0.09696
3138.81414	0.09652
3137.84984	0.09596
3136.88553	0.0953
3135.92123	0.09457
3134.95692	0.09378
3133.99261	0.09297
3133.02831	0.09217
3132.064	0.09145
3131.0997	0.09082
3130.13539	0.09031
3129.17109	0.0899
3128.20678	0.08961
3127.24248	0.08934
3126.27817	0.08908
3125.31387	0.0888
3124.34956	0.08849
3123.38526	0.08818
3122.42095	0.08785
3121.45664	0.08742
3120.49234	0.08683
3119.52803	0.08603
3118.56373	0.08498
3117.59942	0.08373
3116.63512	0.08234
3115.67081	0.08079
3114.70651	0.07909
3113.7422	0.07729
3112.7779	0.07555
3111.81359	0.07403
3110.84928	0.07273
3109.88498	0.07162
3108.92067	0.07067
3107.95637	0.06985
3106.99206	0.06915
3106.02776	0.0686
3105.06345	0.06817
3104.09915	0.06785
3103.13484	0.06762
3102.17054	0.06747
3101.20623	0.06736
3100.24193	0.0673
3099.27762	0.06729
3098.31331	0.0673
3097.34901	0.06734
3096.3847	0.06738
3095.4204	0.06742
3094.45609	0.06749
3093.49179	0.0676
3092.52748	0.06775
3091.56318	0.06794
3090.59887	0.06817
3089.63457	0.06843
3088.67026	0.06873
3087.70595	0.06912
3086.74165	0.06956
3085.77734	0.07005
3084.81304	0.07059
3083.84873	0.07121
3082.88443	0.07187
3081.92012	0.07256
3080.95582	0.0733
3079.99151	0.07409
3079.02721	0.07492
3078.0629	0.07581
3077.09859	0.07673
3076.13429	0.07769
3075.16998	0.07866
3074.20568	0.07964
3073.24137	0.08064
3072.27707	0.08168
3071.31276	0.08276
3070.34846	0.08386
3069.38415	0.08496
3068.41985	0.08603
3067.45554	0.08711
3066.49124	0.08824
3065.52693	0.08939
3064.56262	0.09055
3063.59832	0.09167
3062.63401	0.09275
3061.66971	0.09382
3060.7054	0.0949
3059.7411	0.09601
3058.77679	0.09712
3057.81249	0.09817
3056.84818	0.09918
3055.88388	0.10012
3054.91957	0.10105
3053.95526	0.10201
3052.99096	0.10291
3052.02665	0.10372
3051.06235	0.10441
3050.09804	0.10498
3049.13374	0.10548
3048.16943	0.10592
3047.20513	0.10629
3046.24082	0.10657
3045.27652	0.10668
3044.31221	0.10664
3043.34791	0.10653
3042.3836	0.1064
3041.41929	0.10625
3040.45499	0.10598
3039.49068	0.10558
3038.52638	0.10509
3037.56207	0.10458
3036.59777	0.10409
3035.63346	0.10358
3034.66916	0.10302
3033.70485	0.10242
3032.74055	0.10177
3031.77624	0.10113
3030.81193	0.10058
3029.84763	0.10012
3028.88332	0.09971
3027.91902	0.09931
3026.95471	0.09892
3025.99041	0.09861
3025.0261	0.09845
3024.0618	0.09846
3023.09749	0.09859
3022.13319	0.09878
3021.16888	0.09904
3020.20458	0.09942
3019.24027	0.09996
3018.27596	0.10068
3017.31166	0.10147
3016.34735	0.10223
3015.38305	0.10298
3014.41874	0.10378
3013.45444	0.10467
3012.49013	0.10563
3011.52583	0.10659
3010.56152	0.1074
3009.59722	0.10801
3008.63291	0.10851
3007.6686	0.10905
3006.7043	0.10972
3005.73999	0.11053
3004.77569	0.11136
3003.81138	0.11211
3002.84708	0.11271
3001.88277	0.11307
3000.91847	0.11311
2999.95416	0.11286
2998.98986	0.11242
2998.02555	0.11192
2997.06125	0.11151
2996.09694	0.11124
2995.13263	0.11114
2994.16833	0.11117
2993.20402	0.1113
2992.23972	0.11152
2991.27541	0.11186
2990.31111	0.11236
2989.3468	0.11306
2988.3825	0.11391
2987.41819	0.11476
2986.45389	0.11547
2985.48958	0.11599
2984.52527	0.11631
2983.56097	0.11656
2982.59666	0.11684
2981.63236	0.11713
2980.66805	0.11748
2979.70375	0.1179
2978.73944	0.11844
2977.77514	0.11914
2976.81083	0.11998
2975.84653	0.12086
2974.88222	0.12169
2973.91792	0.12241
2972.95361	0.123
2971.9893	0.12342
2971.025	0.12363
2970.06069	0.12356
2969.09639	0.1232
2968.13208	0.12257
2967.16778	0.12172
2966.20347	0.12075
2965.23917	0.11972
2964.27486	0.11863
2963.31056	0.11755
2962.34625	0.11653
2961.38194	0.11566
2960.41764	0.11505
2959.45333	0.11475
2958.48903	0.11477
2957.52472	0.1151
2956.56042	0.11577
2955.59611	0.11687
2954.63181	0.11848
2953.6675	0.12061
2952.7032	0.12321
2951.73889	0.12621
2950.77458	0.12954
2949.81028	0.13318
2948.84597	0.13704
2947.88167	0.14104
2946.91736	0.1451
2945.95306	0.14911
2944.98875	0.15301
2944.02445	0.1567
2943.06014	0.16001
2942.09584	0.16268
2941.13153	0.16437
2940.16723	0.16472
2939.20292	0.16343
2938.23861	0.16035
2937.27431	0.15563
2936.31	0.1497
2935.3457	0.14303
2934.38139	0.13609
2933.41709	0.12927
2932.45278	0.12286
2931.48848	0.11701
2930.52417	0.1118
2929.55987	0.10717
2928.59556	0.10305
2927.63125	0.09939
2926.66695	0.09619
2925.70264	0.09345
2924.73834	0.09109
2923.77403	0.08903
2922.80973	0.08717
2921.84542	0.08548
2920.88112	0.08404
2919.91681	0.08289
2918.95251	0.08199
2917.9882	0.08134
2917.0239	0.08086
2916.05959	0.0805
2915.09528	0.08034
2914.13098	0.08046
2913.16667	0.08088
2912.20237	0.08149
2911.23806	0.08218
2910.27376	0.08287
2909.30945	0.08359
2908.34515	0.08441
2907.38084	0.08537
2906.41654	0.08651
2905.45223	0.0878
2904.48792	0.08918
2903.52362	0.09056
2902.55931	0.0919
2901.59501	0.09312
2900.6307	0.09405
2899.6664	0.09444
2898.70209	0.09411
2897.73779	0.09294
2896.77348	0.09096
2895.80918	0.08834
2894.84487	0.08532
2893.88057	0.08213
2892.91626	0.07895
2891.95195	0.07596
2890.98765	0.07332
2890.02334	0.07113
2889.05904	0.06935
2888.09473	0.06789
2887.13043	0.06665
2886.16612	0.06569
2885.20182	0.06508
2884.23751	0.06485
2883.27321	0.06492
2882.3089	0.06512
2881.34459	0.0653
2880.38029	0.06528
2879.41598	0.06504
2878.45168	0.06463
2877.48737	0.06411
2876.52307	0.06347
2875.55876	0.0627
2874.59446	0.06185
2873.63015	0.06101
2872.66585	0.06025
2871.70154	0.05958
2870.73724	0.05887
2869.77293	0.05801
2868.80862	0.05697
2867.84432	0.05581
2866.88001	0.05469
2865.91571	0.05363
2864.9514	0.05262
2863.9871	0.05163
2863.02279	0.05069
2862.05849	0.04987
2861.09418	0.04925
2860.12988	0.04885
2859.16557	0.0486
2858.20126	0.04837
2857.23696	0.04809
2856.27265	0.04779
2855.30835	0.04755
2854.34404	0.04735
2853.37974	0.04713
2852.41543	0.04682
2851.45113	0.04638
2850.48682	0.04581
2849.52252	0.04518
2848.55821	0.04456
2847.59391	0.04393
2846.6296	0.04329
2845.66529	0.04266
2844.70099	0.04207
2843.73668	0.04161
2842.77238	0.04131
2841.80807	0.04109
2840.84377	0.04092
2839.87946	0.04078
2838.91516	0.04069
2837.95085	0.04072
2836.98655	0.0409
2836.02224	0.04126
2835.05793	0.04171
2834.09363	0.04221
2833.12932	0.04279
2832.16502	0.0435
2831.20071	0.04436
2830.23641	0.04534
2829.2721	0.04637
2828.3078	0.04738
2827.34349	0.04837
2826.37919	0.04936
2825.41488	0.05034
2824.45057	0.05123
2823.48627	0.05196
2822.52196	0.05244
2821.55766	0.05263
2820.59335	0.05253
2819.62905	0.05219
2818.66474	0.05163
2817.70044	0.05085
2816.73613	0.04995
2815.77183	0.04905
2814.80752	0.04827
2813.84322	0.04765
2812.87891	0.04717
2811.9146	0.04674
2810.9503	0.04622
2809.98599	0.04547
2809.02169	0.04445
2808.05738	0.04312
2807.09308	0.04156
2806.12877	0.03989
2805.16447	0.03833
2804.20016	0.03704
2803.23586	0.03605
2802.27155	0.03535
2801.30724	0.03484
2800.34294	0.03444
2799.37863	0.03408
2798.41433	0.03373
2797.45002	0.03343
2796.48572	0.03321
2795.52141	0.03305
2794.55711	0.03286
2793.5928	0.0326
2792.6285	0.0323
2791.66419	0.03203
2790.69989	0.03183
2789.73558	0.03166
2788.77127	0.03145
2787.80697	0.03117
2786.84266	0.03085
2785.87836	0.03055
2784.91405	0.03032
2783.94975	0.03012
2782.98544	0.0299
2782.02114	0.0296
2781.05683	0.02924
2780.09253	0.02889
2779.12822	0.02861
2778.16391	0.02838
2777.19961	0.0281
2776.2353	0.02773
2775.271	0.02727
2774.30669	0.02683
2773.34239	0.02646
2772.37808	0.02614
2771.41378	0.02581
2770.44947	0.02538
2769.48517	0.02489
2768.52086	0.02445
2767.55656	0.0241
2766.59225	0.02381
2765.62794	0.02352
2764.66364	0.02317
2763.69933	0.02275
2762.73503	0.02234
2761.77072	0.02203
2760.80642	0.02181
2759.84211	0.02162
2758.87781	0.02135
2757.9135	0.02103
2756.9492	0.02071
2755.98489	0.02049
2755.02058	0.02036
2754.05628	0.02026
2753.09197	0.02012
2752.12767	0.0199
2751.16336	0.01968
2750.19906	0.01953
2749.23475	0.01948
2748.27045	0.01948
2747.30614	0.01943
2746.34184	0.0193
2745.37753	0.01916
2744.41323	0.0191
2743.44892	0.01915
2742.48461	0.01924
2741.52031	0.0193
2740.556	0.01927
2739.5917	0.01921
2738.62739	0.01919
2737.66309	0.01927
2736.69878	0.01938
2735.73448	0.01944
2734.77017	0.0194
2733.80587	0.01929
2732.84156	0.01921
2731.87725	0.01921
2730.91295	0.01925
2729.94864	0.01927
2728.98434	0.01923
2728.02003	0.01912
2727.05573	0.01902
2726.09142	0.01901
2725.12712	0.01905
2724.16281	0.01906
2723.19851	0.019
2722.2342	0.01887
2721.2699	0.01877
2720.30559	0.01872
2719.34128	0.01871
2718.37698	0.01869
2717.41267	0.01863
2716.44837	0.01853
2715.48406	0.01842
2714.51976	0.01836
2713.55545	0.01834
2712.59115	0.01832
2711.62684	0.01826
2710.66254	0.01816
2709.69823	0.01802
2708.73392	0.01792
2707.76962	0.01784
2706.80531	0.01775
2705.84101	0.01759
2704.8767	0.01737
2703.9124	0.01713
2702.94809	0.0169
2701.98379	0.0167
2701.01948	0.0165
2700.05518	0.01628
2699.09087	0.01602
2698.12656	0.01576
2697.16226	0.01551
2696.19795	0.01529
2695.23365	0.01511
2694.26934	0.01492
2693.30504	0.0147
2692.34073	0.01446
2691.37643	0.01425
2690.41212	0.01408
2689.44782	0.01392
2688.48351	0.01376
2687.51921	0.01357
2686.5549	0.01338
2685.59059	0.01321
2684.62629	0.01307
2683.66198	0.01294
2682.69768	0.01283
2681.73337	0.01272
2680.76907	0.0126
2679.80476	0.01251
2678.84046	0.01245
2677.87615	0.01241
2676.91185	0.01235
2675.94754	0.01228
2674.98323	0.01223
2674.01893	0.01219
2673.05462	0.01219
2672.09032	0.01218
2671.12601	0.01213
2670.16171	0.01208
2669.1974	0.01204
2668.2331	0.01201
2667.26879	0.01201
2666.30449	0.01203
2665.34018	0.01199
2664.37588	0.01191
2663.41157	0.01184
2662.44726	0.01181
2661.48296	0.01181
2660.51865	0.01178
2659.55435	0.01172
2658.59004	0.01166
2657.62574	0.01162
2656.66143	0.01162
2655.69713	0.01168
2654.73282	0.01172
2653.76852	0.01173
2652.80421	0.01172
2651.8399	0.01171
2650.8756	0.01175
2649.91129	0.01182
2648.94699	0.01189
2647.98268	0.01193
2647.01838	0.01194
2646.05407	0.01196
2645.08977	0.01204
2644.12546	0.01213
2643.16116	0.01222
2642.19685	0.01226
2641.23255	0.01226
2640.26824	0.01225
2639.30393	0.01225
2638.33963	0.01227
2637.37532	0.01228
2636.41102	0.01224
2635.44671	0.01214
2634.48241	0.01203
2633.5181	0.01194
2632.5538	0.01189
2631.58949	0.01186
2630.62519	0.01179
2629.66088	0.01169
2628.69657	0.01157
2627.73227	0.01149
2626.76796	0.01148
2625.80366	0.01152
2624.83935	0.01153
2623.87505	0.01149
2622.91074	0.01143
2621.94644	0.01139
2620.98213	0.01143
2620.01783	0.01151
2619.05352	0.01155
2618.08922	0.01155
2617.12491	0.01154
2616.1606	0.01155
2615.1963	0.01161
2614.23199	0.01172
2613.26769	0.01182
2612.30338	0.01189
2611.33908	0.01193
2610.37477	0.01198
2609.41047	0.01208
2608.44616	0.01222
2607.48186	0.01236
2606.51755	0.01247
2605.55324	0.01253
2604.58894	0.01257
2603.62463	0.01261
2602.66033	0.01267
2601.69602	0.01274
2600.73172	0.01276
2599.76741	0.01272
2598.80311	0.01265
2597.8388	0.01256
2596.8745	0.01249
2595.91019	0.01243
2594.94589	0.01237
2593.98158	0.01229
2593.01727	0.01219
2592.05297	0.01208
2591.08866	0.01201
2590.12436	0.01198
2589.16005	0.01196
2588.19575	0.01192
2587.23144	0.01183
2586.26714	0.01174
2585.30283	0.01169
2584.33853	0.01168
2583.37422	0.01167
2582.40991	0.01165
2581.44561	0.0116
2580.4813	0.01154
2579.517	0.0115
2578.55269	0.01149
2577.58839	0.01152
2576.62408	0.01157
2575.65978	0.0116
2574.69547	0.01161
2573.73117	0.01163
2572.76686	0.01169
2571.80255	0.01178
2570.83825	0.01187
2569.87394	0.01195
2568.90964	0.01198
2567.94533	0.012
2566.98103	0.01205
2566.01672	0.01213
2565.05242	0.01223
2564.08811	0.0123
2563.12381	0.01234
2562.1595	0.01237
2561.1952	0.01237
2560.23089	0.01239
2559.26658	0.01243
2558.30228	0.01246
2557.33797	0.01244
2556.37367	0.01237
2555.40936	0.01225
2554.44506	0.01216
2553.48075	0.01211
2552.51645	0.01206
2551.55214	0.01198
2550.58784	0.01187
2549.62353	0.01177
2548.65922	0.01169
2547.69492	0.01165
2546.73061	0.01164
2545.76631	0.0116
2544.802	0.01152
2543.8377	0.01141
2542.87339	0.01132
2541.90909	0.01128
2540.94478	0.01124
2539.98048	0.01119
2539.01617	0.01111
2538.05187	0.01102
2537.08756	0.01097
2536.12325	0.01097
2535.15895	0.011
2534.19464	0.011
2533.23034	0.01099
2532.26603	0.01097
2531.30173	0.011
2530.33742	0.01106
2529.37312	0.01115
2528.40881	0.01122
2527.44451	0.01124
2526.4802	0.01125
2525.51589	0.01128
2524.55159	0.01132
2523.58728	0.01136
2522.62298	0.01139
2521.65867	0.01142
2520.69437	0.0114
2519.73006	0.01136
2518.76576	0.01133
2517.80145	0.0113
2516.83715	0.01128
2515.87284	0.01122
2514.90854	0.01115
2513.94423	0.0111
2512.97992	0.01107
2512.01562	0.01106
2511.05131	0.01102
2510.08701	0.011
2509.1227	0.01098
2508.1584	0.01097
2507.19409	0.01099
2506.22979	0.011
2505.26548	0.011
2504.30118	0.01103
2503.33687	0.01107
2502.37256	0.01112
2501.40826	0.01118
2500.44395	0.01123
2499.47965	0.01127
2498.51534	0.01131
2497.55104	0.01136
2496.58673	0.0114
2495.62243	0.01145
2494.65812	0.01148
2493.69382	0.01149
2492.72951	0.01148
2491.76521	0.01148
2490.8009	0.01149
2489.83659	0.0115
2488.87229	0.01151
2487.90798	0.01152
2486.94368	0.01153
2485.97937	0.01155
2485.01507	0.0116
2484.05076	0.01165
2483.08646	0.01167
2482.12215	0.01168
2481.15785	0.01169
2480.19354	0.01172
2479.22923	0.01178
2478.26493	0.01184
2477.30062	0.01188
2476.33632	0.01191
2475.37201	0.01195
2474.40771	0.01198
2473.4434	0.01204
2472.4791	0.01209
2471.51479	0.01213
2470.55049	0.01215
2469.58618	0.01216
2468.62188	0.01216
2467.65757	0.01218
2466.69326	0.01219
2465.72896	0.01221
2464.76465	0.0122
2463.80035	0.01217
2462.83604	0.01215
2461.87174	0.01214
2460.90743	0.01215
2459.94313	0.01216
2458.97882	0.01213
2458.01452	0.01209
2457.05021	0.01206
2456.0859	0.01203
2455.1216	0.01201
2454.15729	0.01199
2453.19299	0.01195
2452.22868	0.01187
2451.26438	0.01177
2450.30007	0.01172
2449.33577	0.01168
2448.37146	0.01165
2447.40716	0.01159
2446.44285	0.01151
2445.47854	0.01142
2444.51424	0.01138
2443.54993	0.01137
2442.58563	0.01137
2441.62132	0.01136
2440.65702	0.01131
2439.69271	0.01127
2438.72841	0.01125
2437.7641	0.01126
2436.7998	0.01128
2435.83549	0.01129
2434.87119	0.01129
2433.90688	0.01129
2432.94257	0.01129
2431.97827	0.01131
2431.01396	0.01136
2430.04966	0.01142
2429.08535	0.01146
2428.12105	0.01148
2427.15674	0.01151
2426.19244	0.01158
2425.22813	0.01171
2424.26383	0.01184
2423.29952	0.01195
2422.33521	0.01203
2421.37091	0.0121
2420.4066	0.0122
2419.4423	0.01233
2418.47799	0.01247
2417.51369	0.01257
2416.54938	0.01264
2415.58508	0.0127
2414.62077	0.01278
2413.65647	0.01285
2412.69216	0.01292
2411.72786	0.01299
2410.76355	0.01303
2409.79924	0.01303
2408.83494	0.01303
2407.87063	0.01305
2406.90633	0.01307
2405.94202	0.01307
2404.97772	0.01306
2404.01341	0.01302
2403.04911	0.01297
2402.0848	0.01295
2401.1205	0.01294
2400.15619	0.01292
2399.19188	0.01288
2398.22758	0.01283
2397.26327	0.01278
2396.29897	0.01276
2395.33466	0.01277
2394.37036	0.01279
2393.40605	0.01278
2392.44175	0.01276
2391.47744	0.01273
2390.51314	0.01273
2389.54883	0.01274
2388.58453	0.01274
2387.62022	0.01272
2386.65591	0.01265
2385.69161	0.01255
2384.7273	0.01244
2383.763	0.01233
2382.79869	0.0122
2381.83439	0.01209
2380.87008	0.01196
2379.90578	0.01181
2378.94147	0.01166
2377.97717	0.01154
2377.01286	0.01145
2376.04855	0.01135
2375.08425	0.01123
2374.11994	0.0111
2373.15564	0.01099
2372.19133	0.01092
2371.22703	0.01087
2370.26272	0.01082
2369.29842	0.01077
2368.33411	0.0107
2367.36981	0.01062
2366.4055	0.01058
2365.4412	0.01057
2364.47689	0.01057
2363.51258	0.01053
2362.54828	0.01047
2361.58397	0.0104
2360.61967	0.01034
2359.65536	0.01032
2358.69106	0.01034
2357.72675	0.01031
2356.76245	0.01026
2355.79814	0.01023
2354.83384	0.01022
2353.86953	0.01025
2352.90522	0.01029
2351.94092	0.01031
2350.97661	0.01031
2350.01231	0.01031
2349.048	0.01035
2348.0837	0.01041
2347.11939	0.01047
2346.15509	0.01053
2345.19078	0.01056
2344.22648	0.01059
2343.26217	0.01066
2342.29786	0.01079
2341.33356	0.01097
2340.36925	0.01117
2339.40495	0.01133
2338.44064	0.01143
2337.47634	0.01146
2336.51203	0.01144
2335.54773	0.01138
2334.58342	0.01128
2333.61912	0.01117
2332.65481	0.0111
2331.69051	0.01108
2330.7262	0.01111
2329.76189	0.01118
2328.79759	0.01124
2327.83328	0.01125
2326.86898	0.01124
2325.90467	0.01124
2324.94037	0.01124
2323.97606	0.01125
2323.01176	0.01124
2322.04745	0.01119
2321.08315	0.01112
2320.11884	0.01107
2319.15453	0.01106
2318.19023	0.01106
2317.22592	0.01106
2316.26162	0.01104
2315.29731	0.01098
2314.33301	0.01093
2313.3687	0.01091
2312.4044	0.01091
2311.44009	0.01089
2310.47579	0.01084
2309.51148	0.01076
2308.54718	0.01069
2307.58287	0.01065
2306.61856	0.01061
2305.65426	0.01056
2304.68995	0.01049
2303.72565	0.01044
2302.76134	0.01039
2301.79704	0.01035
2300.83273	0.01032
2299.86843	0.01029
2298.90412	0.01022
2297.93982	0.01013
2296.97551	0.01009
2296.0112	0.01007
2295.0469	0.01006
2294.08259	0.01006
2293.11829	0.01006
2292.15398	0.01005
2291.18968	0.01007
2290.22537	0.01011
2289.26107	0.01014
2288.29676	0.01017
2287.33246	0.01021
2286.36815	0.01024
2285.40385	0.01029
2284.43954	0.01037
2283.47523	0.01045
2282.51093	0.0105
2281.54662	0.01053
2280.58232	0.01058
2279.61801	0.01065
2278.65371	0.01074
2277.6894	0.01083
2276.7251	0.01093
2275.76079	0.011
2274.79649	0.01107
2273.83218	0.01118
2272.86787	0.01131
2271.90357	0.01144
2270.93926	0.01155
2269.97496	0.01166
2269.01065	0.01176
2268.04635	0.01189
2267.08204	0.01206
2266.11774	0.01217
2265.15343	0.01224
2264.18913	0.01228
2263.22482	0.01231
2262.26052	0.01237
2261.29621	0.01244
2260.3319	0.01249
2259.3676	0.01248
2258.40329	0.01246
2257.43899	0.01246
2256.47468	0.0125
2255.51038	0.01257
2254.54607	0.01264
2253.58177	0.01267
2252.61746	0.01267
2251.65316	0.01269
2250.68885	0.01273
2249.72454	0.01279
2248.76024	0.01287
2247.79593	0.01289
2246.83163	0.01286
2245.86732	0.01284
2244.90302	0.01286
2243.93871	0.01293
2242.97441	0.01302
2242.0101	0.01307
2241.0458	0.01308
2240.08149	0.01308
2239.11719	0.01315
2238.15288	0.01327
2237.18857	0.0134
2236.22427	0.01349
2235.25996	0.01353
2234.29566	0.01356
2233.33135	0.0136
2232.36705	0.01367
2231.40274	0.01374
2230.43844	0.01376
2229.47413	0.01372
2228.50983	0.01362
2227.54552	0.01351
2226.58121	0.01343
2225.61691	0.01337
2224.6526	0.01326
2223.6883	0.01308
2222.72399	0.01288
2221.75969	0.01267
2220.79538	0.01249
2219.83108	0.01236
2218.86677	0.01224
2217.90247	0.01206
2216.93816	0.01183
2215.97385	0.01162
2215.00955	0.01148
2214.04524	0.01141
2213.08094	0.01133
2212.11663	0.01123
2211.15233	0.01109
2210.18802	0.01095
2209.22372	0.01088
2208.25941	0.01086
2207.29511	0.01085
2206.3308	0.01081
2205.3665	0.01071
2204.40219	0.01061
2203.43788	0.01053
2202.47358	0.01053
2201.50927	0.01054
2200.54497	0.01052
2199.58066	0.01045
2198.61636	0.01037
2197.65205	0.01033
2196.68775	0.01032
2195.72344	0.01034
2194.75914	0.01035
2193.79483	0.01035
2192.83052	0.0103
2191.86622	0.01029
2190.90191	0.01029
2189.93761	0.01033
2188.9733	0.01038
2188.009	0.01038
2187.04469	0.01035
2186.08039	0.01033
2185.11608	0.01035
2184.15178	0.01038
2183.18747	0.01042
2182.22317	0.01041
2181.25886	0.01037
2180.29455	0.01035
2179.33025	0.01038
2178.36594	0.01041
2177.40164	0.01045
2176.43733	0.01047
2175.47303	0.01047
2174.50872	0.01047
2173.54442	0.01049
2172.58011	0.01056
2171.61581	0.01064
2170.6515	0.01069
2169.68719	0.01071
2168.72289	0.01074
2167.75858	0.01076
2166.79428	0.01078
2165.82997	0.01082
2164.86567	0.01085
2163.90136	0.01088
2162.93706	0.01089
2161.97275	0.01088
2161.00845	0.01088
2160.04414	0.01089
2159.07984	0.01089
2158.11553	0.01089
2157.15122	0.0109
2156.18692	0.01093
2155.22261	0.01095
2154.25831	0.01096
2153.294	0.011
2152.3297	0.01105
2151.36539	0.01112
2150.40109	0.01118
2149.43678	0.01123
2148.47248	0.01127
2147.50817	0.01131
2146.54386	0.01141
2145.57956	0.01153
2144.61525	0.01163
2143.65095	0.01169
2142.68664	0.01172
2141.72234	0.01177
2140.75803	0.01185
2139.79373	0.01197
2138.82942	0.01209
2137.86512	0.01215
2136.90081	0.01219
2135.93651	0.01224
2134.9722	0.01232
2134.00789	0.01247
2133.04359	0.01262
2132.07928	0.0127
2131.11498	0.01272
2130.15067	0.01278
2129.18637	0.01288
2128.22206	0.01303
2127.25776	0.01319
2126.29345	0.01329
2125.32915	0.01333
2124.36484	0.01338
2123.40053	0.01349
2122.43623	0.01363
2121.47192	0.01379
2120.50762	0.0139
2119.54331	0.01391
2118.57901	0.01391
2117.6147	0.01396
2116.6504	0.01407
2115.68609	0.01419
2114.72179	0.01427
2113.75748	0.01427
2112.79318	0.01427
2111.82887	0.01431
2110.86456	0.01444
2109.90026	0.0146
2108.93595	0.01473
2107.97165	0.01479
2107.00734	0.0148
2106.04304	0.01485
2105.07873	0.01498
2104.11443	0.01516
2103.15012	0.01532
2102.18582	0.0154
2101.22151	0.01545
2100.2572	0.01551
2099.2929	0.01563
2098.32859	0.0158
2097.36429	0.01597
2096.39998	0.01607
2095.43568	0.01609
2094.47137	0.01609
2093.50707	0.01617
2092.54276	0.01632
2091.57846	0.01646
2090.61415	0.0165
2089.64984	0.01645
2088.68554	0.01639
2087.72123	0.01637
2086.75693	0.0164
2085.79262	0.01645
2084.82832	0.01643
2083.86401	0.01633
2082.89971	0.01619
2081.9354	0.01611
2080.9711	0.01613
2080.00679	0.01619
2079.04249	0.01621
2078.07818	0.01617
2077.11387	0.0161
2076.14957	0.01607
2075.18526	0.01613
2074.22096	0.01624
2073.25665	0.01633
2072.29235	0.01637
2071.32804	0.01636
2070.36374	0.01636
2069.39943	0.01645
2068.43513	0.01658
2067.47082	0.0167
2066.50651	0.01676
2065.54221	0.01679
2064.5779	0.01682
2063.6136	0.01689
2062.64929	0.01702
2061.68499	0.01715
2060.72068	0.01723
2059.75638	0.01724
2058.79207	0.01725
2057.82777	0.0173
2056.86346	0.01738
2055.89916	0.01747
2054.93485	0.01755
2053.97054	0.01758
2053.00624	0.0176
2052.04193	0.01765
2051.07763	0.01773
2050.11332	0.01782
2049.14902	0.01789
2048.18471	0.01793
2047.22041	0.01795
2046.2561	0.01799
2045.2918	0.01805
2044.32749	0.01814
2043.36318	0.01824
2042.39888	0.0183
2041.43457	0.01837
2040.47027	0.01843
2039.50596	0.01852
2038.54166	0.01862
2037.57735	0.01872
2036.61305	0.01882
2035.64874	0.01893
2034.68444	0.01903
2033.72013	0.0191
2032.75583	0.01919
2031.79152	0.01931
2030.82721	0.01943
2029.86291	0.01955
2028.8986	0.01967
2027.9343	0.01975
2026.96999	0.01983
2026.00569	0.01993
2025.04138	0.02006
2024.07708	0.02019
2023.11277	0.02031
2022.14847	0.02039
2021.18416	0.02044
2020.21985	0.0205
2019.25555	0.02061
2018.29124	0.02074
2017.32694	0.02085
2016.36263	0.0209
2015.39833	0.02093
2014.43402	0.02097
2013.46972	0.02104
2012.50541	0.02116
2011.54111	0.02127
2010.5768	0.02138
2009.6125	0.02148
2008.64819	0.02156
2007.68388	0.02171
2006.71958	0.02194
2005.75527	0.02222
2004.79097	0.02246
2003.82666	0.02268
2002.86236	0.0229
2001.89805	0.02317
2000.93375	0.02351
1999.96944	0.02391
1999.00514	0.02429
1998.04083	0.0246
1997.07652	0.02488
1996.11222	0.0252
1995.14791	0.02559
1994.18361	0.02601
1993.2193	0.02641
1992.255	0.02675
1991.29069	0.02703
1990.32639	0.02729
1989.36208	0.02761
1988.39778	0.02799
1987.43347	0.02835
1986.46917	0.02864
1985.50486	0.02886
1984.54055	0.02911
1983.57625	0.02945
1982.61194	0.02989
1981.64764	0.03036
1980.68333	0.03078
1979.71903	0.03115
1978.75472	0.03149
1977.79042	0.03187
1976.82611	0.03234
1975.86181	0.03282
1974.8975	0.03319
1973.93319	0.03343
1972.96889	0.03359
1972.00458	0.03373
1971.04028	0.03394
1970.07597	0.03416
1969.11167	0.03429
1968.14736	0.03432
1967.18306	0.03429
1966.21875	0.03426
1965.25445	0.03429
1964.29014	0.03442
1963.32583	0.03454
1962.36153	0.03455
1961.39722	0.03448
1960.43292	0.03444
1959.46861	0.03447
1958.50431	0.0346
1957.54	0.03474
1956.5757	0.03482
1955.61139	0.03479
1954.64709	0.03478
1953.68278	0.03485
1952.71848	0.03504
1951.75417	0.03528
1950.78986	0.03545
1949.82556	0.03553
1948.86125	0.03558
1947.89695	0.0357
1946.93264	0.03593
1945.96834	0.03621
1945.00403	0.03646
1944.03973	0.03663
1943.07542	0.03675
1942.11112	0.03693
1941.14681	0.03722
1940.1825	0.03758
1939.2182	0.03792
1938.25389	0.03817
1937.28959	0.03838
1936.32528	0.03864
1935.36098	0.03899
1934.39667	0.03943
1933.43237	0.03989
1932.46806	0.04027
1931.50376	0.04057
1930.53945	0.04087
1929.57515	0.04126
1928.61084	0.04176
1927.64653	0.04226
1926.68223	0.04266
1925.71792	0.04298
1924.75362	0.0433
1923.78931	0.04369
1922.82501	0.04416
1921.8607	0.04464
1920.8964	0.04508
1919.93209	0.04542
1918.96779	0.04575
1918.00348	0.04614
1917.03917	0.0466
1916.07487	0.04708
1915.11056	0.04754
1914.14626	0.04793
1913.18195	0.04831
1912.21765	0.04873
1911.25334	0.04927
1910.28904	0.04986
1909.32473	0.05044
1908.36043	0.05097
1907.39612	0.05148
1906.43182	0.05204
1905.46751	0.05266
1904.5032	0.05333
1903.5389	0.05398
1902.57459	0.05462
1901.61029	0.05524
1900.64598	0.05584
1899.68168	0.05647
1898.71737	0.05716
1897.75307	0.05787
1896.78876	0.05857
1895.82446	0.05927
1894.86015	0.05998
1893.89584	0.06071
1892.93154	0.06149
1891.96723	0.06231
1891.00293	0.06315
1890.03862	0.06401
1889.07432	0.06491
1888.11001	0.06582
1887.14571	0.06673
1886.1814	0.06767
1885.2171	0.06867
1884.25279	0.06967
1883.28849	0.07062
1882.32418	0.07151
1881.35987	0.07231
1880.39557	0.07306
1879.43126	0.07383
1878.46696	0.07464
1877.50265	0.07543
1876.53835	0.07614
1875.57404	0.07681
1874.60974	0.07748
1873.64543	0.07821
1872.68113	0.079
1871.71682	0.07984
1870.75251	0.08067
1869.78821	0.08147
1868.8239	0.08225
1867.8596	0.08308
1866.89529	0.08403
1865.93099	0.08508
1864.96668	0.0861
1864.00238	0.08706
1863.03807	0.08802
1862.07377	0.08907
1861.10946	0.09024
1860.14516	0.09151
1859.18085	0.0928
1858.21654	0.09404
1857.25224	0.09524
1856.28793	0.09651
1855.32363	0.09794
1854.35932	0.09948
1853.39502	0.10106
1852.43071	0.10259
1851.46641	0.10407
1850.5021	0.10563
1849.5378	0.10739
1848.57349	0.10932
1847.60918	0.11132
1846.64488	0.11332
1845.68057	0.11528
1844.71627	0.11731
1843.75196	0.11956
1842.78766	0.12202
1841.82335	0.1246
1840.85905	0.1272
1839.89474	0.12981
1838.93044	0.13249
1837.96613	0.13534
1837.00182	0.13846
1836.03752	0.14175
1835.07321	0.14507
1834.10891	0.14841
1833.1446	0.15186
1832.1803	0.15552
1831.21599	0.15945
1830.25169	0.16363
1829.28738	0.16796
1828.32308	0.1724
1827.35877	0.17701
1826.39447	0.18196
1825.43016	0.18731
1824.46585	0.19307
1823.50155	0.19917
1822.53724	0.20558
1821.57294	0.21242
1820.60863	0.21981
1819.64433	0.22789
1818.68002	0.23672
1817.71572	0.24626
1816.75141	0.25652
1815.78711	0.26755
1814.8228	0.27951
1813.85849	0.29252
1812.89419	0.30666
1811.92988	0.32191
1810.96558	0.33824
1810.00127	0.35561
1809.03697	0.374
1808.07266	0.39344
1807.10836	0.41382
1806.14405	0.43504
1805.17975	0.45694
1804.21544	0.47938
1803.25114	0.50229
1802.28683	0.52559
1801.32252	0.54921
1800.35822	0.57302
1799.39391	0.59692
1798.42961	0.62067
1797.4653	0.64412
1796.501	0.66725
1795.53669	0.69007
1794.57239	0.71255
1793.60808	0.73444
1792.64378	0.7559
1791.67947	0.77694
1790.71516	0.79762
1789.75086	0.81828
1788.78655	0.83923
1787.82225	0.86072
1786.85794	0.88269
1785.89364	0.90499
1784.92933	0.92725
1783.96503	0.94865
1783.00072	0.96799
1782.03642	0.98389
1781.07211	0.99492
1780.10781	1
1779.1435	0.99765
1778.17919	0.98577
1777.21489	0.9641
1776.25058	0.93613
1775.28628	0.90826
1774.32197	0.88625
1773.35767	0.87189
1772.39336	0.8623
1771.42906	0.85237
1770.46475	0.83811
1769.50045	0.81882
1768.53614	0.79736
1767.57183	0.77754
1766.60753	0.76155
1765.64322	0.74965
1764.67892	0.74115
1763.71461	0.73523
1762.75031	0.73115
1761.786	0.7286
1760.8217	0.72763
1759.85739	0.7285
1758.89309	0.73163
1757.92878	0.73752
1756.96448	0.74649
1756.00017	0.75893
1755.03586	0.7752
1754.07156	0.79531
1753.10725	0.81863
1752.14295	0.84333
1751.17864	0.86571
1750.21434	0.88026
1749.25003	0.88192
1748.28573	0.86926
1747.32142	0.8457
1746.35712	0.81789
1745.39281	0.79238
1744.4285	0.77284
1743.4642	0.75901
1742.49989	0.74783
1741.53559	0.73738
1740.57128	0.72855
1739.60698	0.72258
1738.64267	0.7194
1737.67837	0.71812
1736.71406	0.71804
1735.74976	0.71858
1734.78545	0.71924
1733.82115	0.71971
1732.85684	0.72
1731.89253	0.72029
1730.92823	0.7209
1729.96392	0.72251
1728.99962	0.72567
1728.03531	0.73073
1727.07101	0.73771
1726.1067	0.74611
1725.1424	0.75456
1724.17809	0.76175
1723.21379	0.76766
1722.24948	0.77348
1721.28517	0.78124
1720.32087	0.79245
1719.35656	0.80735
1718.39226	0.82479
1717.42795	0.8429
1716.46365	0.86004
1715.49934	0.87487
1714.53504	0.88672
1713.57073	0.89447
1712.60643	0.89616
1711.64212	0.88905
1710.67781	0.87148
1709.71351	0.8441
1708.7492	0.80887
1707.7849	0.76913
1706.82059	0.72848
1705.85629	0.69016
1704.89198	0.65576
1703.92768	0.62499
1702.96337	0.59725
1701.99907	0.57256
1701.03476	0.55152
1700.07046	0.53459
1699.10615	0.52177
1698.14184	0.5127
1697.17754	0.50694
1696.21323	0.50407
1695.24893	0.5035
1694.28462	0.50469
1693.32032	0.50734
1692.35601	0.51118
1691.39171	0.51591
1690.4274	0.52124
1689.4631	0.52685
1688.49879	0.53238
1687.53448	0.53743
1686.57018	0.54182
1685.60587	0.54546
1684.64157	0.54838
1683.67726	0.55048
1682.71296	0.5517
1681.74865	0.55204
1680.78435	0.55155
1679.82004	0.55033
1678.85574	0.54845
1677.89143	0.54609
1676.92713	0.54326
1675.96282	0.53999
1674.99851	0.53643
1674.03421	0.53279
1673.0699	0.52944
1672.1056	0.52664
1671.14129	0.52445
1670.17699	0.52309
1669.21268	0.52296
1668.24838	0.52459
1667.28407	0.52854
1666.31977	0.53519
1665.35546	0.54437
1664.39115	0.55553
1663.42685	0.56742
1662.46254	0.5784
1661.49824	0.58644
1660.53393	0.58981
1659.56963	0.58768
1658.60532	0.58035
1657.64102	0.56975
1656.67671	0.55815
1655.71241	0.54648
1654.7481	0.53288
1653.7838	0.51373
1652.81949	0.48684
1651.85518	0.4542
1650.89088	0.42032
1649.92657	0.38878
1648.96227	0.36146
1647.99796	0.33871
1647.03366	0.32027
1646.06935	0.30539
1645.10505	0.29314
1644.14074	0.28268
1643.17644	0.27339
1642.21213	0.26497
1641.24782	0.25741
1640.28352	0.25081
1639.31921	0.24537
1638.35491	0.24135
1637.3906	0.23877
1636.4263	0.23742
1635.46199	0.23693
1634.49769	0.23687
1633.53338	0.23697
1632.56908	0.23724
1631.60477	0.23798
1630.64047	0.23961
1629.67616	0.24259
1628.71185	0.24723
1627.74755	0.2531
1626.78324	0.2587
1625.81894	0.26206
1624.85463	0.26191
1623.89033	0.25872
1622.92602	0.25421
1621.96172	0.25039
1620.99741	0.24875
1620.03311	0.25015
1619.0688	0.25516
1618.10449	0.26384
1617.14019	0.27573
1616.17588	0.28955
1615.21158	0.30323
1614.24727	0.31478
1613.28297	0.32292
1612.31866	0.32731
1611.35436	0.32789
1610.39005	0.32417
1609.42575	0.31599
1608.46144	0.30453
1607.49714	0.29178
1606.53283	0.27963
1605.56852	0.26919
1604.60422	0.26077
1603.63991	0.25422
1602.67561	0.2493
1601.7113	0.24581
1600.747	0.24344
1599.78269	0.24182
1598.81839	0.24048
1597.85408	0.2391
1596.88978	0.23746
1595.92547	0.23539
1594.96116	0.23285
1593.99686	0.22979
1593.03255	0.22611
1592.06825	0.22169
1591.10394	0.21651
1590.13964	0.21071
1589.17533	0.20448
1588.21103	0.19805
1587.24672	0.19162
1586.28242	0.18527
1585.31811	0.17891
1584.3538	0.17248
1583.3895	0.16603
1582.42519	0.15978
1581.46089	0.15404
1580.49658	0.14912
1579.53228	0.14519
1578.56797	0.14237
1577.60367	0.14065
1576.63936	0.13997
1575.67506	0.14029
1574.71075	0.1416
1573.74645	0.14383
1572.78214	0.14692
1571.81783	0.15087
1570.85353	0.15569
1569.88922	0.16149
1568.92492	0.16836
1567.96061	0.17623
1566.99631	0.18504
1566.032	0.19466
1565.0677	0.2049
1564.10339	0.21536
1563.13909	0.22543
1562.17478	0.23431
1561.21047	0.2411
1560.24617	0.24542
1559.28186	0.24752
1558.31756	0.24824
1557.35325	0.24846
1556.38895	0.24865
1555.42464	0.24884
1554.46034	0.24877
1553.49603	0.24858
1552.53173	0.24901
1551.56742	0.25088
1550.60312	0.25458
1549.63881	0.25994
1548.6745	0.26664
1547.7102	0.27434
1546.74589	0.28285
1545.78159	0.29205
1544.81728	0.30191
1543.85298	0.31223
1542.88867	0.32283
1541.92437	0.33365
1540.96006	0.34456
1539.99576	0.35561
1539.03145	0.3666
1538.06714	0.3771
1537.10284	0.38665
1536.13853	0.39488
1535.17423	0.40149
1534.20992	0.40626
1533.24562	0.40933
1532.28131	0.41078
1531.31701	0.41061
1530.3527	0.40884
1529.3884	0.40541
1528.42409	0.40022
1527.45979	0.39305
1526.49548	0.38394
1525.53117	0.37288
1524.56687	0.36016
1523.60256	0.34631
1522.63826	0.33192
1521.67395	0.31751
1520.70965	0.3034
1519.74534	0.28985
1518.78104	0.27687
1517.81673	0.2643
1516.85243	0.25213
1515.88812	0.24053
1514.92381	0.22962
1513.95951	0.21926
1512.9952	0.20934
1512.0309	0.19972
1511.06659	0.1904
1510.10229	0.18147
1509.13798	0.17302
1508.17368	0.16509
1507.20937	0.15754
1506.24507	0.15026
1505.28076	0.14324
1504.31646	0.13663
1503.35215	0.13059
1502.38784	0.12514
1501.42354	0.1202
1500.45923	0.11564
1499.49493	0.11154
1498.53062	0.10806
1497.56632	0.10535
1496.60201	0.10348
1495.63771	0.10226
1494.6734	0.10164
1493.7091	0.10191
1492.74479	0.10359
1491.78048	0.10713
1490.81618	0.11296
1489.85187	0.12135
1488.88757	0.13242
1487.92326	0.14603
1486.95896	0.16191
1485.99465	0.17905
1485.03035	0.1953
1484.06604	0.20706
1483.10174	0.21057
1482.13743	0.20487
1481.17313	0.19253
1480.20882	0.17736
1479.24451	0.1624
1478.28021	0.14955
1477.3159	0.13959
1476.3516	0.13254
1475.38729	0.12817
1474.42299	0.12639
1473.45868	0.12702
1472.49438	0.12974
1471.53007	0.13403
1470.56577	0.1392
1469.60146	0.14461
1468.63715	0.14979
1467.67285	0.15451
1466.70854	0.15873
1465.74424	0.16218
1464.77993	0.16447
1463.81563	0.16541
1462.85132	0.16516
1461.88702	0.16423
1460.92271	0.16321
1459.95841	0.16251
1458.9941	0.1625
1458.02979	0.16346
1457.06549	0.16572
1456.10118	0.16948
1455.13688	0.17464
1454.17257	0.18093
1453.20827	0.18795
1452.24396	0.19544
1451.27966	0.203
1450.31535	0.2095
1449.35105	0.21377
1448.38674	0.21558
1447.42244	0.21542
1446.45813	0.21405
1445.49382	0.21217
1444.52952	0.21019
1443.56521	0.20813
1442.60091	0.20582
1441.6366	0.20321
1440.6723	0.20026
1439.70799	0.19699
1438.74369	0.1936
1437.77938	0.19047
1436.81508	0.18804
1435.85077	0.18662
1434.88646	0.18649
1433.92216	0.18779
1432.95785	0.19046
1431.99355	0.19436
1431.02924	0.19953
1430.06494	0.20596
1429.10063	0.21359
1428.13633	0.22246
1427.17202	0.2328
1426.20772	0.24509
1425.24341	0.26
1424.27911	0.27789
1423.3148	0.29852
1422.35049	0.32061
1421.38619	0.34166
1420.42188	0.3589
1419.45758	0.37068
1418.49327	0.3768
1417.52897	0.37806
1416.56466	0.37608
1415.60036	0.37338
1414.63605	0.37234
1413.67175	0.37426
1412.70744	0.37937
1411.74313	0.38704
1410.77883	0.39607
1409.81452	0.40535
1408.85022	0.41418
1407.88591	0.42222
1406.92161	0.42907
1405.9573	0.43427
1404.993	0.43756
1404.02869	0.43954
1403.06439	0.44147
1402.10008	0.44432
1401.13578	0.44863
1400.17147	0.45458
1399.20716	0.46191
1398.24286	0.46951
1397.27855	0.47556
1396.31425	0.47895
1395.34994	0.48025
1394.38564	0.48109
1393.42133	0.48293
1392.45703	0.48627
1391.49272	0.49093
1390.52842	0.49614
1389.56411	0.50051
1388.5998	0.5024
1387.6355	0.50048
1386.67119	0.49403
1385.70689	0.4834
1384.74258	0.47027
1383.77828	0.45688
1382.81397	0.44489
1381.84967	0.43483
1380.88536	0.42686
1379.92106	0.42118
1378.95675	0.41765
1377.99245	0.41593
1377.02814	0.41582
1376.06383	0.41691
1375.09953	0.41802
1374.13522	0.41632
1373.17092	0.40758
1372.20661	0.38913
1371.24231	0.36288
1370.278	0.33378
1369.3137	0.30613
1368.34939	0.2822
1367.38509	0.26289
1366.42078	0.24828
1365.45647	0.23782
1364.49217	0.2306
1363.52786	0.22573
1362.56356	0.22264
1361.59925	0.2211
1360.63495	0.22099
1359.67064	0.22225
1358.70634	0.22477
1357.74203	0.2283
1356.77773	0.2327
1355.81342	0.23819
1354.84911	0.24503
1353.88481	0.25349
1352.9205	0.26378
1351.9562	0.27592
1350.99189	0.28956
1350.02759	0.30405
1349.06328	0.31905
1348.09898	0.33476
1347.13467	0.35172
1346.17037	0.37068
1345.20606	0.39245
1344.24176	0.41747
1343.27745	0.44562
1342.31314	0.47648
1341.34884	0.50933
1340.38453	0.54283
1339.42023	0.57472
1338.45592	0.60223
1337.49162	0.62315
1336.52731	0.63686
1335.56301	0.64405
1334.5987	0.64623
1333.6344	0.64466
1332.67009	0.64005
1331.70578	0.63284
1330.74148	0.62327
1329.77717	0.61161
1328.81287	0.59823
1327.84856	0.58329
1326.88426	0.56692
1325.91995	0.54943
1324.95565	0.53104
1323.99134	0.51198
1323.02704	0.49266
1322.06273	0.4736
1321.09843	0.45541
1320.13412	0.43864
1319.16981	0.42366
1318.20551	0.41084
1317.2412	0.40052
1316.2769	0.39296
1315.31259	0.38839
1314.34829	0.38705
1313.38398	0.38905
1312.41968	0.39412
1311.45537	0.4017
1310.49107	0.41118
1309.52676	0.42178
1308.56245	0.43238
1307.59815	0.4418
1306.63384	0.44908
1305.66954	0.45358
1304.70523	0.45496
1303.74093	0.45309
1302.77662	0.44806
1301.81232	0.44004
1300.84801	0.42945
1299.88371	0.4167
1298.9194	0.40222
1297.9551	0.38664
1296.99079	0.37062
1296.02648	0.35466
1295.06218	0.33903
1294.09787	0.32384
1293.13357	0.30916
1292.16926	0.2951
1291.20496	0.28201
1290.24065	0.27028
1289.27635	0.26012
1288.31204	0.25153
1287.34774	0.24439
1286.38343	0.23868
1285.41912	0.23455
1284.45482	0.23225
1283.49051	0.23183
1282.52621	0.23314
1281.5619	0.236
1280.5976	0.24028
1279.63329	0.2461
1278.66899	0.25377
1277.70468	0.26344
1276.74038	0.27498
1275.77607	0.28821
1274.81177	0.30302
1273.84746	0.31917
1272.88315	0.3359
1271.91885	0.35206
1270.95454	0.36659
1269.99024	0.37901
1269.02593	0.38922
1268.06163	0.39743
1267.09732	0.40418
1266.13302	0.41
1265.16871	0.41533
1264.20441	0.42039
1263.2401	0.42479
1262.27579	0.42776
1261.31149	0.42872
1260.34718	0.4276
1259.38288	0.42513
1258.41857	0.42262
1257.45427	0.42122
1256.48996	0.42165
1255.52566	0.42413
1254.56135	0.4284
1253.59705	0.43365
1252.63274	0.43883
1251.66844	0.44294
1250.70413	0.44546
1249.73982	0.44655
1248.77552	0.44691
1247.81121	0.44713
1246.84691	0.44764
1245.8826	0.44875
1244.9183	0.45021
1243.95399	0.4511
1242.98969	0.45029
1242.02538	0.44757
1241.06108	0.44397
1240.09677	0.44114
1239.13246	0.44029
1238.16816	0.44134
1237.20385	0.44341
1236.23955	0.44572
1235.27524	0.44793
1234.31094	0.45027
1233.34663	0.45317
1232.38233	0.4569
1231.41802	0.46148
1230.45372	0.4666
1229.48941	0.47194
1228.5251	0.47805
1227.5608	0.4864
1226.59649	0.49824
1225.63219	0.51376
1224.66788	0.53171
1223.70358	0.54933
1222.73927	0.56307
1221.77497	0.56992
1220.81066	0.56864
1219.84636	0.56052
1218.88205	0.54868
1217.91775	0.53633
1216.95344	0.52546
1215.98913	0.51661
1215.02483	0.50924
1214.06052	0.50221
1213.09622	0.49453
1212.13191	0.48566
1211.16761	0.47527
1210.2033	0.46324
1209.239	0.44971
1208.27469	0.43505
1207.31039	0.41975
1206.34608	0.40445
1205.38177	0.38968
1204.41747	0.37558
1203.45316	0.36185
1202.48886	0.34826
1201.52455	0.33498
1200.56025	0.32271
1199.59594	0.31251
1198.63164	0.30529
1197.66733	0.30144
1196.70303	0.30062
1195.73872	0.30162
1194.77442	0.30269
1193.81011	0.30257
1192.8458	0.30093
1191.8815	0.29765
1190.91719	0.29258
1189.95289	0.28572
1188.98858	0.27741
1188.02428	0.26819
1187.05997	0.25856
1186.09567	0.24917
1185.13136	0.24057
1184.16706	0.23302
1183.20275	0.2267
1182.23844	0.22171
1181.27414	0.21825
1180.30983	0.21679
1179.34553	0.21782
1178.38122	0.22155
1177.41692	0.22779
1176.45261	0.23596
1175.48831	0.24478
1174.524	0.25238
1173.5597	0.25683
1172.59539	0.2569
1171.63109	0.25247
1170.66678	0.24442
1169.70247	0.23449
1168.73817	0.2251
1167.77386	0.21852
1166.80956	0.21599
1165.84525	0.21768
1164.88095	0.22333
1163.91664	0.23284
1162.95234	0.24621
1161.98803	0.26295
1161.02373	0.28194
1160.05942	0.30154
1159.09511	0.32007
1158.13081	0.33585
1157.1665	0.34707
1156.2022	0.35229
1155.23789	0.35082
1154.27359	0.34313
1153.30928	0.33046
1152.34498	0.31421
1151.38067	0.29576
1150.41637	0.27657
1149.45206	0.25785
1148.48776	0.24029
1147.52345	0.22406
1146.55914	0.20922
1145.59484	0.19604
1144.63053	0.18491
1143.66623	0.17593
1142.70192	0.16888
1141.73762	0.1632
1140.77331	0.15839
1139.80901	0.15441
1138.8447	0.15153
1137.8804	0.15
1136.91609	0.14976
1135.95178	0.15037
1134.98748	0.15148
1134.02317	0.15319
1133.05887	0.15598
1132.09456	0.16018
1131.13026	0.16579
1130.16595	0.17258
1129.20165	0.18042
1128.23734	0.18951
1127.27304	0.20028
1126.30873	0.21316
1125.34443	0.2283
1124.38012	0.2454
1123.41581	0.26396
1122.45151	0.28357
1121.4872	0.30388
1120.5229	0.32452
1119.55859	0.3453
1118.59429	0.36635
1117.62998	0.38781
1116.66568	0.40959
1115.70137	0.43169
1114.73707	0.45407
1113.77276	0.47628
1112.80845	0.49762
1111.84415	0.51736
1110.87984	0.53507
1109.91554	0.55087
1108.95123	0.56537
1107.98693	0.57911
1107.02262	0.5918
1106.05832	0.6028
1105.09401	0.61132
1104.12971	0.61641
1103.1654	0.61675
1102.20109	0.61106
1101.23679	0.59941
1100.27248	0.58337
1099.30818	0.56526
1098.34387	0.54739
1097.37957	0.5312
1096.41526	0.51701
1095.45096	0.50472
1094.48665	0.49427
1093.52235	0.48571
1092.55804	0.47959
1091.59374	0.47667
1090.62943	0.47754
1089.66512	0.48235
1088.70082	0.4914
1087.73651	0.50475
1086.77221	0.52201
1085.8079	0.54293
1084.8436	0.5674
1083.87929	0.5951
1082.91499	0.62521
1081.95068	0.65662
1080.98638	0.68746
1080.02207	0.71577
1079.05776	0.74024
1078.09346	0.75945
1077.12915	0.77193
1076.16485	0.777
1075.20054	0.77606
1074.23624	0.77076
1073.27193	0.76279
1072.30763	0.7539
1071.34332	0.74465
1070.37902	0.73601
1069.41471	0.72888
1068.45041	0.724
1067.4861	0.72244
1066.52179	0.72513
1065.55749	0.73253
1064.59318	0.74364
1063.62888	0.75616
1062.66457	0.76681
1061.70027	0.77297
1060.73596	0.77348
1059.77166	0.76845
1058.80735	0.75914
1057.84305	0.74668
1056.87874	0.73165
1055.91443	0.71425
1054.95013	0.6953
1053.98582	0.67594
1053.02152	0.65752
1052.05721	0.64275
1051.09291	0.63466
1050.1286	0.6355
1049.1643	0.64647
1048.19999	0.6669
1047.23569	0.69357
1046.27138	0.72023
1045.30708	0.73935
1044.34277	0.74632
1043.37846	0.74132
1042.41416	0.72655
1041.44985	0.70394
1040.48555	0.67493
1039.52124	0.64148
1038.55694	0.60565
1037.59263	0.56911
1036.62833	0.53369
1035.66402	0.50064
1034.69972	0.47048
1033.73541	0.44332
1032.7711	0.4191
1031.8068	0.39762
1030.84249	0.37865
1029.87819	0.362
1028.91388	0.34752
1027.94958	0.33526
1026.98527	0.32525
1026.02097	0.3175
1025.05666	0.31195
1024.09236	0.30878
1023.12805	0.30868
1022.16375	0.31267
1021.19944	0.32185
1020.23513	0.33673
1019.27083	0.35706
1018.30652	0.38216
1017.34222	0.41143
1016.37791	0.44386
1015.41361	0.47724
1014.4493	0.50853
1013.485	0.53447
1012.52069	0.55238
1011.55639	0.56046
1010.59208	0.55855
1009.62777	0.54806
1008.66347	0.53045
1007.69916	0.50656
1006.73486	0.47746
1005.77055	0.44476
1004.80625	0.41029
1003.84194	0.37609
1002.87764	0.34365
1001.91333	0.31355
1000.94903	0.28611
999.98472	0.26157
999.02042	0.24009
998.05611	0.22185
997.0918	0.20697
996.1275	0.19515
995.16319	0.18595
994.19889	0.17929
993.23458	0.1757
992.27028	0.17603
991.30597	0.1807
990.34167	0.1887
989.37736	0.19733
988.41306	0.20372
987.44875	0.20699
986.48444	0.20814
985.52014	0.20815
984.55583	0.20703
983.59153	0.20427
982.62722	0.19959
981.66292	0.19349
980.69861	0.18686
979.73431	0.18015
978.77	0.1732
977.8057	0.16551
976.84139	0.15685
975.87708	0.14757
974.91278	0.13858
973.94847	0.13095
972.98417	0.12496
972.01986	0.12016
971.05556	0.11612
970.09125	0.11298
969.12695	0.11126
968.16264	0.11146
967.19834	0.11374
966.23403	0.11784
965.26973	0.12344
964.30542	0.13078
963.34111	0.14066
962.37681	0.15373
961.4125	0.16987
960.4482	0.18782
959.48389	0.20534
958.51959	0.22015
957.55528	0.23151
956.59098	0.24053
955.62667	0.24895
954.66237	0.25797
953.69806	0.26752
952.73375	0.27641
951.76945	0.28367
950.80514	0.28928
949.84084	0.2939
948.87653	0.29819
947.91223	0.30263
946.94792	0.30737
945.98362	0.31237
945.01931	0.31749
944.05501	0.32176
943.0907	0.32341
942.1264	0.32104
941.16209	0.3144
940.19778	0.30407
939.23348	0.29111
938.26917	0.27676
937.30487	0.26234
936.34056	0.2488
935.37626	0.23623
934.41195	0.22433
933.44765	0.21323
932.48334	0.20321
931.51904	0.19387
930.55473	0.18445
929.59042	0.17456
928.62612	0.16477
927.66181	0.15638
926.69751	0.15042
925.7332	0.14739
924.7689	0.1471
923.80459	0.14863
922.84029	0.15014
921.87598	0.14957
920.91168	0.1459
919.94737	0.13962
918.98307	0.1318
918.01876	0.12336
917.05445	0.11487
916.09015	0.10665
915.12584	0.09895
914.16154	0.09189
913.19723	0.08539
912.23293	0.07941
911.26862	0.07399
910.30432	0.06897
909.34001	0.06428
908.37571	0.05989
907.4114	0.05593
906.44709	0.05253
905.48279	0.04975
904.51848	0.04757
903.55418	0.04589
902.58987	0.04463
901.62557	0.04379
900.66126	0.0437
899.69696	0.04464
898.73265	0.04667
897.76835	0.04959
896.80404	0.05319
895.83974	0.05774
894.87543	0.06388
893.91112	0.07215
892.94682	0.08306
891.98251	0.09718
891.01821	0.11553
890.0539	0.14065
889.0896	0.17613
888.12529	0.22129
887.16099	0.26162
886.19668	0.27591
885.23238	0.26295
884.26807	0.23847
883.30376	0.21451
882.33946	0.1964
881.37515	0.1844
880.41085	0.17617
879.44654	0.16978
878.48224	0.16459
877.51793	0.16085
876.55363	0.15905
875.58932	0.15935
874.62502	0.1613
873.66071	0.16439
872.69641	0.1688
871.7321	0.1754
870.76779	0.18488
869.80349	0.19676
868.83918	0.20909
867.87488	0.21888
866.91057	0.22421
865.94627	0.22563
864.98196	0.22528
864.01766	0.22462
863.05335	0.22369
862.08905	0.22118
861.12474	0.21542
860.16043	0.20619
859.19613	0.19479
858.23182	0.18268
857.26752	0.17094
856.30321	0.15996
855.33891	0.14958
854.3746	0.13976
853.4103	0.13093
852.44599	0.12341
851.48169	0.11698
850.51738	0.11138
849.55307	0.10649
848.58877	0.10256
847.62446	0.10047
846.66016	0.10112
845.69585	0.10397
844.73155	0.10689
843.76724	0.10786
842.80294	0.1064
841.83863	0.10324
840.87433	0.09965
839.91002	0.09661
838.94572	0.09388
837.98141	0.09047
837.0171	0.08586
836.0528	0.0804
835.08849	0.07484
834.12419	0.06995
833.15988	0.06618
832.19558	0.06321
831.23127	0.06066
830.26697	0.0587
829.30266	0.05799
828.33836	0.059
827.37405	0.06161
826.40974	0.06558
825.44544	0.0705
824.48113	0.07608
823.51683	0.08227
822.55252	0.08889
821.58822	0.09507
820.62391	0.09917
819.65961	0.09977
818.6953	0.097
817.731	0.09228
816.76669	0.08711
815.80239	0.08233
814.83808	0.07803
813.87377	0.07392
812.90947	0.06978
811.94516	0.06553
810.98086	0.0618
810.01655	0.05927
809.05225	0.05793
808.08794	0.0573
807.12364	0.05698
806.15933	0.0566
805.19503	0.05614
804.23072	0.05603
803.26641	0.05635
802.30211	0.05646
801.3378	0.0556
800.3735	0.0535
799.40919	0.0504
798.44489	0.04707
797.48058	0.04424
796.51628	0.04199
795.55197	0.04002
794.58767	0.03821
793.62336	0.03656
792.65906	0.03531
791.69475	0.03502
790.73044	0.03622
789.76614	0.03874
788.80183	0.04201
787.83753	0.04599
786.87322	0.05095
785.90892	0.05697
784.94461	0.06373
783.98031	0.07071
783.016	0.0775
782.0517	0.08442
781.08739	0.09264
780.12308	0.103
779.15878	0.11453
778.19447	0.12463
777.23017	0.13021
776.26586	0.13003
775.30156	0.12598
774.33725	0.12152
773.37295	0.1189
772.40864	0.11875
771.44434	0.12066
770.48003	0.12366
769.51573	0.12686
768.55142	0.13006
767.58711	0.13364
766.62281	0.13775
765.6585	0.14215
764.6942	0.14651
763.72989	0.15088
762.76559	0.15592
761.80128	0.16251
760.83698	0.17081
759.87267	0.18001
758.90837	0.18858
757.94406	0.19519
756.97975	0.20004
756.01545	0.20451
755.05114	0.20988
754.08684	0.21628
753.12253	0.22248
752.15823	0.22701
751.19392	0.22891
750.22962	0.22785
749.26531	0.22415
748.30101	0.21827
747.3367	0.21054
746.3724	0.20116
745.40809	0.19033
744.44378	0.17844
743.47948	0.1663
742.51517	0.15467
741.55087	0.14371
740.58656	0.13273
739.62226	0.12136
738.65795	0.1103
737.69365	0.10032
736.72934	0.0918
735.76504	0.08459
734.80073	0.0781
733.83642	0.07185
732.87212	0.06606
731.90781	0.06145
730.94351	0.0581
729.9792	0.05537
729.0149	0.0525
728.05059	0.04909
727.08629	0.0453
726.12198	0.04178
725.15768	0.03917
724.19337	0.03733
723.22906	0.03556
722.26476	0.0334
721.30045	0.03093
720.33615	0.02877
719.37184	0.0276
718.40754	0.0273
717.44323	0.02705
716.47893	0.02637
715.51462	0.02532
714.55032	0.02429
713.58601	0.02376
712.62171	0.02382
711.6574	0.02399
710.69309	0.02376
709.72879	0.02322
708.76448	0.02301
707.80018	0.02348
706.83587	0.02453
705.87157	0.0258
704.90726	0.0269
703.94296	0.02781
702.97865	0.02892
702.01435	0.03048
701.05004	0.03229
700.08573	0.03407
699.12143	0.03544
698.15712	0.03627
697.19282	0.03669
696.22851	0.03691
695.26421	0.03707
694.2999	0.03708
693.3356	0.03712
692.37129	0.03745
691.40699	0.03789
690.44268	0.03829
689.47838	0.03864
688.51407	0.03903
687.54976	0.03966
686.58546	0.04061
685.62115	0.04161
684.65685	0.04234
683.69254	0.04294
682.72824	0.0438
681.76393	0.0451
680.79963	0.04691
679.83532	0.04908
678.87102	0.05111
677.90671	0.05277
676.9424	0.05427
675.9781	0.05569
675.01379	0.05668
674.04949	0.05705
673.08518	0.05665
672.12088	0.05543
671.15657	0.05372
670.19227	0.05221
669.22796	0.05131
668.26366	0.0506
667.29935	0.04983
666.33505	0.04894
665.37074	0.04793
664.40643	0.04718
663.44213	0.04706
662.47782	0.0475
661.51352	0.04793
660.54921	0.04792
659.58491	0.04764
658.6206	0.04742
657.6563	0.04775
656.69199	0.04894
655.72769	0.05034
654.76338	0.0509
653.79907	0.05071
652.83477	0.05054
651.87046	0.05071
650.90616	0.05136
649.94185	0.0522
648.97755	0.05229
648.01324	0.05156
647.04894	0.05106
646.08463	0.05127
645.12033	0.05174
644.15602	0.05207
643.19172	0.05183
642.22741	0.05097
641.2631	0.05024
640.2988	0.05047
639.33449	0.0515
638.37019	0.05253
637.40588	0.05312
636.44158	0.05329
635.47727	0.0534
634.51297	0.05428
633.54866	0.05594
632.58436	0.05721
631.62005	0.05722
630.65574	0.05615
629.69144	0.05472
628.72713	0.05357
627.76283	0.05317
626.79852	0.05329
625.83422	0.05296
624.86991	0.05198
623.90561	0.05127
622.9413	0.05173
621.977	0.05349
621.01269	0.05588
620.04839	0.05802
619.08408	0.05938
618.11977	0.06027
617.15547	0.06142
616.19116	0.06286
615.22686	0.06425
614.26255	0.06547
613.29825	0.06646
612.33394	0.06739
611.36964	0.06904
610.40533	0.0714
609.44103	0.07326
608.47672	0.07418
607.51241	0.07485
606.54811	0.07538
605.5838	0.07587
604.6195	0.07681
603.65519	0.07806
602.69089	0.07932
601.72658	0.08072
600.76228	0.08288
599.79797	0.08628
598.83367	0.09108
597.86936	0.09708
596.90505	0.10379
595.94075	0.1114
594.97644	0.12051
594.01214	0.13084
593.04783	0.1388
592.08353	0.1405
591.11922	0.13666
590.15492	0.13001
589.19061	0.12128
588.22631	0.11031
587.262	0.09862
586.2977	0.08856
585.33339	0.08108
584.36908	0.07599
583.40478	0.07276
582.44047	0.07097
581.47617	0.06995
580.51186	0.06894
579.54756	0.0679
578.58325	0.06696
577.61895	0.06638
576.65464	0.06653
575.69034	0.06698
574.72603	0.06702
573.76172	0.06659
572.79742	0.06607
571.83311	0.06619
570.86881	0.067
569.9045	0.06776
568.9402	0.06808
567.97589	0.06773
567.01159	0.0671
566.04728	0.06703
565.08298	0.06778
564.11867	0.06861
563.15437	0.06852
562.19006	0.0676
561.22575	0.06649
560.26145	0.06611
559.29714	0.06709
558.33284	0.06861
557.36853	0.06934
556.40423	0.06929
555.43992	0.06958
554.47562	0.0705
553.51131	0.07158
552.54701	0.0724
551.5827	0.07251
550.61839	0.07183
549.65409	0.0711
548.68978	0.07173
547.72548	0.07359
546.76117	0.07531
545.79687	0.07621
544.83256	0.07601
543.86826	0.07503
542.90395	0.0743
541.93965	0.07414
540.97534	0.07419
540.01104	0.07428
539.04673	0.07481
538.08242	0.07616
537.11812	0.07851
536.15381	0.08179
535.18951	0.0845
534.2252	0.08473
533.2609	0.08298
532.29659	0.08099
531.33229	0.07997
530.36798	0.08033
529.40368	0.08124
528.43937	0.0812
527.47506	0.07964
526.51076	0.07745
525.54645	0.07558
524.58215	0.07453
523.61784	0.074
522.65354	0.07284
521.68923	0.07049
520.72493	0.0679
519.76062	0.06661
518.79632	0.06635
517.83201	0.06611
516.86771	0.06536
515.9034	0.06368
514.93909	0.06153
513.97479	0.06024
513.01048	0.06066
512.04618	0.06131
511.08187	0.06064
510.11757	0.05966
509.15326	0.05916
508.18896	0.05926
507.22465	0.05997
506.26035	0.06091
505.29604	0.06189
504.33173	0.06224
503.36743	0.06209
502.40312	0.0629
501.43882	0.06489
500.47451	0.06715
499.51021	0.06922
498.5459	0.0711
497.5816	0.07362
496.61729	0.07758
495.65299	0.082
494.68868	0.08575
493.72438	0.08907
492.76007	0.0921
491.79576	0.09458
490.83146	0.09635
489.86715	0.09743
488.90285	0.09758
487.93854	0.09688
486.97424	0.09566
486.00993	0.09461
485.04563	0.09393
484.08132	0.09298
483.11702	0.09181
482.15271	0.09085
481.1884	0.09016
480.2241	0.09002
479.25979	0.09037
478.29549	0.09009
477.33118	0.0886
476.36688	0.08656
475.40257	0.0845
474.43827	0.08243
473.47396	0.08005
472.50966	0.07694
471.54535	0.07329
470.58104	0.06985
469.61674	0.0676
468.65243	0.06636
467.68813	0.06513
466.72382	0.06327
465.75952	0.06083
464.79521	0.0589
463.83091	0.05796
462.8666	0.05738
461.9023	0.05648
460.93799	0.05459
459.97369	0.05212
459.00938	0.051
458.04507	0.05158
457.08077	0.05234
456.11646	0.05263
455.15216	0.05216
454.18785	0.05201
453.22355	0.05365
452.25924	0.05615
451.29494	0.05852
450.33063	0.05906
449.36633	0.05652
448.40202	0.05304
447.43771	0.05132
446.47341	0.05173
445.5091	0.0526
444.5448	0.05235
443.58049	0.05088
442.61619	0.04999
441.65188	0.05128
440.68758	0.05453
439.72327	0.05861
438.75897	0.06114
437.79466	0.06089
436.83036	0.05892
435.86605	0.0571
434.90174	0.05667
433.93744	0.05689
432.97313	0.05684
432.00883	0.05674
431.04452	0.05814
430.08022	0.0621
429.11591	0.06798
428.15161	0.07442
427.1873	0.07863
426.223	0.07866
425.25869	0.07523
424.29438	0.07061
423.33008	0.06736
422.36577	0.06415
421.40147	0.05903
420.43716	0.05335
419.47286	0.04801
418.50855	0.04403
417.54425	0.04191
416.57994	0.03993
415.61564	0.03692
414.65133	0.03296
413.68703	0.02901
412.72272	0.0264
411.75841	0.02595
410.79411	0.02676
409.8298	0.02606
408.8655	0.02293
407.90119	0.01972
406.93689	0.01896
405.97258	0.02069
405.00828	0.02262
404.04397	0.02306
403.07967	0.02207
402.11536	0.02099
401.15105	0.02233
400.18675	0.02597