3999.93888	2.82341E-4
3998.97458	2.47049E-4
3998.01027	2.47049E-4
3997.04597	2.91164E-4
3996.08166	3.08811E-4
3995.11735	3.3528E-4
3994.15305	3.70573E-4
3993.18874	3.44103E-4
3992.22444	2.99988E-4
3991.26013	2.99988E-4
3990.29583	3.52927E-4
3989.33152	3.6175E-4
3988.36722	3.3528E-4
3987.40291	3.44103E-4
3986.43861	3.70573E-4
3985.4743	3.44103E-4
3984.51	3.26457E-4
3983.54569	3.3528E-4
3982.58138	3.3528E-4
3981.61708	3.52927E-4
3980.65277	3.44103E-4
3979.68847	2.91164E-4
3978.72416	2.11756E-4
3977.75986	1.58817E-4
3976.79555	1.49994E-4
3975.83125	1.32347E-4
3974.86694	8.82317E-5
3973.90264	6.17622E-5
3972.93833	6.17622E-5
3971.97402	4.41158E-5
3971.00972	7.05853E-5
3970.04541	7.94085E-5
3969.08111	4.41158E-5
3968.1168	2.64695E-5
3967.1525	0
3966.18819	0
3965.22389	8.82317E-6
3964.25958	0
3963.29528	8.82317E-6
3962.33097	3.52927E-5
3961.36667	5.2939E-5
3960.40236	6.17622E-5
3959.43805	5.2939E-5
3958.47375	3.52927E-5
3957.50944	3.52927E-5
3956.54514	7.94085E-5
3955.58083	1.41171E-4
3954.61653	1.76463E-4
3953.65222	1.58817E-4
3952.68792	1.32347E-4
3951.72361	1.41171E-4
3950.75931	2.02933E-4
3949.795	2.47049E-4
3948.83069	2.38225E-4
3947.86639	2.38225E-4
3946.90208	2.47049E-4
3945.93778	2.11756E-4
3944.97347	2.02933E-4
3944.00917	2.64695E-4
3943.04486	3.79396E-4
3942.08056	3.79396E-4
3941.11625	2.82341E-4
3940.15195	2.55872E-4
3939.18764	3.08811E-4
3938.22333	3.44103E-4
3937.25903	3.17634E-4
3936.29472	2.82341E-4
3935.33042	3.08811E-4
3934.36611	3.44103E-4
3933.40181	4.05866E-4
3932.4375	4.76451E-4
3931.4732	4.67628E-4
3930.50889	3.79396E-4
3929.54459	3.44103E-4
3928.58028	3.08811E-4
3927.61598	2.73518E-4
3926.65167	3.08811E-4
3925.68736	3.97042E-4
3924.72306	4.58805E-4
3923.75875	4.58805E-4
3922.79445	4.32335E-4
3921.83014	3.79396E-4
3920.86584	4.41158E-4
3919.90153	4.94097E-4
3918.93723	4.58805E-4
3917.97292	5.82329E-4
3917.00862	7.32323E-4
3916.04431	6.79384E-4
3915.08	5.47036E-4
3914.1157	5.20567E-4
3913.15139	4.94097E-4
3912.18709	4.49981E-4
3911.22278	4.58805E-4
3910.25848	4.49981E-4
3909.29417	4.85274E-4
3908.32987	5.0292E-4
3907.36556	5.64683E-4
3906.40126	6.44091E-4
3905.43695	7.76439E-4
3904.47265	0.00101
3903.50834	9.61725E-4
3902.54403	9.79371E-4
3901.57973	0.00101
3900.61542	8.82317E-4
3899.65112	0.00101
3898.68681	9.97018E-4
3897.72251	6.9703E-4
3896.7582	5.20567E-4
3895.7939	4.94097E-4
3894.82959	5.11744E-4
3893.86529	5.0292E-4
3892.90098	5.91152E-4
3891.93667	8.38201E-4
3890.97237	8.99963E-4
3890.00806	6.26445E-4
3889.04376	4.85274E-4
3888.07945	4.76451E-4
3887.11515	6.35268E-4
3886.15084	0.00108
3885.18654	0.0011
3884.22223	7.67615E-4
3883.25793	6.08798E-4
3882.29362	6.35268E-4
3881.32932	8.6467E-4
3880.36501	0.00105
3879.4007	8.9114E-4
3878.4364	6.44091E-4
3877.47209	6.26445E-4
3876.50779	6.70561E-4
3875.54348	8.20554E-4
3874.57918	0.00108
3873.61487	0.00105
3872.65057	8.55847E-4
3871.68626	8.9114E-4
3870.72196	0.0013
3869.75765	0.00156
3868.79334	0.00127
3867.82904	8.9114E-4
3866.86473	8.11731E-4
3865.90043	0.0011
3864.93612	0.00135
3863.97182	0.00117
3863.00751	9.70548E-4
3862.04321	0.00105
3861.0789	0.00103
3860.1146	8.99963E-4
3859.15029	8.99963E-4
3858.18599	9.70548E-4
3857.22168	0.00104
3856.25737	0.00105
3855.29307	0.00162
3854.32876	0.00251
3853.36446	0.00241
3852.40015	0.00191
3851.43585	0.00161
3850.47154	0.00122
3849.50724	0.0011
3848.54293	0.00109
3847.57863	0.00103
3846.61432	0.00105
3845.65001	0.0011
3844.68571	0.0013
3843.7214	0.00143
3842.7571	0.0014
3841.79279	0.00139
3840.82849	0.0015
3839.86418	0.00149
3838.89988	0.00162
3837.93557	0.00193
3836.97127	0.00176
3836.00696	0.00156
3835.04266	0.00169
3834.07835	0.00155
3833.11404	0.00142
3832.14974	0.0016
3831.18543	0.00162
3830.22113	0.00141
3829.25682	0.00131
3828.29252	0.00132
3827.32821	0.00139
3826.36391	0.00146
3825.3996	0.00139
3824.4353	0.00136
3823.47099	0.00145
3822.50668	0.00173
3821.54238	0.00208
3820.57807	0.00203
3819.61377	0.00165
3818.64946	0.00139
3817.68516	0.00145
3816.72085	0.00191
3815.75655	0.0021
3814.79224	0.00165
3813.82794	0.00131
3812.86363	0.00127
3811.89932	0.00129
3810.93502	0.00135
3809.97071	0.00135
3809.00641	0.00139
3808.0421	0.00165
3807.0778	0.00196
3806.11349	0.00182
3805.14919	0.00147
3804.18488	0.00144
3803.22058	0.00154
3802.25627	0.0019
3801.29197	0.00211
3800.32766	0.00173
3799.36335	0.00134
3798.39905	0.00133
3797.43474	0.00153
3796.47044	0.0016
3795.50613	0.00145
3794.54183	0.00128
3793.57752	0.00124
3792.61322	0.00124
3791.64891	0.00122
3790.68461	0.00124
3789.7203	0.00125
3788.75599	0.00124
3787.79169	0.00121
3786.82738	0.0012
3785.86308	0.00121
3784.89877	0.00125
3783.93447	0.00126
3782.97016	0.00118
3782.00586	0.00117
3781.04155	0.00128
3780.07725	0.00149
3779.11294	0.00154
3778.14864	0.00135
3777.18433	0.00119
3776.22002	0.00113
3775.25572	0.00112
3774.29141	0.00111
3773.32711	0.00114
3772.3628	0.00116
3771.3985	0.00125
3770.43419	0.00152
3769.46989	0.00153
3768.50558	0.00127
3767.54128	0.00116
3766.57697	0.0013
3765.61266	0.00142
3764.64836	0.00128
3763.68405	0.00111
3762.71975	0.00109
3761.75544	0.00111
3760.79114	0.00125
3759.82683	0.00147
3758.86253	0.0014
3757.89822	0.00124
3756.93392	0.00127
3755.96961	0.00122
3755.00531	0.00109
3754.041	0.00115
3753.07669	0.00161
3752.11239	0.00193
3751.14808	0.00168
3750.18378	0.0018
3749.21947	0.00202
3748.25517	0.00157
3747.29086	0.00123
3746.32656	0.00142
3745.36225	0.00229
3744.39795	0.00289
3743.43364	0.00218
3742.46933	0.00146
3741.50503	0.00139
3740.54072	0.00138
3739.57642	0.00136
3738.61211	0.00137
3737.64781	0.00163
3736.6835	0.00191
3735.7192	0.00197
3734.75489	0.00181
3733.79059	0.00148
3732.82628	0.00146
3731.86198	0.00151
3730.89767	0.0012
3729.93336	9.70548E-4
3728.96906	9.70548E-4
3728.00475	0.00107
3727.04045	0.00125
3726.07614	0.00128
3725.11184	0.00117
3724.14753	0.00109
3723.18323	0.00114
3722.21892	0.0012
3721.25462	0.00109
3720.29031	0.00101
3719.326	0.00111
3718.3617	0.00109
3717.39739	9.97018E-4
3716.43309	9.70548E-4
3715.46878	0.00102
3714.50448	0.00106
3713.54017	0.00117
3712.57587	0.00155
3711.61156	0.00161
3710.64726	0.00141
3709.68295	0.00144
3708.71865	0.00136
3707.75434	0.00113
3706.79003	0.00106
3705.82573	0.00109
3704.86142	0.00114
3703.89712	0.00116
3702.93281	0.00128
3701.96851	0.00144
3701.0042	0.00137
3700.0399	0.00121
3699.07559	0.00117
3698.11129	0.0012
3697.14698	0.00125
3696.18267	0.00129
3695.21837	0.00128
3694.25406	0.00127
3693.28976	0.00131
3692.32545	0.00155
3691.36115	0.00185
3690.39684	0.00181
3689.43254	0.00189
3688.46823	0.00215
3687.50393	0.00192
3686.53962	0.00161
3685.57531	0.00161
3684.61101	0.00163
3683.6467	0.00165
3682.6824	0.00169
3681.71809	0.00177
3680.75379	0.00192
3679.78948	0.00214
3678.82518	0.00222
3677.86087	0.00226
3676.89657	0.00268
3675.93226	0.00326
3674.96796	0.00336
3674.00365	0.00301
3673.03934	0.00279
3672.07504	0.00304
3671.11073	0.00355
3670.14643	0.00371
3669.18212	0.00364
3668.21782	0.00364
3667.25351	0.00358
3666.28921	0.00366
3665.3249	0.00386
3664.3606	0.00406
3663.39629	0.00424
3662.43198	0.00436
3661.46768	0.0046
3660.50337	0.00483
3659.53907	0.00503
3658.57476	0.00522
3657.61046	0.00556
3656.64615	0.00611
3655.68185	0.00629
3654.71754	0.00626
3653.75324	0.00644
3652.78893	0.00679
3651.82463	0.00731
3650.86032	0.00783
3649.89601	0.00822
3648.93171	0.00845
3647.9674	0.00863
3647.0031	0.0088
3646.03879	0.00879
3645.07449	0.00876
3644.11018	0.00888
3643.14588	0.00906
3642.18157	0.00923
3641.21727	0.00932
3640.25296	0.00935
3639.28865	0.00941
3638.32435	0.00952
3637.36004	0.00962
3636.39574	0.00963
3635.43143	0.00969
3634.46713	0.00982
3633.50282	0.00986
3632.53852	0.00976
3631.57421	0.00978
3630.60991	0.01016
3629.6456	0.01068
3628.6813	0.01082
3627.71699	0.0105
3626.75268	0.01021
3625.78838	0.0101
3624.82407	0.01009
3623.85977	0.01017
3622.89546	0.01029
3621.93116	0.01044
3620.96685	0.01069
3620.00255	0.01103
3619.03824	0.01116
3618.07394	0.01115
3617.10963	0.01118
3616.14532	0.01119
3615.18102	0.01134
3614.21671	0.01156
3613.25241	0.01179
3612.2881	0.01199
3611.3238	0.01198
3610.35949	0.01218
3609.39519	0.01256
3608.43088	0.01263
3607.46658	0.01259
3606.50227	0.01259
3605.53797	0.01256
3604.57366	0.01262
3603.60935	0.01277
3602.64505	0.01291
3601.68074	0.01307
3600.71644	0.01324
3599.75213	0.01338
3598.78783	0.01351
3597.82352	0.01362
3596.85922	0.01379
3595.89491	0.01401
3594.93061	0.01414
3593.9663	0.01426
3593.00199	0.01438
3592.03769	0.01446
3591.07338	0.01457
3590.10908	0.01479
3589.14477	0.01515
3588.18047	0.01539
3587.21616	0.01553
3586.25186	0.01566
3585.28755	0.01567
3584.32325	0.01573
3583.35894	0.01586
3582.39464	0.01599
3581.43033	0.01615
3580.46602	0.01633
3579.50172	0.01653
3578.53741	0.01671
3577.57311	0.01689
3576.6088	0.01706
3575.6445	0.01725
3574.68019	0.01746
3573.71589	0.01767
3572.75158	0.01788
3571.78728	0.01811
3570.82297	0.01829
3569.85866	0.01848
3568.89436	0.01884
3567.93005	0.01927
3566.96575	0.01956
3566.00144	0.01974
3565.03714	0.01981
3564.07283	0.01993
3563.10853	0.0201
3562.14422	0.02028
3561.17992	0.02056
3560.21561	0.0209
3559.2513	0.02121
3558.287	0.02146
3557.32269	0.0217
3556.35839	0.02195
3555.39408	0.02219
3554.42978	0.0225
3553.46547	0.02283
3552.50117	0.02314
3551.53686	0.02337
3550.57256	0.02354
3549.60825	0.02379
3548.64395	0.02414
3547.67964	0.02453
3546.71533	0.02486
3545.75103	0.02514
3544.78672	0.02537
3543.82242	0.02559
3542.85811	0.02584
3541.89381	0.02613
3540.9295	0.02646
3539.9652	0.02676
3539.00089	0.02703
3538.03659	0.02726
3537.07228	0.0275
3536.10797	0.02776
3535.14367	0.02799
3534.17936	0.02818
3533.21506	0.02831
3532.25075	0.02838
3531.28645	0.02839
3530.32214	0.02838
3529.35784	0.02837
3528.39353	0.02833
3527.42923	0.02823
3526.46492	0.02805
3525.50062	0.02783
3524.53631	0.02763
3523.572	0.02749
3522.6077	0.02739
3521.64339	0.0273
3520.67909	0.02726
3519.71478	0.02722
3518.75048	0.02718
3517.78617	0.02719
3516.82187	0.02727
3515.85756	0.0274
3514.89326	0.02755
3513.92895	0.02765
3512.96464	0.02772
3512.00034	0.02784
3511.03603	0.02802
3510.07173	0.02827
3509.10742	0.02851
3508.14312	0.02868
3507.17881	0.02883
3506.21451	0.02895
3505.2502	0.02905
3504.2859	0.02918
3503.32159	0.02933
3502.35729	0.0295
3501.39298	0.02961
3500.42867	0.02965
3499.46437	0.02969
3498.50006	0.02983
3497.53576	0.03008
3496.57145	0.03034
3495.60715	0.03061
3494.64284	0.03086
3493.67854	0.03109
3492.71423	0.03133
3491.74993	0.03162
3490.78562	0.03199
3489.82131	0.03241
3488.85701	0.03284
3487.8927	0.03322
3486.9284	0.0336
3485.96409	0.03407
3484.99979	0.03458
3484.03548	0.03517
3483.07118	0.03586
3482.10687	0.03655
3481.14257	0.03719
3480.17826	0.03782
3479.21396	0.03848
3478.24965	0.03912
3477.28534	0.03972
3476.32104	0.04023
3475.35673	0.0407
3474.39243	0.04113
3473.42812	0.04149
3472.46382	0.04185
3471.49951	0.0423
3470.53521	0.0428
3469.5709	0.04336
3468.6066	0.04397
3467.64229	0.04457
3466.67798	0.04522
3465.71368	0.04598
3464.74937	0.04679
3463.78507	0.04758
3462.82076	0.04839
3461.85646	0.0492
3460.89215	0.05002
3459.92785	0.05086
3458.96354	0.05172
3457.99924	0.05257
3457.03493	0.05335
3456.07063	0.05412
3455.10632	0.05484
3454.14201	0.05552
3453.17771	0.05622
3452.2134	0.057
3451.2491	0.05771
3450.28479	0.05838
3449.32049	0.05905
3448.35618	0.05974
3447.39188	0.06045
3446.42757	0.06114
3445.46327	0.06189
3444.49896	0.06268
3443.53465	0.06346
3442.57035	0.06423
3441.60604	0.06501
3440.64174	0.0658
3439.67743	0.06661
3438.71313	0.06737
3437.74882	0.06812
3436.78452	0.06889
3435.82021	0.06963
3434.85591	0.07039
3433.8916	0.07119
3432.92729	0.07197
3431.96299	0.07269
3430.99868	0.07337
3430.03438	0.07408
3429.07007	0.07477
3428.10577	0.07543
3427.14146	0.07604
3426.17716	0.07661
3425.21285	0.07715
3424.24855	0.07766
3423.28424	0.07816
3422.31994	0.07863
3421.35563	0.07914
3420.39132	0.07965
3419.42702	0.08008
3418.46271	0.08047
3417.49841	0.08081
3416.5341	0.08113
3415.5698	0.08145
3414.60549	0.08175
3413.64119	0.08206
3412.67688	0.08234
3411.71258	0.08257
3410.74827	0.08277
3409.78396	0.08301
3408.81966	0.08329
3407.85535	0.08355
3406.89105	0.08378
3405.92674	0.08398
3404.96244	0.08416
3403.99813	0.08434
3403.03383	0.08457
3402.06952	0.08483
3401.10522	0.08501
3400.14091	0.08517
3399.17661	0.08536
3398.2123	0.08554
3397.24799	0.08573
3396.28369	0.08595
3395.31938	0.08618
3394.35508	0.08641
3393.39077	0.08666
3392.42647	0.08689
3391.46216	0.08708
3390.49786	0.0873
3389.53355	0.08756
3388.56925	0.08784
3387.60494	0.08813
3386.64063	0.08838
3385.67633	0.08863
3384.71202	0.08888
3383.74772	0.08917
3382.78341	0.08946
3381.81911	0.08974
3380.8548	0.09002
3379.8905	0.09035
3378.92619	0.09069
3377.96189	0.09099
3376.99758	0.09128
3376.03328	0.0916
3375.06897	0.09197
3374.10466	0.09237
3373.14036	0.09277
3372.17605	0.09311
3371.21175	0.09345
3370.24744	0.09383
3369.28314	0.0942
3368.31883	0.09456
3367.35453	0.0949
3366.39022	0.09525
3365.42592	0.09558
3364.46161	0.09593
3363.4973	0.09629
3362.533	0.09665
3361.56869	0.09699
3360.60439	0.0973
3359.64008	0.09759
3358.67578	0.09792
3357.71147	0.09829
3356.74717	0.0987
3355.78286	0.09913
3354.81856	0.0996
3353.85425	0.10008
3352.88995	0.10054
3351.92564	0.10099
3350.96133	0.1015
3349.99703	0.10205
3349.03272	0.10259
3348.06842	0.10309
3347.10411	0.10362
3346.13981	0.10421
3345.1755	0.10478
3344.2112	0.10535
3343.24689	0.10594
3342.28259	0.1065
3341.31828	0.10704
3340.35397	0.10757
3339.38967	0.10816
3338.42536	0.10878
3337.46106	0.10936
3336.49675	0.10998
3335.53245	0.1106
3334.56814	0.11113
3333.60384	0.11165
3332.63953	0.11225
3331.67523	0.11285
3330.71092	0.11339
3329.74661	0.11393
3328.78231	0.11455
3327.818	0.11519
3326.8537	0.1158
3325.88939	0.1164
3324.92509	0.11706
3323.96078	0.11775
3322.99648	0.11841
3322.03217	0.11902
3321.06787	0.11965
3320.10356	0.12033
3319.13926	0.12103
3318.17495	0.12172
3317.21064	0.12243
3316.24634	0.1232
3315.28203	0.12393
3314.31773	0.12463
3313.35342	0.12538
3312.38912	0.12618
3311.42481	0.12701
3310.46051	0.12786
3309.4962	0.12873
3308.5319	0.1296
3307.56759	0.13041
3306.60328	0.13124
3305.63898	0.13212
3304.67467	0.13295
3303.71037	0.13379
3302.74606	0.13469
3301.78176	0.1355
3300.81745	0.13626
3299.85315	0.13709
3298.88884	0.138
3297.92454	0.13889
3296.96023	0.13978
3295.99593	0.14066
3295.03162	0.1416
3294.06731	0.14255
3293.10301	0.14349
3292.1387	0.14444
3291.1744	0.14544
3290.21009	0.14647
3289.24579	0.14753
3288.28148	0.14859
3287.31718	0.14968
3286.35287	0.15081
3285.38857	0.15201
3284.42426	0.15325
3283.45995	0.15453
3282.49565	0.15585
3281.53134	0.15723
3280.56704	0.15868
3279.60273	0.16018
3278.63843	0.16176
3277.67412	0.16341
3276.70982	0.16513
3275.74551	0.16693
3274.78121	0.16882
3273.8169	0.17082
3272.8526	0.17291
3271.88829	0.17511
3270.92398	0.17745
3269.95968	0.1799
3268.99537	0.18245
3268.03107	0.18506
3267.06676	0.18777
3266.10246	0.19068
3265.13815	0.1937
3264.17385	0.19684
3263.20954	0.20016
3262.24524	0.20358
3261.28093	0.20707
3260.31662	0.21074
3259.35232	0.21461
3258.38801	0.21863
3257.42371	0.22278
3256.4594	0.22704
3255.4951	0.23141
3254.53079	0.23591
3253.56649	0.24056
3252.60218	0.24533
3251.63788	0.25013
3250.67357	0.25498
3249.70927	0.25995
3248.74496	0.26492
3247.78065	0.26981
3246.81635	0.27456
3245.85204	0.27916
3244.88774	0.28355
3243.92343	0.28751
3242.95913	0.29101
3241.99482	0.29401
3241.03052	0.29638
3240.06621	0.29802
3239.10191	0.29897
3238.1376	0.29933
3237.17329	0.29913
3236.20899	0.29835
3235.24468	0.29708
3234.28038	0.29551
3233.31607	0.29372
3232.35177	0.29172
3231.38746	0.28954
3230.42316	0.28724
3229.45885	0.28489
3228.49455	0.28249
3227.53024	0.27998
3226.56594	0.27745
3225.60163	0.27502
3224.63732	0.27264
3223.67302	0.27034
3222.70871	0.26808
3221.74441	0.26593
3220.7801	0.26395
3219.8158	0.26218
3218.85149	0.26057
3217.88719	0.25909
3216.92288	0.25782
3215.95858	0.25679
3214.99427	0.25601
3214.02996	0.25547
3213.06566	0.25515
3212.10135	0.25503
3211.13705	0.2551
3210.17274	0.25532
3209.20844	0.25567
3208.24413	0.25607
3207.27983	0.25645
3206.31552	0.25673
3205.35122	0.25688
3204.38691	0.25683
3203.4226	0.25658
3202.4583	0.25613
3201.49399	0.25544
3200.52969	0.25451
3199.56538	0.25337
3198.60108	0.252
3197.63677	0.25038
3196.67247	0.24853
3195.70816	0.2465
3194.74386	0.24436
3193.77955	0.24213
3192.81525	0.23983
3191.85094	0.2375
3190.88663	0.23515
3189.92233	0.23282
3188.95802	0.23058
3187.99372	0.22839
3187.02941	0.22616
3186.06511	0.22396
3185.1008	0.22184
3184.1365	0.21979
3183.17219	0.21776
3182.20789	0.21574
3181.24358	0.21379
3180.27927	0.2119
3179.31497	0.21006
3178.35066	0.20831
3177.38636	0.20666
3176.42205	0.20511
3175.45775	0.20364
3174.49344	0.20224
3173.52914	0.20089
3172.56483	0.19957
3171.60053	0.19842
3170.63622	0.19738
3169.67192	0.19639
3168.70761	0.19545
3167.7433	0.19455
3166.779	0.19359
3165.81469	0.19265
3164.85039	0.19182
3163.88608	0.19107
3162.92178	0.1904
3161.95747	0.18972
3160.99317	0.18907
3160.02886	0.18852
3159.06456	0.18815
3158.10025	0.18795
3157.13594	0.18783
3156.17164	0.18783
3155.20733	0.18799
3154.24303	0.18824
3153.27872	0.1886
3152.31442	0.18918
3151.35011	0.19002
3150.38581	0.19107
3149.4215	0.19239
3148.4572	0.1941
3147.49289	0.1963
3146.52859	0.19918
3145.56428	0.20295
3144.59997	0.20768
3143.63567	0.21315
3142.67136	0.21868
3141.70706	0.2233
3140.74275	0.22595
3139.77845	0.22615
3138.81414	0.22426
3137.84984	0.22116
3136.88553	0.21769
3135.92123	0.21441
3134.95692	0.2116
3133.99261	0.20943
3133.02831	0.20791
3132.064	0.20696
3131.0997	0.20641
3130.13539	0.20615
3129.17109	0.20607
3128.20678	0.20604
3127.24248	0.20593
3126.27817	0.20574
3125.31387	0.20545
3124.34956	0.20505
3123.38526	0.20457
3122.42095	0.20405
3121.45664	0.20353
3120.49234	0.20306
3119.52803	0.20267
3118.56373	0.20235
3117.59942	0.20213
3116.63512	0.20195
3115.67081	0.20181
3114.70651	0.20171
3113.7422	0.20158
3112.7779	0.20149
3111.81359	0.20145
3110.84928	0.20142
3109.88498	0.20142
3108.92067	0.20146
3107.95637	0.20159
3106.99206	0.20184
3106.02776	0.20223
3105.06345	0.20277
3104.09915	0.20337
3103.13484	0.20397
3102.17054	0.20456
3101.20623	0.20521
3100.24193	0.20597
3099.27762	0.20676
3098.31331	0.2076
3097.34901	0.20856
3096.3847	0.20962
3095.4204	0.21083
3094.45609	0.21229
3093.49179	0.21389
3092.52748	0.21561
3091.56318	0.21739
3090.59887	0.21911
3089.63457	0.22074
3088.67026	0.22224
3087.70595	0.2236
3086.74165	0.22484
3085.77734	0.22601
3084.81304	0.22719
3083.84873	0.22841
3082.88443	0.22972
3081.92012	0.23123
3080.95582	0.233
3079.99151	0.23505
3079.02721	0.23736
3078.0629	0.23993
3077.09859	0.24277
3076.13429	0.24587
3075.16998	0.24919
3074.20568	0.25279
3073.24137	0.25666
3072.27707	0.2607
3071.31276	0.26485
3070.34846	0.26907
3069.38415	0.27333
3068.41985	0.27756
3067.45554	0.28171
3066.49124	0.28567
3065.52693	0.28935
3064.56262	0.2927
3063.59832	0.29562
3062.63401	0.298
3061.66971	0.29982
3060.7054	0.30104
3059.7411	0.30158
3058.77679	0.30147
3057.81249	0.30075
3056.84818	0.29936
3055.88388	0.29737
3054.91957	0.29487
3053.95526	0.29195
3052.99096	0.28868
3052.02665	0.28515
3051.06235	0.2814
3050.09804	0.27752
3049.13374	0.27356
3048.16943	0.26955
3047.20513	0.26553
3046.24082	0.26156
3045.27652	0.25766
3044.31221	0.25389
3043.34791	0.25029
3042.3836	0.24685
3041.41929	0.24358
3040.45499	0.24045
3039.49068	0.23746
3038.52638	0.23461
3037.56207	0.23193
3036.59777	0.22939
3035.63346	0.22698
3034.66916	0.22465
3033.70485	0.22239
3032.74055	0.22025
3031.77624	0.2183
3030.81193	0.21652
3029.84763	0.21484
3028.88332	0.21326
3027.91902	0.21176
3026.95471	0.21034
3025.99041	0.20902
3025.0261	0.20778
3024.0618	0.20664
3023.09749	0.20554
3022.13319	0.20441
3021.16888	0.20322
3020.20458	0.20203
3019.24027	0.20093
3018.27596	0.19995
3017.31166	0.1991
3016.34735	0.19834
3015.38305	0.1976
3014.41874	0.19694
3013.45444	0.19644
3012.49013	0.19612
3011.52583	0.19603
3010.56152	0.19618
3009.59722	0.19653
3008.63291	0.19711
3007.6686	0.19797
3006.7043	0.1991
3005.73999	0.20049
3004.77569	0.20194
3003.81138	0.20323
3002.84708	0.20423
3001.88277	0.20496
3000.91847	0.20569
2999.95416	0.20667
2998.98986	0.20814
2998.02555	0.21012
2997.06125	0.21268
2996.09694	0.21574
2995.13263	0.21922
2994.16833	0.22309
2993.20402	0.22731
2992.23972	0.23178
2991.27541	0.23627
2990.31111	0.24039
2989.3468	0.24383
2988.3825	0.24632
2987.41819	0.24775
2986.45389	0.24826
2985.48958	0.24804
2984.52527	0.24742
2983.56097	0.2468
2982.59666	0.24653
2981.63236	0.24684
2980.66805	0.24792
2979.70375	0.2498
2978.73944	0.25233
2977.77514	0.25516
2976.81083	0.25795
2975.84653	0.2605
2974.88222	0.26262
2973.91792	0.2642
2972.95361	0.26514
2971.9893	0.2654
2971.025	0.26493
2970.06069	0.26373
2969.09639	0.26187
2968.13208	0.25942
2967.16778	0.25629
2966.20347	0.25244
2965.23917	0.24792
2964.27486	0.24292
2963.31056	0.23784
2962.34625	0.2331
2961.38194	0.22898
2960.41764	0.22547
2959.45333	0.22233
2958.48903	0.21939
2957.52472	0.21658
2956.56042	0.21407
2955.59611	0.21212
2954.63181	0.21096
2953.6675	0.21079
2952.7032	0.21172
2951.73889	0.21379
2950.77458	0.21702
2949.81028	0.22156
2948.84597	0.22754
2947.88167	0.23486
2946.91736	0.24305
2945.95306	0.25141
2944.98875	0.25887
2944.02445	0.26433
2943.06014	0.26702
2942.09584	0.26681
2941.13153	0.26413
2940.16723	0.25965
2939.20292	0.25403
2938.23861	0.24781
2937.27431	0.2414
2936.31	0.23513
2935.3457	0.22918
2934.38139	0.22375
2933.41709	0.21882
2932.45278	0.2142
2931.48848	0.20989
2930.52417	0.20596
2929.55987	0.20241
2928.59556	0.19925
2927.63125	0.19648
2926.66695	0.19405
2925.70264	0.19195
2924.73834	0.19013
2923.77403	0.18854
2922.80973	0.1872
2921.84542	0.18611
2920.88112	0.18527
2919.91681	0.18468
2918.95251	0.18427
2917.9882	0.18399
2917.0239	0.1838
2916.05959	0.18372
2915.09528	0.18373
2914.13098	0.18373
2913.16667	0.18369
2912.20237	0.18364
2911.23806	0.18353
2910.27376	0.18341
2909.30945	0.18336
2908.34515	0.18339
2907.38084	0.18348
2906.41654	0.18364
2905.45223	0.18377
2904.48792	0.18372
2903.52362	0.18345
2902.55931	0.18284
2901.59501	0.18182
2900.6307	0.18045
2899.6664	0.1788
2898.70209	0.1769
2897.73779	0.17482
2896.77348	0.17275
2895.80918	0.17075
2894.84487	0.16882
2893.88057	0.16701
2892.91626	0.16536
2891.95195	0.16389
2890.98765	0.16261
2890.02334	0.16153
2889.05904	0.16063
2888.09473	0.1599
2887.13043	0.15932
2886.16612	0.15891
2885.20182	0.15871
2884.23751	0.15869
2883.27321	0.15886
2882.3089	0.1592
2881.34459	0.15966
2880.38029	0.16024
2879.41598	0.16093
2878.45168	0.1617
2877.48737	0.16251
2876.52307	0.1632
2875.55876	0.16371
2874.59446	0.16397
2873.63015	0.16391
2872.66585	0.16349
2871.70154	0.16273
2870.73724	0.16161
2869.77293	0.16015
2868.80862	0.1584
2867.84432	0.15645
2866.88001	0.15444
2865.91571	0.15246
2864.9514	0.15054
2863.9871	0.1487
2863.02279	0.14697
2862.05849	0.1453
2861.09418	0.14369
2860.12988	0.14211
2859.16557	0.1406
2858.20126	0.13918
2857.23696	0.13778
2856.27265	0.13638
2855.30835	0.13502
2854.34404	0.1337
2853.37974	0.13241
2852.41543	0.1312
2851.45113	0.13004
2850.48682	0.12892
2849.52252	0.12779
2848.55821	0.12673
2847.59391	0.12571
2846.6296	0.12477
2845.66529	0.12388
2844.70099	0.12299
2843.73668	0.12215
2842.77238	0.12129
2841.80807	0.12041
2840.84377	0.1196
2839.87946	0.11887
2838.91516	0.11824
2837.95085	0.11767
2836.98655	0.1171
2836.02224	0.11653
2835.05793	0.11601
2834.09363	0.11556
2833.12932	0.11526
2832.16502	0.11505
2831.20071	0.11489
2830.23641	0.11475
2829.2721	0.11463
2828.3078	0.11452
2827.34349	0.1145
2826.37919	0.11455
2825.41488	0.11456
2824.45057	0.11455
2823.48627	0.11454
2822.52196	0.11457
2821.55766	0.11469
2820.59335	0.11497
2819.62905	0.11536
2818.66474	0.11587
2817.70044	0.11655
2816.73613	0.11745
2815.77183	0.11861
2814.80752	0.12001
2813.84322	0.12152
2812.87891	0.12288
2811.9146	0.12369
2810.9503	0.12367
2809.98599	0.12281
2809.02169	0.12142
2808.05738	0.11984
2807.09308	0.11827
2806.12877	0.11684
2805.16447	0.11548
2804.20016	0.11419
2803.23586	0.11302
2802.27155	0.11197
2801.30724	0.11094
2800.34294	0.10995
2799.37863	0.10901
2798.41433	0.10807
2797.45002	0.10714
2796.48572	0.10623
2795.52141	0.10538
2794.55711	0.10458
2793.5928	0.1038
2792.6285	0.10303
2791.66419	0.10224
2790.69989	0.10149
2789.73558	0.10084
2788.77127	0.10021
2787.80697	0.09956
2786.84266	0.09889
2785.87836	0.09826
2784.91405	0.09767
2783.94975	0.09711
2782.98544	0.0966
2782.02114	0.09608
2781.05683	0.09555
2780.09253	0.09503
2779.12822	0.09455
2778.16391	0.09409
2777.19961	0.09364
2776.2353	0.09323
2775.271	0.09281
2774.30669	0.09239
2773.34239	0.09194
2772.37808	0.09153
2771.41378	0.09118
2770.44947	0.09082
2769.48517	0.09048
2768.52086	0.09016
2767.55656	0.08979
2766.59225	0.08944
2765.62794	0.08915
2764.66364	0.08894
2763.69933	0.08876
2762.73503	0.08854
2761.77072	0.08831
2760.80642	0.08809
2759.84211	0.08794
2758.87781	0.08789
2757.9135	0.08789
2756.9492	0.0879
2755.98489	0.08791
2755.02058	0.08787
2754.05628	0.08778
2753.09197	0.08772
2752.12767	0.08768
2751.16336	0.08762
2750.19906	0.08748
2749.23475	0.08723
2748.27045	0.08693
2747.30614	0.08668
2746.34184	0.08649
2745.37753	0.08636
2744.41323	0.08618
2743.44892	0.08596
2742.48461	0.08566
2741.52031	0.08536
2740.556	0.08513
2739.5917	0.08502
2738.62739	0.08499
2737.66309	0.08495
2736.69878	0.08481
2735.73448	0.08464
2734.77017	0.08451
2733.80587	0.08447
2732.84156	0.0845
2731.87725	0.08453
2730.91295	0.08453
2729.94864	0.08445
2728.98434	0.08435
2728.02003	0.08432
2727.05573	0.08442
2726.09142	0.0846
2725.12712	0.08478
2724.16281	0.08493
2723.19851	0.08504
2722.2342	0.08514
2721.2699	0.0853
2720.30559	0.08556
2719.34128	0.08581
2718.37698	0.086
2717.41267	0.08605
2716.44837	0.086
2715.48406	0.08589
2714.51976	0.08576
2713.55545	0.08564
2712.59115	0.08543
2711.62684	0.08506
2710.66254	0.08453
2709.69823	0.08395
2708.73392	0.08341
2707.76962	0.08292
2706.80531	0.08243
2705.84101	0.08187
2704.8767	0.08121
2703.9124	0.08052
2702.94809	0.07984
2701.98379	0.07925
2701.01948	0.07875
2700.05518	0.07824
2699.09087	0.07771
2698.12656	0.07712
2697.16226	0.07651
2696.19795	0.07591
2695.23365	0.07545
2694.26934	0.07507
2693.30504	0.07463
2692.34073	0.07412
2691.37643	0.07358
2690.41212	0.07302
2689.44782	0.07252
2688.48351	0.07213
2687.51921	0.0718
2686.5549	0.07142
2685.59059	0.07096
2684.62629	0.07047
2683.66198	0.07002
2682.69768	0.06967
2681.73337	0.06939
2680.76907	0.0691
2679.80476	0.06874
2678.84046	0.06836
2677.87615	0.06801
2676.91185	0.0677
2675.94754	0.06746
2674.98323	0.06728
2674.01893	0.06704
2673.05462	0.06672
2672.09032	0.06638
2671.12601	0.06607
2670.16171	0.06582
2669.1974	0.06565
2668.2331	0.06549
2667.26879	0.06526
2666.30449	0.06495
2665.34018	0.0646
2664.37588	0.06432
2663.41157	0.06416
2662.44726	0.06407
2661.48296	0.06392
2660.51865	0.06369
2659.55435	0.06339
2658.59004	0.06309
2657.62574	0.06286
2656.66143	0.06272
2655.69713	0.0626
2654.73282	0.0624
2653.76852	0.06209
2652.80421	0.06172
2651.8399	0.06141
2650.8756	0.06122
2649.91129	0.0611
2648.94699	0.06092
2647.98268	0.06061
2647.01838	0.06024
2646.05407	0.05989
2645.08977	0.05964
2644.12546	0.05947
2643.16116	0.05931
2642.19685	0.0591
2641.23255	0.05884
2640.26824	0.05854
2639.30393	0.05829
2638.33963	0.05811
2637.37532	0.05797
2636.41102	0.05781
2635.44671	0.05754
2634.48241	0.05716
2633.5181	0.05679
2632.5538	0.05651
2631.58949	0.05628
2630.62519	0.05607
2629.66088	0.05582
2628.69657	0.05545
2627.73227	0.055
2626.76796	0.05458
2625.80366	0.05428
2624.83935	0.05406
2623.87505	0.05381
2622.91074	0.05346
2621.94644	0.053
2620.98213	0.05252
2620.01783	0.05218
2619.05352	0.05199
2618.08922	0.05183
2617.12491	0.05161
2616.1606	0.05128
2615.1963	0.05094
2614.23199	0.05068
2613.26769	0.05058
2612.30338	0.05057
2611.33908	0.05058
2610.37477	0.05052
2609.41047	0.05036
2608.44616	0.05019
2607.48186	0.05009
2606.51755	0.0501
2605.55324	0.05015
2604.58894	0.05015
2603.62463	0.05004
2602.66033	0.04988
2601.69602	0.04976
2600.73172	0.04977
2599.76741	0.04989
2598.80311	0.04997
2597.8388	0.04994
2596.8745	0.04983
2595.91019	0.04969
2594.94589	0.04962
2593.98158	0.04965
2593.01727	0.04971
2592.05297	0.04966
2591.08866	0.04944
2590.12436	0.04912
2589.16005	0.04878
2588.19575	0.04852
2587.23144	0.04832
2586.26714	0.04814
2585.30283	0.0478
2584.33853	0.04732
2583.37422	0.04681
2582.40991	0.04641
2581.44561	0.04615
2580.4813	0.04593
2579.517	0.04569
2578.55269	0.04533
2577.58839	0.0449
2576.62408	0.04452
2575.65978	0.04426
2574.69547	0.04411
2573.73117	0.04398
2572.76686	0.04376
2571.80255	0.04341
2570.83825	0.04299
2569.87394	0.04264
2568.90964	0.04245
2567.94533	0.04232
2566.98103	0.04212
2566.01672	0.04177
2565.05242	0.04133
2564.08811	0.0409
2563.12381	0.04062
2562.1595	0.04045
2561.1952	0.04031
2560.23089	0.04012
2559.26658	0.03983
2558.30228	0.03947
2557.33797	0.03919
2556.37367	0.0391
2555.40936	0.03909
2554.44506	0.03902
2553.48075	0.03885
2552.51645	0.03857
2551.55214	0.03831
2550.58784	0.03815
2549.62353	0.0381
2548.65922	0.03806
2547.69492	0.03797
2546.73061	0.03773
2545.76631	0.03743
2544.802	0.03718
2543.8377	0.03707
2542.87339	0.03704
2541.90909	0.03699
2540.94478	0.03683
2539.98048	0.03655
2539.01617	0.03629
2538.05187	0.03614
2537.08756	0.03611
2536.12325	0.03615
2535.15895	0.03611
2534.19464	0.03592
2533.23034	0.03562
2532.26603	0.03537
2531.30173	0.03529
2530.33742	0.03528
2529.37312	0.03516
2528.40881	0.03493
2527.44451	0.0346
2526.4802	0.03426
2525.51589	0.03404
2524.55159	0.03393
2523.58728	0.03386
2522.62298	0.03373
2521.65867	0.03349
2520.69437	0.03319
2519.73006	0.03292
2518.76576	0.03276
2517.80145	0.03271
2516.83715	0.03268
2515.87284	0.03258
2514.90854	0.03235
2513.94423	0.03206
2512.97992	0.03186
2512.01562	0.03178
2511.05131	0.03176
2510.08701	0.03172
2509.1227	0.03153
2508.1584	0.03126
2507.19409	0.03101
2506.22979	0.03085
2505.26548	0.03078
2504.30118	0.03074
2503.33687	0.03059
2502.37256	0.03034
2501.40826	0.03008
2500.44395	0.02987
2499.47965	0.02977
2498.51534	0.02976
2497.55104	0.0297
2496.58673	0.02954
2495.62243	0.02931
2494.65812	0.02908
2493.69382	0.0289
2492.72951	0.02883
2491.76521	0.02881
2490.8009	0.02873
2489.83659	0.02848
2488.87229	0.02817
2487.90798	0.02793
2486.94368	0.02781
2485.97937	0.02777
2485.01507	0.02769
2484.05076	0.02747
2483.08646	0.02719
2482.12215	0.02695
2481.15785	0.02677
2480.19354	0.0267
2479.22923	0.02666
2478.26493	0.02654
2477.30062	0.02635
2476.33632	0.02614
2475.37201	0.026
2474.40771	0.02591
2473.4434	0.02589
2472.4791	0.02586
2471.51479	0.02574
2470.55049	0.02552
2469.58618	0.02526
2468.62188	0.02511
2467.65757	0.02504
2466.69326	0.02497
2465.72896	0.02482
2464.76465	0.02455
2463.80035	0.02427
2462.83604	0.02404
2461.87174	0.02395
2460.90743	0.02396
2459.94313	0.02392
2458.97882	0.02377
2458.01452	0.02355
2457.05021	0.02335
2456.0859	0.02329
2455.1216	0.02335
2454.15729	0.02337
2453.19299	0.02334
2452.22868	0.02324
2451.26438	0.02309
2450.30007	0.023
2449.33577	0.02305
2448.37146	0.02315
2447.40716	0.0232
2446.44285	0.02313
2445.47854	0.02299
2444.51424	0.02285
2443.54993	0.02281
2442.58563	0.02284
2441.62132	0.02289
2440.65702	0.02286
2439.69271	0.02269
2438.72841	0.02244
2437.7641	0.02224
2436.7998	0.02219
2435.83549	0.02224
2434.87119	0.02229
2433.90688	0.02219
2432.94257	0.02199
2431.97827	0.0218
2431.01396	0.02169
2430.04966	0.0217
2429.08535	0.02178
2428.12105	0.02178
2427.15674	0.02161
2426.19244	0.02134
2425.22813	0.02111
2424.26383	0.02097
2423.29952	0.02096
2422.33521	0.02095
2421.37091	0.02079
2420.4066	0.02048
2419.4423	0.02014
2418.47799	0.01992
2417.51369	0.01985
2416.54938	0.01988
2415.58508	0.01986
2414.62077	0.01974
2413.65647	0.01952
2412.69216	0.0193
2411.72786	0.0192
2410.76355	0.01925
2409.79924	0.01938
2408.83494	0.01942
2407.87063	0.01931
2406.90633	0.0191
2405.94202	0.01896
2404.97772	0.01897
2404.01341	0.01908
2403.04911	0.01919
2402.0848	0.01916
2401.1205	0.01899
2400.15619	0.01877
2399.19188	0.01862
2398.22758	0.01861
2397.26327	0.01869
2396.29897	0.01872
2395.33466	0.01859
2394.37036	0.01837
2393.40605	0.01818
2392.44175	0.0181
2391.47744	0.01812
2390.51314	0.01818
2389.54883	0.01818
2388.58453	0.01807
2387.62022	0.01787
2386.65591	0.01771
2385.69161	0.01766
2384.7273	0.0177
2383.763	0.01777
2382.79869	0.01771
2381.83439	0.01751
2380.87008	0.01729
2379.90578	0.01718
2378.94147	0.01718
2377.97717	0.01724
2377.01286	0.01728
2376.04855	0.01721
2375.08425	0.01705
2374.11994	0.01691
2373.15564	0.01686
2372.19133	0.01691
2371.22703	0.01698
2370.26272	0.01695
2369.29842	0.01682
2368.33411	0.01661
2367.36981	0.01646
2366.4055	0.0164
2365.4412	0.01642
2364.47689	0.01642
2363.51258	0.01632
2362.54828	0.01614
2361.58397	0.01597
2360.61967	0.01589
2359.65536	0.01588
2358.69106	0.01592
2357.72675	0.01593
2356.76245	0.01587
2355.79814	0.01573
2354.83384	0.01556
2353.86953	0.01544
2352.90522	0.01537
2351.94092	0.01528
2350.97661	0.01516
2350.01231	0.01501
2349.048	0.01482
2348.0837	0.01468
2347.11939	0.01461
2346.15509	0.01458
2345.19078	0.01455
2344.22648	0.0145
2343.26217	0.01442
2342.29786	0.01435
2341.33356	0.01433
2340.36925	0.01434
2339.40495	0.01436
2338.44064	0.01436
2337.47634	0.01433
2336.51203	0.01428
2335.54773	0.0142
2334.58342	0.01413
2333.61912	0.01406
2332.65481	0.01398
2331.69051	0.01387
2330.7262	0.01376
2329.76189	0.01365
2328.79759	0.01355
2327.83328	0.01347
2326.86898	0.01338
2325.90467	0.01325
2324.94037	0.01316
2323.97606	0.01311
2323.01176	0.01309
2322.04745	0.01304
2321.08315	0.01296
2320.11884	0.01284
2319.15453	0.01267
2318.19023	0.01255
2317.22592	0.01248
2316.26162	0.01245
2315.29731	0.01237
2314.33301	0.01226
2313.3687	0.01211
2312.4044	0.01199
2311.44009	0.01193
2310.47579	0.01195
2309.51148	0.01199
2308.54718	0.01198
2307.58287	0.01189
2306.61856	0.01175
2305.65426	0.01166
2304.68995	0.01164
2303.72565	0.01169
2302.76134	0.01173
2301.79704	0.0117
2300.83273	0.01153
2299.86843	0.01136
2298.90412	0.01127
2297.93982	0.01127
2296.97551	0.01132
2296.0112	0.01132
2295.0469	0.01121
2294.08259	0.01105
2293.11829	0.01087
2292.15398	0.01077
2291.18968	0.0108
2290.22537	0.01087
2289.26107	0.01087
2288.29676	0.01074
2287.33246	0.01053
2286.36815	0.01039
2285.40385	0.01038
2284.43954	0.01047
2283.47523	0.01058
2282.51093	0.01057
2281.54662	0.01043
2280.58232	0.01026
2279.61801	0.01019
2278.65371	0.01025
2277.6894	0.01038
2276.7251	0.01046
2275.76079	0.01039
2274.79649	0.0102
2273.83218	0.01003
2272.86787	0.00998
2271.90357	0.01003
2270.93926	0.0101
2269.97496	0.01008
2269.01065	0.00993
2268.04635	0.00971
2267.08204	0.00956
2266.11774	0.00955
2265.15343	0.00963
2264.18913	0.00971
2263.22482	0.0097
2262.26052	0.00954
2261.29621	0.00933
2260.3319	0.00924
2259.3676	0.00928
2258.40329	0.00938
2257.43899	0.00943
2256.47468	0.00937
2255.51038	0.00918
2254.54607	0.00897
2253.58177	0.0089
2252.61746	0.00899
2251.65316	0.0091
2250.68885	0.0091
2249.72454	0.00899
2248.76024	0.00882
2247.79593	0.00871
2246.83163	0.00875
2245.86732	0.00894
2244.90302	0.0091
2243.93871	0.00915
2242.97441	0.00907
2242.0101	0.00898
2241.0458	0.00901
2240.08149	0.00914
2239.11719	0.00935
2238.15288	0.0095
2237.18857	0.00956
2236.22427	0.00954
2235.25996	0.0095
2234.29566	0.00954
2233.33135	0.00968
2232.36705	0.00991
2231.40274	0.01005
2230.43844	0.01004
2229.47413	0.00997
2228.50983	0.00995
2227.54552	0.01009
2226.58121	0.01032
2225.61691	0.01055
2224.6526	0.01068
2223.6883	0.01072
2222.72399	0.01073
2221.75969	0.01077
2220.79538	0.01088
2219.83108	0.01098
2218.86677	0.01097
2217.90247	0.01083
2216.93816	0.0106
2215.97385	0.01037
2215.00955	0.01022
2214.04524	0.01014
2213.08094	0.01002
2212.11663	0.00985
2211.15233	0.00962
2210.18802	0.00936
2209.22372	0.00917
2208.25941	0.00905
2207.29511	0.00901
2206.3308	0.00896
2205.3665	0.00883
2204.40219	0.00867
2203.43788	0.00853
2202.47358	0.00843
2201.50927	0.00841
2200.54497	0.00843
2199.58066	0.00843
2198.61636	0.00836
2197.65205	0.00826
2196.68775	0.00821
2195.72344	0.00824
2194.75914	0.00831
2193.79483	0.00836
2192.83052	0.00834
2191.86622	0.00825
2190.90191	0.00818
2189.93761	0.00815
2188.9733	0.00815
2188.009	0.00816
2187.04469	0.00811
2186.08039	0.00802
2185.11608	0.00794
2184.15178	0.00789
2183.18747	0.00785
2182.22317	0.00786
2181.25886	0.00785
2180.29455	0.00778
2179.33025	0.0077
2178.36594	0.00762
2177.40164	0.00755
2176.43733	0.00752
2175.47303	0.00746
2174.50872	0.00739
2173.54442	0.00731
2172.58011	0.00722
2171.61581	0.00716
2170.6515	0.00715
2169.68719	0.00712
2168.72289	0.0071
2167.75858	0.00709
2166.79428	0.00703
2165.82997	0.00701
2164.86567	0.00701
2163.90136	0.00702
2162.93706	0.00703
2161.97275	0.00699
2161.00845	0.0069
2160.04414	0.00684
2159.07984	0.00684
2158.11553	0.00684
2157.15122	0.00685
2156.18692	0.00684
2155.22261	0.0068
2154.25831	0.00679
2153.294	0.00679
2152.3297	0.00683
2151.36539	0.0069
2150.40109	0.00698
2149.43678	0.00707
2148.47248	0.00711
2147.50817	0.00713
2146.54386	0.00717
2145.57956	0.0073
2144.61525	0.00745
2143.65095	0.00758
2142.68664	0.00768
2141.72234	0.00776
2140.75803	0.00784
2139.79373	0.00796
2138.82942	0.00811
2137.86512	0.00825
2136.90081	0.00836
2135.93651	0.00842
2134.9722	0.00845
2134.00789	0.00846
2133.04359	0.00843
2132.07928	0.00836
2131.11498	0.00824
2130.15067	0.0081
2129.18637	0.0079
2128.22206	0.00768
2127.25776	0.00746
2126.29345	0.00728
2125.32915	0.00714
2124.36484	0.00701
2123.40053	0.00687
2122.43623	0.00674
2121.47192	0.00664
2120.50762	0.00656
2119.54331	0.00652
2118.57901	0.00646
2117.6147	0.00638
2116.6504	0.00631
2115.68609	0.00624
2114.72179	0.00616
2113.75748	0.00611
2112.79318	0.0061
2111.82887	0.00606
2110.86456	0.006
2109.90026	0.00595
2108.93595	0.0059
2107.97165	0.00586
2107.00734	0.00581
2106.04304	0.00578
2105.07873	0.00573
2104.11443	0.00567
2103.15012	0.00566
2102.18582	0.00564
2101.22151	0.0056
2100.2572	0.00558
2099.2929	0.00555
2098.32859	0.00552
2097.36429	0.00554
2096.39998	0.00558
2095.43568	0.00561
2094.47137	0.0056
2093.50707	0.00557
2092.54276	0.00552
2091.57846	0.00548
2090.61415	0.00546
2089.64984	0.0055
2088.68554	0.00553
2087.72123	0.00551
2086.75693	0.00544
2085.79262	0.00536
2084.82832	0.00535
2083.86401	0.00542
2082.89971	0.00551
2081.9354	0.00557
2080.9711	0.00554
2080.00679	0.00546
2079.04249	0.0054
2078.07818	0.00543
2077.11387	0.00554
2076.14957	0.00566
2075.18526	0.00573
2074.22096	0.0057
2073.25665	0.00562
2072.29235	0.00556
2071.32804	0.0056
2070.36374	0.00573
2069.39943	0.00581
2068.43513	0.00578
2067.47082	0.00563
2066.50651	0.00548
2065.54221	0.00541
2064.5779	0.00546
2063.6136	0.00559
2062.64929	0.00569
2061.68499	0.00566
2060.72068	0.00551
2059.75638	0.00539
2058.79207	0.00543
2057.82777	0.00559
2056.86346	0.00576
2055.89916	0.00579
2054.93485	0.0057
2053.97054	0.00556
2053.00624	0.00548
2052.04193	0.00555
2051.07763	0.00574
2050.11332	0.00589
2049.14902	0.00587
2048.18471	0.00571
2047.22041	0.00552
2046.2561	0.00544
2045.2918	0.00556
2044.32749	0.00579
2043.36318	0.00592
2042.39888	0.00587
2041.43457	0.00571
2040.47027	0.00559
2039.50596	0.00563
2038.54166	0.00587
2037.57735	0.00615
2036.61305	0.00629
2035.64874	0.00624
2034.68444	0.00609
2033.72013	0.006
2032.75583	0.00608
2031.79152	0.00631
2030.82721	0.00651
2029.86291	0.0065
2028.8986	0.00627
2027.9343	0.00602
2026.96999	0.0059
2026.00569	0.00599
2025.04138	0.00619
2024.07708	0.00633
2023.11277	0.00626
2022.14847	0.00604
2021.18416	0.0059
2020.21985	0.00596
2019.25555	0.00622
2018.29124	0.00656
2017.32694	0.00677
2016.36263	0.00676
2015.39833	0.00667
2014.43402	0.00671
2013.46972	0.00694
2012.50541	0.00734
2011.54111	0.00772
2010.5768	0.00791
2009.6125	0.00788
2008.64819	0.00776
2007.68388	0.00774
2006.71958	0.0079
2005.75527	0.00819
2004.79097	0.0084
2003.82666	0.00841
2002.86236	0.00828
2001.89805	0.00815
2000.93375	0.00825
1999.96944	0.00854
1999.00514	0.00888
1998.04083	0.00907
1997.07652	0.00906
1996.11222	0.00896
1995.14791	0.00895
1994.18361	0.00912
1993.2193	0.00944
1992.255	0.00973
1991.29069	0.00978
1990.32639	0.00958
1989.36208	0.00939
1988.39778	0.00932
1987.43347	0.00933
1986.46917	0.00944
1985.50486	0.00951
1984.54055	0.00938
1983.57625	0.0091
1982.61194	0.00881
1981.64764	0.00866
1980.68333	0.0087
1979.71903	0.00881
1978.75472	0.00884
1977.79042	0.00873
1976.82611	0.00854
1975.86181	0.00843
1974.8975	0.00851
1973.93319	0.00871
1972.96889	0.0089
1972.00458	0.00896
1971.04028	0.00888
1970.07597	0.00873
1969.11167	0.00871
1968.14736	0.00881
1967.18306	0.00892
1966.21875	0.00891
1965.25445	0.00874
1964.29014	0.00847
1963.32583	0.00819
1962.36153	0.00795
1961.39722	0.00776
1960.43292	0.00758
1959.46861	0.00736
1958.50431	0.00708
1957.54	0.00677
1956.5757	0.0065
1955.61139	0.00634
1954.64709	0.00624
1953.68278	0.00614
1952.71848	0.00602
1951.75417	0.00587
1950.78986	0.0057
1949.82556	0.0056
1948.86125	0.00555
1947.89695	0.00554
1946.93264	0.00555
1945.96834	0.00551
1945.00403	0.00542
1944.03973	0.00537
1943.07542	0.00544
1942.11112	0.00546
1941.14681	0.00539
1940.1825	0.00536
1939.2182	0.00539
1938.25389	0.00547
1937.28959	0.0056
1936.32528	0.00575
1935.36098	0.00591
1934.39667	0.00605
1933.43237	0.00624
1932.46806	0.00649
1931.50376	0.00679
1930.53945	0.00709
1929.57515	0.00731
1928.61084	0.00741
1927.64653	0.00749
1926.68223	0.00761
1925.71792	0.00779
1924.75362	0.00799
1923.78931	0.0082
1922.82501	0.00827
1921.8607	0.00819
1920.8964	0.00813
1919.93209	0.00823
1918.96779	0.00853
1918.00348	0.00883
1917.03917	0.00882
1916.07487	0.00866
1915.11056	0.00854
1914.14626	0.00853
1913.18195	0.00869
1912.21765	0.00895
1911.25334	0.00918
1910.28904	0.00929
1909.32473	0.00917
1908.36043	0.00903
1907.39612	0.00909
1906.43182	0.00932
1905.46751	0.0096
1904.5032	0.00981
1903.5389	0.00982
1902.57459	0.00969
1901.61029	0.00963
1900.64598	0.00982
1899.68168	0.0102
1898.71737	0.01059
1897.75307	0.01083
1896.78876	0.01089
1895.82446	0.01091
1894.86015	0.0111
1893.89584	0.01146
1892.93154	0.01198
1891.96723	0.01244
1891.00293	0.0127
1890.03862	0.01281
1889.07432	0.0128
1888.11001	0.01286
1887.14571	0.01316
1886.1814	0.01347
1885.2171	0.0136
1884.25279	0.01343
1883.28849	0.01306
1882.32418	0.01275
1881.35987	0.01271
1880.39557	0.0129
1879.43126	0.01311
1878.46696	0.01314
1877.50265	0.01297
1876.53835	0.01271
1875.57404	0.01265
1874.60974	0.01298
1873.64543	0.01353
1872.68113	0.01406
1871.71682	0.01437
1870.75251	0.01456
1869.78821	0.01483
1868.8239	0.01524
1867.8596	0.01579
1866.89529	0.01641
1865.93099	0.01686
1864.96668	0.01701
1864.00238	0.01698
1863.03807	0.01698
1862.07377	0.01726
1861.10946	0.01776
1860.14516	0.01828
1859.18085	0.01863
1858.21654	0.01878
1857.25224	0.01888
1856.28793	0.0192
1855.32363	0.01983
1854.35932	0.02068
1853.39502	0.0215
1852.43071	0.02212
1851.46641	0.02256
1850.5021	0.02304
1849.5378	0.02379
1848.57349	0.02484
1847.60918	0.02596
1846.64488	0.0269
1845.68057	0.02778
1844.71627	0.02875
1843.75196	0.02943
1842.78766	0.02996
1841.82335	0.03081
1840.85905	0.03181
1839.89474	0.03267
1838.93044	0.0334
1837.96613	0.03413
1837.00182	0.03503
1836.03752	0.03614
1835.07321	0.0375
1834.10891	0.03894
1833.1446	0.04034
1832.1803	0.04174
1831.21599	0.04332
1830.25169	0.04517
1829.28738	0.04695
1828.32308	0.04868
1827.35877	0.0505
1826.39447	0.05238
1825.43016	0.05426
1824.46585	0.05589
1823.50155	0.05747
1822.53724	0.05926
1821.57294	0.06115
1820.60863	0.06308
1819.64433	0.06508
1818.68002	0.06725
1817.71572	0.06959
1816.75141	0.07211
1815.78711	0.07493
1814.8228	0.07812
1813.85849	0.08165
1812.89419	0.08545
1811.92988	0.08953
1810.96558	0.0939
1810.00127	0.09859
1809.03697	0.1037
1808.07266	0.10938
1807.10836	0.11555
1806.14405	0.12211
1805.17975	0.1291
1804.21544	0.1365
1803.25114	0.14454
1802.28683	0.15335
1801.32252	0.16288
1800.35822	0.17308
1799.39391	0.18387
1798.42961	0.19514
1797.4653	0.20707
1796.501	0.21987
1795.53669	0.23357
1794.57239	0.24823
1793.60808	0.26406
1792.64378	0.28106
1791.67947	0.29917
1790.71516	0.31892
1789.75086	0.34095
1788.78655	0.36554
1787.82225	0.39288
1786.85794	0.4228
1785.89364	0.45531
1784.92933	0.49021
1783.96503	0.5274
1783.00072	0.56722
1782.03642	0.60991
1781.07211	0.6556
1780.10781	0.70412
1779.1435	0.75525
1778.17919	0.80831
1777.21489	0.86189
1776.25058	0.91325
1775.28628	0.95753
1774.32197	0.98835
1773.35767	1
1772.39336	0.98888
1771.42906	0.95541
1770.46475	0.90503
1769.50045	0.84571
1768.53614	0.78431
1767.57183	0.72539
1766.60753	0.67219
1765.64322	0.62624
1764.67892	0.58732
1763.71461	0.55473
1762.75031	0.5277
1761.786	0.50483
1760.8217	0.48474
1759.85739	0.46705
1758.89309	0.45166
1757.92878	0.43865
1756.96448	0.42881
1756.00017	0.42278
1755.03586	0.42168
1754.07156	0.42732
1753.10725	0.44192
1752.14295	0.46697
1751.17864	0.50004
1750.21434	0.53172
1749.25003	0.54872
1748.28573	0.54436
1747.32142	0.52774
1746.35712	0.51476
1745.39281	0.51148
1744.4285	0.50956
1743.4642	0.49699
1742.49989	0.47475
1741.53559	0.45585
1740.57128	0.45005
1739.60698	0.4585
1738.64267	0.47758
1737.67837	0.50223
1736.71406	0.52606
1735.74976	0.54218
1734.78545	0.54579
1733.82115	0.53485
1732.85684	0.51186
1731.89253	0.48195
1730.92823	0.44934
1729.96392	0.41673
1728.99962	0.38541
1728.03531	0.35633
1727.07101	0.32984
1726.1067	0.30604
1725.1424	0.28502
1724.17809	0.2668
1723.21379	0.2512
1722.24948	0.23762
1721.28517	0.22539
1720.32087	0.21397
1719.35656	0.2033
1718.39226	0.19341
1717.42795	0.18413
1716.46365	0.17567
1715.49934	0.16813
1714.53504	0.16093
1713.57073	0.15366
1712.60643	0.14665
1711.64212	0.14031
1710.67781	0.13487
1709.71351	0.13031
1708.7492	0.12643
1707.7849	0.12324
1706.82059	0.1206
1705.85629	0.11836
1704.89198	0.11677
1703.92768	0.11577
1702.96337	0.11506
1701.99907	0.11464
1701.03476	0.11456
1700.07046	0.1141
1699.10615	0.11328
1698.14184	0.11307
1697.17754	0.11368
1696.21323	0.11463
1695.24893	0.11524
1694.28462	0.11546
1693.32032	0.11604
1692.35601	0.11724
1691.39171	0.11912
1690.4274	0.12173
1689.4631	0.12491
1688.49879	0.1286
1687.53448	0.1327
1686.57018	0.13754
1685.60587	0.1438
1684.64157	0.15189
1683.67726	0.16208
1682.71296	0.17531
1681.74865	0.19306
1680.78435	0.21474
1679.82004	0.2344
1678.85574	0.24269
1677.89143	0.23665
1676.92713	0.22353
1675.96282	0.21214
1674.99851	0.20564
1674.03421	0.20364
1673.0699	0.20569
1672.1056	0.21121
1671.14129	0.21942
1670.17699	0.23034
1669.21268	0.24404
1668.24838	0.2603
1667.28407	0.27957
1666.31977	0.30281
1665.35546	0.33058
1664.39115	0.3637
1663.42685	0.40302
1662.46254	0.44862
1661.49824	0.49983
1660.53393	0.55542
1659.56963	0.613
1658.60532	0.66731
1657.64102	0.71097
1656.67671	0.73585
1655.71241	0.73763
1654.7481	0.71681
1653.7838	0.67819
1652.81949	0.62838
1651.85518	0.57411
1650.89088	0.5216
1649.92657	0.4738
1648.96227	0.43199
1647.99796	0.39632
1647.03366	0.36653
1646.06935	0.34219
1645.10505	0.3228
1644.14074	0.30812
1643.17644	0.2976
1642.21213	0.29024
1641.24782	0.28516
1640.28352	0.28195
1639.31921	0.28069
1638.35491	0.28175
1637.3906	0.28524
1636.4263	0.2915
1635.46199	0.30102
1634.49769	0.31403
1633.53338	0.33176
1632.56908	0.35609
1631.60477	0.38838
1630.64047	0.42966
1629.67616	0.47928
1628.71185	0.53363
1627.74755	0.58487
1626.78324	0.62301
1625.81894	0.64215
1624.85463	0.64129
1623.89033	0.62198
1622.92602	0.58702
1621.96172	0.5419
1620.99741	0.49243
1620.03311	0.44351
1619.0688	0.3983
1618.10449	0.35837
1617.14019	0.32384
1616.17588	0.29363
1615.21158	0.2673
1614.24727	0.24449
1613.28297	0.22479
1612.31866	0.2078
1611.35436	0.19324
1610.39005	0.18092
1609.42575	0.1705
1608.46144	0.16162
1607.49714	0.15404
1606.53283	0.14749
1605.56852	0.14163
1604.60422	0.13651
1603.63991	0.13217
1602.67561	0.12856
1601.7113	0.12559
1600.747	0.1232
1599.78269	0.12156
1598.81839	0.12098
1597.85408	0.12184
1596.88978	0.12434
1595.92547	0.12868
1594.96116	0.13511
1593.99686	0.14408
1593.03255	0.15604
1592.06825	0.17086
1591.10394	0.18717
1590.13964	0.20144
1589.17533	0.20872
1588.21103	0.20568
1587.24672	0.19387
1586.28242	0.1784
1585.31811	0.16404
1584.3538	0.15328
1583.3895	0.1465
1582.42519	0.14319
1581.46089	0.14264
1580.49658	0.14456
1579.53228	0.14892
1578.56797	0.1558
1577.60367	0.16523
1576.63936	0.17705
1575.67506	0.19096
1574.71075	0.20682
1573.74645	0.22518
1572.78214	0.24594
1571.81783	0.26857
1570.85353	0.29223
1569.88922	0.31538
1568.92492	0.33602
1567.96061	0.35265
1566.99631	0.36518
1566.032	0.37398
1565.0677	0.3799
1564.10339	0.38393
1563.13909	0.38645
1562.17478	0.38663
1561.21047	0.38285
1560.24617	0.37463
1559.28186	0.36273
1558.31756	0.34909
1557.35325	0.33479
1556.38895	0.32
1555.42464	0.30551
1554.46034	0.29154
1553.49603	0.27876
1552.53173	0.26908
1551.56742	0.26437
1550.60312	0.26529
1549.63881	0.27001
1548.6745	0.2743
1547.7102	0.27373
1546.74589	0.26675
1545.78159	0.25509
1544.81728	0.24119
1543.85298	0.22694
1542.88867	0.21361
1541.92437	0.20139
1540.96006	0.19031
1539.99576	0.18079
1539.03145	0.17233
1538.06714	0.16423
1537.10284	0.15657
1536.13853	0.14949
1535.17423	0.14319
1534.20992	0.13776
1533.24562	0.13289
1532.28131	0.12822
1531.31701	0.12377
1530.3527	0.11937
1529.3884	0.11507
1528.42409	0.1111
1527.45979	0.10739
1526.49548	0.10408
1525.53117	0.10095
1524.56687	0.09757
1523.60256	0.0941
1522.63826	0.09092
1521.67395	0.08812
1520.70965	0.08533
1519.74534	0.08239
1518.78104	0.07955
1517.81673	0.07707
1516.85243	0.07441
1515.88812	0.07156
1514.92381	0.0691
1513.95951	0.06706
1512.9952	0.06541
1512.0309	0.06368
1511.06659	0.06162
1510.10229	0.05968
1509.13798	0.05799
1508.17368	0.05664
1507.20937	0.05554
1506.24507	0.05428
1505.28076	0.05259
1504.31646	0.05074
1503.35215	0.04923
1502.38784	0.04825
1501.42354	0.04765
1500.45923	0.04717
1499.49493	0.0468
1498.53062	0.04615
1497.56632	0.04534
1496.60201	0.04501
1495.63771	0.04502
1494.6734	0.0452
1493.7091	0.04574
1492.74479	0.04658
1491.78048	0.04787
1490.81618	0.04989
1489.85187	0.05271
1488.88757	0.05664
1487.92326	0.06207
1486.95896	0.06916
1485.99465	0.07807
1485.03035	0.08918
1484.06604	0.1023
1483.10174	0.11575
1482.13743	0.12668
1481.17313	0.13195
1480.20882	0.13022
1479.24451	0.12299
1478.28021	0.11325
1477.3159	0.10373
1476.3516	0.09584
1475.38729	0.08975
1474.42299	0.08572
1473.45868	0.08385
1472.49438	0.0839
1471.53007	0.08596
1470.56577	0.09009
1469.60146	0.09627
1468.63715	0.10373
1467.67285	0.11125
1466.70854	0.11832
1465.74424	0.12514
1464.77993	0.13228
1463.81563	0.13989
1462.85132	0.14805
1461.88702	0.15618
1460.92271	0.16284
1459.95841	0.16699
1458.9941	0.16769
1458.02979	0.16519
1457.06549	0.16042
1456.10118	0.15443
1455.13688	0.14857
1454.17257	0.14399
1453.20827	0.14116
1452.24396	0.14006
1451.27966	0.14024
1450.31535	0.14102
1449.35105	0.142
1448.38674	0.14289
1447.42244	0.14349
1446.45813	0.14419
1445.49382	0.1453
1444.52952	0.14687
1443.56521	0.14858
1442.60091	0.15012
1441.6366	0.1511
1440.6723	0.15118
1439.70799	0.15019
1438.74369	0.14794
1437.77938	0.14473
1436.81508	0.14035
1435.85077	0.13448
1434.88646	0.12779
1433.92216	0.12096
1432.95785	0.11403
1431.99355	0.10713
1431.02924	0.10065
1430.06494	0.09467
1429.10063	0.08924
1428.13633	0.0847
1427.17202	0.08138
1426.20772	0.07906
1425.24341	0.07748
1424.27911	0.07645
1423.3148	0.0757
1422.35049	0.07556
1421.38619	0.07667
1420.42188	0.07961
1419.45758	0.08453
1418.49327	0.09115
1417.52897	0.09867
1416.56466	0.10408
1415.60036	0.10617
1414.63605	0.10847
1413.67175	0.11318
1412.70744	0.11878
1411.74313	0.12272
1410.77883	0.12329
1409.81452	0.12026
1408.85022	0.11499
1407.88591	0.10968
1406.92161	0.10601
1405.9573	0.10477
1404.993	0.10633
1404.02869	0.11092
1403.06439	0.1191
1402.10008	0.13142
1401.13578	0.14759
1400.17147	0.16575
1399.20716	0.18202
1398.24286	0.19304
1397.27855	0.19925
1396.31425	0.20382
1395.34994	0.20947
1394.38564	0.21689
1393.42133	0.2248
1392.45703	0.23103
1391.49272	0.23367
1390.52842	0.2321
1389.56411	0.22771
1388.5998	0.22316
1387.6355	0.22078
1386.67119	0.22158
1385.70689	0.22499
1384.74258	0.22831
1383.77828	0.22807
1382.81397	0.22366
1381.84967	0.21819
1380.88536	0.21566
1379.92106	0.21746
1378.95675	0.22136
1377.99245	0.22323
1377.02814	0.22007
1376.06383	0.21223
1375.09953	0.20249
1374.13522	0.19416
1373.17092	0.18999
1372.20661	0.191
1371.24231	0.19443
1370.278	0.19381
1369.3137	0.18578
1368.34939	0.17383
1367.38509	0.1627
1366.42078	0.15405
1365.45647	0.1468
1364.49217	0.13943
1363.52786	0.13176
1362.56356	0.12432
1361.59925	0.11753
1360.63495	0.11125
1359.67064	0.10508
1358.70634	0.09908
1357.74203	0.09357
1356.77773	0.08877
1355.81342	0.08483
1354.84911	0.08164
1353.88481	0.07896
1352.9205	0.07665
1351.9562	0.07466
1350.99189	0.07298
1350.02759	0.07168
1349.06328	0.07088
1348.09898	0.07058
1347.13467	0.07074
1346.17037	0.07126
1345.20606	0.07205
1344.24176	0.07311
1343.27745	0.07446
1342.31314	0.07618
1341.34884	0.07823
1340.38453	0.08037
1339.42023	0.08226
1338.45592	0.08377
1337.49162	0.08499
1336.52731	0.08612
1335.56301	0.08746
1334.5987	0.08927
1333.6344	0.09153
1332.67009	0.09411
1331.70578	0.09705
1330.74148	0.10067
1329.77717	0.10536
1328.81287	0.11154
1327.84856	0.11948
1326.88426	0.12925
1325.91995	0.14087
1324.95565	0.15457
1323.99134	0.17075
1323.02704	0.18955
1322.06273	0.21034
1321.09843	0.23106
1320.13412	0.24858
1319.16981	0.25967
1318.20551	0.26243
1317.2412	0.25705
1316.2769	0.24558
1315.31259	0.23074
1314.34829	0.21471
1313.38398	0.19869
1312.41968	0.18331
1311.45537	0.169
1310.49107	0.15618
1309.52676	0.14517
1308.56245	0.13595
1307.59815	0.12812
1306.63384	0.12119
1305.66954	0.11485
1304.70523	0.10912
1303.74093	0.10421
1302.77662	0.10035
1301.81232	0.09743
1300.84801	0.09511
1299.88371	0.09298
1298.9194	0.09081
1297.9551	0.08883
1296.99079	0.08752
1296.02648	0.08707
1295.06218	0.08735
1294.09787	0.08797
1293.13357	0.08851
1292.16926	0.08883
1291.20496	0.08909
1290.24065	0.08948
1289.27635	0.09018
1288.31204	0.09129
1287.34774	0.09282
1286.38343	0.09493
1285.41912	0.09808
1284.45482	0.103
1283.49051	0.11016
1282.52621	0.11951
1281.5619	0.13061
1280.5976	0.14251
1279.63329	0.15367
1278.66899	0.16213
1277.70468	0.16633
1276.74038	0.16606
1275.77607	0.16228
1274.81177	0.15631
1273.84746	0.14935
1272.88315	0.14224
1271.91885	0.13577
1270.95454	0.13102
1269.99024	0.12891
1269.02593	0.12983
1268.06163	0.13372
1267.09732	0.14017
1266.13302	0.14856
1265.16871	0.1578
1264.20441	0.16656
1263.2401	0.17321
1262.27579	0.17632
1261.31149	0.17514
1260.34718	0.16983
1259.38288	0.16142
1258.41857	0.15148
1257.45427	0.14154
1256.48996	0.13265
1255.52566	0.12515
1254.56135	0.119
1253.59705	0.114
1252.63274	0.10986
1251.66844	0.1062
1250.70413	0.10252
1249.73982	0.09831
1248.77552	0.09352
1247.81121	0.08845
1246.84691	0.08356
1245.8826	0.07934
1244.9183	0.07606
1243.95399	0.07369
1242.98969	0.07201
1242.02538	0.07091
1241.06108	0.07039
1240.09677	0.07065
1239.13246	0.07188
1238.16816	0.07426
1237.20385	0.07786
1236.23955	0.08264
1235.27524	0.08852
1234.31094	0.09542
1233.34663	0.10328
1232.38233	0.1123
1231.41802	0.12304
1230.45372	0.13608
1229.48941	0.15201
1228.5251	0.17108
1227.5608	0.19291
1226.59649	0.21615
1225.63219	0.2382
1224.66788	0.25537
1223.70358	0.26399
1222.73927	0.26198
1221.77497	0.24992
1220.81066	0.23073
1219.84636	0.20805
1218.88205	0.18492
1217.91775	0.16333
1216.95344	0.14416
1215.98913	0.1277
1215.02483	0.11389
1214.06052	0.10245
1213.09622	0.09297
1212.13191	0.08507
1211.16761	0.07868
1210.2033	0.07388
1209.239	0.07048
1208.27469	0.06802
1207.31039	0.06575
1206.34608	0.06317
1205.38177	0.06039
1204.41747	0.058
1203.45316	0.05651
1202.48886	0.05615
1201.52455	0.05677
1200.56025	0.05799
1199.59594	0.05978
1198.63164	0.0624
1197.66733	0.06628
1196.70303	0.07192
1195.73872	0.07951
1194.77442	0.08866
1193.81011	0.09836
1192.8458	0.10718
1191.8815	0.1144
1190.91719	0.12095
1189.95289	0.1286
1188.98858	0.13829
1188.02428	0.14931
1187.05997	0.16018
1186.09567	0.1702
1185.13136	0.1808
1184.16706	0.19399
1183.20275	0.20929
1182.23844	0.22287
1181.27414	0.2304
1180.30983	0.23075
1179.34553	0.22614
1178.38122	0.21941
1177.41692	0.21176
1176.45261	0.20277
1175.48831	0.19205
1174.524	0.18041
1173.5597	0.16959
1172.59539	0.16163
1171.63109	0.15801
1170.66678	0.1595
1169.70247	0.16607
1168.73817	0.17722
1167.77386	0.19184
1166.80956	0.20746
1165.84525	0.22013
1164.88095	0.22549
1163.91664	0.22178
1162.95234	0.21176
1161.98803	0.20047
1161.02373	0.19212
1160.05942	0.18912
1159.09511	0.19245
1158.13081	0.20191
1157.1665	0.21556
1156.2022	0.22943
1155.23789	0.23917
1154.27359	0.24366
1153.30928	0.24706
1152.34498	0.2561
1151.38067	0.27497
1150.41637	0.29991
1149.45206	0.31752
1148.48776	0.31283
1147.52345	0.28501
1146.55914	0.24795
1145.59484	0.21505
1144.63053	0.19152
1143.66623	0.17699
1142.70192	0.1697
1141.73762	0.16834
1140.77331	0.17245
1139.80901	0.18216
1138.8447	0.19754
1137.8804	0.21851
1136.91609	0.24485
1135.95178	0.27656
1134.98748	0.31334
1134.02317	0.35367
1133.05887	0.3947
1132.09456	0.43229
1131.13026	0.46158
1130.16595	0.47832
1129.20165	0.48045
1128.23734	0.46867
1127.27304	0.44618
1126.30873	0.41726
1125.34443	0.38563
1124.38012	0.35406
1123.41581	0.32423
1122.45151	0.29719
1121.4872	0.27377
1120.5229	0.25462
1119.55859	0.24037
1118.59429	0.23155
1117.62998	0.22836
1116.66568	0.23095
1115.70137	0.23914
1114.73707	0.25158
1113.77276	0.26527
1112.80845	0.27605
1111.84415	0.28022
1110.87984	0.27602
1109.91554	0.26412
1108.95123	0.24704
1107.98693	0.2279
1107.02262	0.20933
1106.05832	0.19269
1105.09401	0.17842
1104.12971	0.16634
1103.1654	0.15606
1102.20109	0.14721
1101.23679	0.13941
1100.27248	0.13246
1099.30818	0.12617
1098.34387	0.12028
1097.37957	0.11444
1096.41526	0.10857
1095.45096	0.10277
1094.48665	0.09698
1093.52235	0.09136
1092.55804	0.08608
1091.59374	0.08106
1090.62943	0.07626
1089.66512	0.07169
1088.70082	0.06735
1087.73651	0.06336
1086.77221	0.05989
1085.8079	0.05701
1084.8436	0.05464
1083.87929	0.05259
1082.91499	0.0507
1081.95068	0.04907
1080.98638	0.04795
1080.02207	0.04739
1079.05776	0.04736
1078.09346	0.04773
1077.12915	0.04828
1076.16485	0.049
1075.20054	0.05009
1074.23624	0.05176
1073.27193	0.05419
1072.30763	0.05733
1071.34332	0.06086
1070.37902	0.06448
1069.41471	0.06803
1068.45041	0.07136
1067.4861	0.07439
1066.52179	0.07708
1065.55749	0.07965
1064.59318	0.08237
1063.62888	0.08548
1062.66457	0.0894
1061.70027	0.09453
1060.73596	0.10114
1059.77166	0.1092
1058.80735	0.11865
1057.84305	0.12952
1056.87874	0.14196
1055.91443	0.15647
1054.95013	0.17368
1053.98582	0.19392
1053.02152	0.21698
1052.05721	0.24254
1051.09291	0.2704
1050.1286	0.30085
1049.1643	0.33472
1048.19999	0.37151
1047.23569	0.40722
1046.27138	0.43417
1045.30708	0.44676
1044.34277	0.44874
1043.37846	0.45055
1042.41416	0.46163
1041.44985	0.48587
1040.48555	0.52148
1039.52124	0.56175
1038.55694	0.59645
1037.59263	0.617
1036.62833	0.62088
1035.66402	0.61114
1034.69972	0.59305
1033.73541	0.57088
1032.7711	0.54612
1031.8068	0.51795
1030.84249	0.48505
1029.87819	0.44779
1028.91388	0.40888
1027.94958	0.3715
1026.98527	0.33744
1026.02097	0.30706
1025.05666	0.28023
1024.09236	0.25688
1023.12805	0.2369
1022.16375	0.21992
1021.19944	0.20516
1020.23513	0.19195
1019.27083	0.18012
1018.30652	0.17019
1017.34222	0.16304
1016.37791	0.15916
1015.41361	0.15847
1014.4493	0.16026
1013.485	0.1634
1012.52069	0.16681
1011.55639	0.16955
1010.59208	0.17076
1009.62777	0.16988
1008.66347	0.1667
1007.69916	0.16144
1006.73486	0.15451
1005.77055	0.14662
1004.80625	0.13878
1003.84194	0.13204
1002.87764	0.12722
1001.91333	0.12463
1000.94903	0.12427
999.98472	0.12627
999.02042	0.13105
998.05611	0.13937
997.0918	0.15221
996.1275	0.17049
995.16319	0.19474
994.19889	0.22488
993.23458	0.26033
992.27028	0.29967
991.30597	0.34002
990.34167	0.37708
989.37736	0.40587
988.41306	0.42239
987.44875	0.42536
986.48444	0.41619
985.52014	0.39785
984.55583	0.37393
983.59153	0.3476
982.62722	0.32085
981.66292	0.29467
980.69861	0.26961
979.73431	0.24605
978.77	0.22428
977.8057	0.20459
976.84139	0.18718
975.87708	0.17188
974.91278	0.15842
973.94847	0.14654
972.98417	0.13604
972.01986	0.12709
971.05556	0.12002
970.09125	0.11528
969.12695	0.11332
968.16264	0.11472
967.19834	0.12029
966.23403	0.13038
965.26973	0.14338
964.30542	0.15442
963.34111	0.15803
962.37681	0.15292
961.4125	0.14254
960.4482	0.13126
959.48389	0.12194
958.51959	0.1161
957.55528	0.11459
956.59098	0.11711
955.62667	0.12164
954.66237	0.12512
953.69806	0.12532
952.73375	0.12254
951.76945	0.11918
950.80514	0.11747
949.84084	0.1179
948.87653	0.11972
947.91223	0.12247
946.94792	0.12653
945.98362	0.13246
945.01931	0.1396
944.05501	0.1454
943.0907	0.14669
942.1264	0.14221
941.16209	0.13329
940.19778	0.12215
939.23348	0.11052
938.26917	0.09935
937.30487	0.08932
936.34056	0.081
935.37626	0.0743
934.41195	0.06876
933.44765	0.0642
932.48334	0.06078
931.51904	0.05896
930.55473	0.05914
929.59042	0.06141
928.62612	0.06519
927.66181	0.06919
926.69751	0.07175
925.7332	0.07158
924.7689	0.06841
923.80459	0.06316
922.84029	0.05732
921.87598	0.0518
920.91168	0.04668
919.94737	0.04201
918.98307	0.03789
918.01876	0.03453
917.05445	0.03208
916.09015	0.03032
915.12584	0.02868
914.16154	0.02685
913.19723	0.02482
912.23293	0.02286
911.26862	0.02127
910.30432	0.02018
909.34001	0.01945
908.37571	0.0187
907.4114	0.01758
906.44709	0.01616
905.48279	0.0147
904.51848	0.01363
903.55418	0.01316
902.58987	0.01301
901.62557	0.01279
900.66126	0.0121
899.69696	0.01098
898.73265	0.00998
897.76835	0.00945
896.80404	0.00946
895.83974	0.00968
894.87543	0.00967
893.91112	0.00912
892.94682	0.00836
891.98251	0.00791
891.01821	0.00807
890.0539	0.00893
889.0896	0.01006
888.12529	0.01102
887.16099	0.01183
886.19668	0.01314
885.23238	0.01578
884.26807	0.02035
883.30376	0.027
882.33946	0.03524
881.37515	0.04351
880.41085	0.0493
879.44654	0.05028
878.48224	0.04636
877.51793	0.04008
876.55363	0.03382
875.58932	0.02833
874.62502	0.02373
873.66071	0.02004
872.69641	0.01752
871.7321	0.01626
870.76779	0.01608
869.80349	0.01667
868.83918	0.01761
867.87488	0.01874
866.91057	0.02053
865.94627	0.02392
864.98196	0.02971
864.01766	0.03865
863.05335	0.05162
862.08905	0.0696
861.12474	0.09286
860.16043	0.11947
859.19613	0.14418
858.23182	0.15892
857.26752	0.15757
856.30321	0.14206
855.33891	0.12021
854.3746	0.09885
853.4103	0.08128
852.44599	0.06804
851.48169	0.05859
850.51738	0.052
849.55307	0.04722
848.58877	0.04374
847.62446	0.0417
846.66016	0.04158
845.69585	0.04347
844.73155	0.04625
843.76724	0.04789
842.80294	0.04707
841.83863	0.04412
840.87433	0.04022
839.91002	0.03662
838.94572	0.03385
837.98141	0.03185
837.0171	0.03048
836.0528	0.02965
835.08849	0.02935
834.12419	0.02922
833.15988	0.02919
832.19558	0.02932
831.23127	0.02968
830.26697	0.03052
829.30266	0.03177
828.33836	0.03321
827.37405	0.03462
826.40974	0.03595
825.44544	0.03749
824.48113	0.03945
823.51683	0.04165
822.55252	0.04402
821.58822	0.04638
820.62391	0.0484
819.65961	0.05019
818.6953	0.05222
817.731	0.05502
816.76669	0.05869
815.80239	0.06262
814.83808	0.06615
813.87377	0.06917
812.90947	0.07182
811.94516	0.07467
810.98086	0.07845
810.01655	0.08303
809.05225	0.08836
808.08794	0.09472
807.12364	0.10253
806.15933	0.11192
805.19503	0.1216
804.23072	0.12821
803.26641	0.12877
802.30211	0.1238
801.3378	0.11607
800.3735	0.10798
799.40919	0.10074
798.44489	0.09495
797.48058	0.09083
796.51628	0.08783
795.55197	0.08566
794.58767	0.0839
793.62336	0.08179
792.65906	0.0791
791.69475	0.07612
790.73044	0.07303
789.76614	0.06973
788.80183	0.06631
787.83753	0.06249
786.87322	0.05845
785.90892	0.05506
784.94461	0.05267
783.98031	0.05106
783.016	0.04958
782.0517	0.04808
781.08739	0.04694
780.12308	0.04697
779.15878	0.04935
778.19447	0.05492
777.23017	0.06424
776.26586	0.07784
775.30156	0.09555
774.33725	0.11428
773.37295	0.12822
772.40864	0.13216
771.44434	0.12421
770.48003	0.10798
769.51573	0.08948
768.55142	0.07219
767.58711	0.05811
766.62281	0.0484
765.6585	0.04244
764.6942	0.03931
763.72989	0.03804
762.76559	0.0382
761.80128	0.04037
760.83698	0.04573
759.87267	0.05534
758.90837	0.0689
757.94406	0.08431
756.97975	0.09947
756.01545	0.11395
755.05114	0.12515
754.08684	0.12679
753.12253	0.11692
752.15823	0.10178
751.19392	0.08865
750.22962	0.08026
749.26531	0.0763
748.30101	0.07576
747.3367	0.07729
746.3724	0.0794
745.40809	0.08035
744.44378	0.07921
743.47948	0.07651
742.51517	0.07298
741.55087	0.06834
740.58656	0.06229
739.62226	0.0558
738.65795	0.05048
737.69365	0.04773
736.72934	0.04858
735.76504	0.05365
734.80073	0.06267
733.83642	0.07434
732.87212	0.08578
731.90781	0.09235
730.94351	0.09131
729.9792	0.08433
729.0149	0.07471
728.05059	0.06463
727.08629	0.05527
726.12198	0.0476
725.15768	0.0421
724.19337	0.03842
723.22906	0.03582
722.26476	0.03348
721.30045	0.031
720.33615	0.02892
719.37184	0.02799
718.40754	0.02859
717.44323	0.03046
716.47893	0.03256
715.51462	0.0337
714.55032	0.03321
713.58601	0.03163
712.62171	0.03016
711.6574	0.02974
710.69309	0.0303
709.72879	0.03098
708.76448	0.03125
707.80018	0.03158
706.83587	0.03325
705.87157	0.03705
704.90726	0.04262
703.94296	0.04921
702.97865	0.05588
702.01435	0.06189
701.05004	0.06711
700.08573	0.07096
699.12143	0.07237
698.15712	0.0712
697.19282	0.06808
696.22851	0.06357
695.26421	0.05844
694.2999	0.05402
693.3356	0.05144
692.37129	0.05053
691.40699	0.05027
690.44268	0.04916
689.47838	0.04652
688.51407	0.04317
687.54976	0.04063
686.58546	0.03981
685.62115	0.04022
684.65685	0.04052
683.69254	0.0396
682.72824	0.03738
681.76393	0.03504
680.79963	0.03402
679.83532	0.03468
678.87102	0.03597
677.90671	0.0367
676.9424	0.03612
675.9781	0.03445
675.01379	0.03317
674.04949	0.0338
673.08518	0.0362
672.12088	0.03901
671.15657	0.04129
670.19227	0.04313
669.22796	0.04585
668.26366	0.05128
667.29935	0.06049
666.33505	0.07241
665.37074	0.08374
664.40643	0.09055
663.44213	0.09046
662.47782	0.08428
661.51352	0.07516
660.54921	0.06616
659.58491	0.05824
658.6206	0.05077
657.6563	0.04335
656.69199	0.03638
655.72769	0.0308
654.76338	0.02725
653.79907	0.02519
652.83477	0.02363
651.87046	0.02162
650.90616	0.01879
649.94185	0.01577
648.97755	0.0135
648.01324	0.01266
647.04894	0.01274
646.08463	0.01251
645.12033	0.01135
644.15602	0.00937
643.19172	0.00759
642.22741	0.00693
641.2631	0.00741
640.2988	0.00835
639.33449	0.00876
638.37019	0.00865
637.40588	0.0088
636.44158	0.01005
635.47727	0.01317
634.51297	0.0186
633.54866	0.02569
632.58436	0.03253
631.62005	0.03714
630.65574	0.03851
629.69144	0.03693
628.72713	0.03386
627.76283	0.03064
626.79852	0.02733
625.83422	0.02396
624.86991	0.02096
623.90561	0.01828
622.9413	0.0161
621.977	0.01475
621.01269	0.01406
620.04839	0.01364
619.08408	0.01316
618.11977	0.01238
617.15547	0.01156
616.19116	0.01106
615.22686	0.01121
614.26255	0.01222
613.29825	0.01364
612.33394	0.01511
611.36964	0.01597
610.40533	0.01578
609.44103	0.01523
608.47672	0.01498
607.51241	0.01547
606.54811	0.01658
605.5838	0.01788
604.6195	0.01996
603.65519	0.02354
602.69089	0.02838
601.72658	0.03314
600.76228	0.03593
599.79797	0.03542
598.83367	0.03177
597.86936	0.0266
596.90505	0.0218
595.94075	0.01818
594.97644	0.01583
594.01214	0.01448
593.04783	0.01353
592.08353	0.01256
591.11922	0.0114
590.15492	0.01043
589.19061	0.01023
588.22631	0.01091
587.262	0.01231
586.2977	0.01405
585.33339	0.01578
584.36908	0.01776
583.40478	0.02089
582.44047	0.02549
581.47617	0.03051
580.51186	0.03412
579.54756	0.03513
578.58325	0.03399
577.61895	0.03214
576.65464	0.03108
575.69034	0.0315
574.72603	0.03305
573.76172	0.03479
572.79742	0.03565
571.83311	0.03537
570.86881	0.03493
569.9045	0.03556
568.9402	0.03722
567.97589	0.03841
567.01159	0.03773
566.04728	0.03523
565.08298	0.03181
564.11867	0.02861
563.15437	0.02638
562.19006	0.02536
561.22575	0.02521
560.26145	0.02496
559.29714	0.02418
558.33284	0.02322
557.36853	0.02335
556.40423	0.02524
555.43992	0.02824
554.47562	0.03177
553.51131	0.03539
552.54701	0.0391
551.5827	0.0435
550.61839	0.04943
549.65409	0.05695
548.68978	0.06489
547.72548	0.07158
546.76117	0.07606
545.79687	0.07796
544.83256	0.07786
543.86826	0.07781
542.90395	0.07893
541.93965	0.08068
540.97534	0.08149
540.01104	0.07959
539.04673	0.07464
538.08242	0.06751
537.11812	0.05972
536.15381	0.05237
535.18951	0.04564
534.2252	0.03941
533.2609	0.03382
532.29659	0.02928
531.33229	0.02647
530.36798	0.02587
529.40368	0.02675
528.43937	0.02814
527.47506	0.02943
526.51076	0.03119
525.54645	0.03465
524.58215	0.04036
523.61784	0.04743
522.65354	0.05376
521.68923	0.05703
520.72493	0.05559
519.76062	0.05039
518.79632	0.04425
517.83201	0.03936
516.86771	0.03603
515.9034	0.03325
514.93909	0.0304
513.97479	0.02723
513.01048	0.02479
512.04618	0.02406
511.08187	0.02446
510.11757	0.0252
509.15326	0.02579
508.18896	0.02635
507.22465	0.0272
506.26035	0.02886
505.29604	0.03154
504.33173	0.03478
503.36743	0.0367
502.40312	0.03622
501.43882	0.03423
500.47451	0.03138
499.51021	0.02922
498.5459	0.02833
497.5816	0.02772
496.61729	0.02667
495.65299	0.02503
494.68868	0.0237
493.72438	0.02303
492.76007	0.02319
491.79576	0.02389
490.83146	0.02448
489.86715	0.02466
488.90285	0.02433
487.93854	0.02373
486.97424	0.02367
486.00993	0.02476
485.04563	0.02627
484.08132	0.02739
483.11702	0.02785
482.15271	0.02837
481.1884	0.02889
480.2241	0.02934
479.25979	0.03083
478.29549	0.03233
477.33118	0.03277
476.36688	0.03272
475.40257	0.03292
474.43827	0.03296
473.47396	0.03334
472.50966	0.03499
471.54535	0.03623
470.58104	0.03658
469.61674	0.03639
468.65243	0.03618
467.68813	0.03668
466.72382	0.03723
465.75952	0.03767
464.79521	0.03813
463.83091	0.0383
462.8666	0.0378
461.9023	0.03718
460.93799	0.03645
459.97369	0.03601
459.00938	0.036
458.04507	0.035
457.08077	0.0331
456.11646	0.03105
455.15216	0.03015
454.18785	0.03038
453.22355	0.03012
452.25924	0.02838
451.29494	0.02565
450.33063	0.02383
449.36633	0.02271
448.40202	0.02166
447.43771	0.02088
446.47341	0.02027
445.5091	0.01908
444.5448	0.01704
443.58049	0.01507
442.61619	0.01398
441.65188	0.01428
440.68758	0.01445
439.72327	0.01333
438.75897	0.01164
437.79466	0.01011
436.83036	0.00871
435.86605	0.00758
434.90174	0.00753
433.93744	0.00753
432.97313	0.00696
432.00883	0.00611
431.04452	0.00543
430.08022	0.0052
429.11591	0.00514
428.15161	0.00622
427.1873	0.00755
426.223	0.00865
425.25869	0.01039
424.29438	0.01245
423.33008	0.01518
422.36577	0.01872
421.40147	0.02269
420.43716	0.02708
419.47286	0.0319
418.50855	0.03654
417.54425	0.04054
416.57994	0.04315
415.61564	0.04327
414.65133	0.04204
413.68703	0.03979
412.72272	0.03745
411.75841	0.03865
410.79411	0.04274
409.8298	0.04605
408.8655	0.04786
407.90119	0.05038
406.93689	0.05469
405.97258	0.05795
405.00828	0.06067
404.04397	0.06429
403.07967	0.06563
402.11536	0.06439
401.15105	0.06368
400.18675	0.06466