3999.93888	9.14798E-4
3998.97458	8.89735E-4
3998.01027	8.77204E-4
3997.04597	8.89735E-4
3996.08166	8.89735E-4
3995.11735	8.64672E-4
3994.15305	8.14547E-4
3993.18874	7.89484E-4
3992.22444	7.64421E-4
3991.26013	7.39358E-4
3990.29583	7.39358E-4
3989.33152	7.51889E-4
3988.36722	7.26826E-4
3987.40291	6.51637E-4
3986.43861	6.14043E-4
3985.4743	6.26574E-4
3984.51	6.51637E-4
3983.54569	6.26574E-4
3982.58138	5.8898E-4
3981.61708	5.38854E-4
3980.65277	5.01259E-4
3979.68847	4.88728E-4
3978.72416	5.01259E-4
3977.75986	5.26322E-4
3976.79555	5.26322E-4
3975.83125	4.76196E-4
3974.86694	4.38602E-4
3973.90264	4.38602E-4
3972.93833	4.63665E-4
3971.97402	4.88728E-4
3971.00972	4.88728E-4
3970.04541	4.88728E-4
3969.08111	4.76196E-4
3968.1168	4.63665E-4
3967.1525	4.76196E-4
3966.18819	5.13791E-4
3965.22389	5.13791E-4
3964.25958	5.01259E-4
3963.29528	4.88728E-4
3962.33097	4.63665E-4
3961.36667	4.63665E-4
3960.40236	5.13791E-4
3959.43805	5.51385E-4
3958.47375	5.63917E-4
3957.50944	5.38854E-4
3956.54514	5.13791E-4
3955.58083	5.13791E-4
3954.61653	5.38854E-4
3953.65222	5.8898E-4
3952.68792	6.14043E-4
3951.72361	6.39106E-4
3950.75931	6.26574E-4
3949.795	6.14043E-4
3948.83069	6.51637E-4
3947.86639	7.14295E-4
3946.90208	7.89484E-4
3945.93778	8.27078E-4
3944.97347	8.27078E-4
3944.00917	8.27078E-4
3943.04486	8.27078E-4
3942.08056	8.89735E-4
3941.11625	9.89987E-4
3940.15195	0.00105
3939.18764	0.00108
3938.22333	0.00108
3937.25903	0.00105
3936.29472	0.00107
3935.33042	0.00112
3934.36611	0.00115
3933.40181	0.00113
3932.4375	0.00105
3931.4732	0.00104
3930.50889	0.00108
3929.54459	0.00112
3928.58028	0.00118
3927.61598	0.00119
3926.65167	0.00115
3925.68736	0.00108
3924.72306	0.00103
3923.75875	0.00107
3922.79445	0.00113
3921.83014	0.00117
3920.86584	0.0011
3919.90153	0.001
3918.93723	0.001
3917.97292	9.89987E-4
3917.00862	0.00103
3916.04431	0.00115
3915.08	0.00119
3914.1157	0.00113
3913.15139	0.0011
3912.18709	0.00113
3911.22278	0.00117
3910.25848	0.00122
3909.29417	0.00124
3908.32987	0.00127
3907.36556	0.00125
3906.40126	0.00122
3905.43695	0.00123
3904.47265	0.00122
3903.50834	0.00123
3902.54403	0.00118
3901.57973	0.0011
3900.61542	0.00112
3899.65112	0.00112
3898.68681	0.00117
3897.72251	0.00124
3896.7582	0.00123
3895.7939	0.00118
3894.82959	0.00112
3893.86529	0.00109
3892.90098	0.00107
3891.93667	0.001
3890.97237	9.52393E-4
3890.00806	9.52393E-4
3889.04376	9.39861E-4
3888.07945	9.2733E-4
3887.11515	8.89735E-4
3886.15084	7.64421E-4
3885.18654	8.02015E-4
3884.22223	9.02267E-4
3883.25793	9.02267E-4
3882.29362	9.02267E-4
3881.32932	8.64672E-4
3880.36501	8.27078E-4
3879.4007	9.02267E-4
3878.4364	9.64924E-4
3877.47209	9.64924E-4
3876.50779	9.39861E-4
3875.54348	9.02267E-4
3874.57918	8.52141E-4
3873.61487	8.77204E-4
3872.65057	9.14798E-4
3871.68626	8.27078E-4
3870.72196	6.26574E-4
3869.75765	5.76448E-4
3868.79334	7.26826E-4
3867.82904	8.14547E-4
3866.86473	7.39358E-4
3865.90043	5.76448E-4
3864.93612	5.01259E-4
3863.97182	6.01511E-4
3863.00751	6.51637E-4
3862.04321	6.14043E-4
3861.0789	6.26574E-4
3860.1146	6.51637E-4
3859.15029	5.8898E-4
3858.18599	5.26322E-4
3857.22168	5.26322E-4
3856.25737	5.51385E-4
3855.29307	3.13287E-4
3854.32876	0
3853.36446	1.00252E-4
3852.40015	2.75693E-4
3851.43585	4.13539E-4
3850.47154	6.01511E-4
3849.50724	6.767E-4
3848.54293	7.14295E-4
3847.57863	7.14295E-4
3846.61432	6.89232E-4
3845.65001	6.767E-4
3844.68571	6.39106E-4
3843.7214	6.39106E-4
3842.7571	6.767E-4
3841.79279	6.767E-4
3840.82849	6.26574E-4
3839.86418	6.26574E-4
3838.89988	5.51385E-4
3837.93557	4.63665E-4
3836.97127	6.26574E-4
3836.00696	7.39358E-4
3835.04266	7.01763E-4
3834.07835	7.64421E-4
3833.11404	7.76952E-4
3832.14974	7.01763E-4
3831.18543	7.26826E-4
3830.22113	8.3961E-4
3829.25682	8.52141E-4
3828.29252	7.89484E-4
3827.32821	7.39358E-4
3826.36391	7.76952E-4
3825.3996	8.89735E-4
3824.4353	9.39861E-4
3823.47099	9.14798E-4
3822.50668	8.14547E-4
3821.54238	6.64169E-4
3820.57807	6.64169E-4
3819.61377	8.27078E-4
3818.64946	9.77456E-4
3817.68516	0.00102
3816.72085	8.27078E-4
3815.75655	7.64421E-4
3814.79224	9.89987E-4
3813.82794	0.00114
3812.86363	0.0012
3811.89932	0.00124
3810.93502	0.00124
3809.97071	0.00123
3809.00641	0.0012
3808.0421	0.0011
3807.0778	0.00103
3806.11349	0.00118
3805.14919	0.00132
3804.18488	0.00129
3803.22058	0.00122
3802.25627	0.00105
3801.29197	0.00104
3800.32766	0.00129
3799.36335	0.00147
3798.39905	0.00144
3797.43474	0.00137
3796.47044	0.00134
3795.50613	0.00143
3794.54183	0.00155
3793.57752	0.00159
3792.61322	0.00158
3791.64891	0.00157
3790.68461	0.00159
3789.7203	0.00167
3788.75599	0.00172
3787.79169	0.00175
3786.82738	0.00173
3785.86308	0.00167
3784.89877	0.00164
3783.93447	0.00168
3782.97016	0.00174
3782.00586	0.00182
3781.04155	0.00183
3780.07725	0.00173
3779.11294	0.00165
3778.14864	0.00169
3777.18433	0.00174
3776.22002	0.00182
3775.25572	0.00189
3774.29141	0.0019
3773.32711	0.00185
3772.3628	0.00183
3771.3985	0.00183
3770.43419	0.0018
3769.46989	0.00185
3768.50558	0.00198
3767.54128	0.00202
3766.57697	0.00197
3765.61266	0.00198
3764.64836	0.00209
3763.68405	0.00218
3762.71975	0.00222
3761.75544	0.00222
3760.79114	0.00217
3759.82683	0.00213
3758.86253	0.00223
3757.89822	0.00237
3756.93392	0.00239
3755.96961	0.00244
3755.00531	0.00246
3754.041	0.00241
3753.07669	0.00226
3752.11239	0.00222
3751.14808	0.00242
3750.18378	0.00239
3749.21947	0.00233
3748.25517	0.00257
3747.29086	0.00276
3746.32656	0.00276
3745.36225	0.00249
3744.39795	0.00241
3743.43364	0.00283
3742.46933	0.00313
3741.50503	0.00315
3740.54072	0.00323
3739.57642	0.00337
3738.61211	0.00347
3737.64781	0.00343
3736.6835	0.00341
3735.7192	0.00352
3734.75489	0.00368
3733.79059	0.00382
3732.82628	0.00386
3731.86198	0.00395
3730.89767	0.00417
3729.93336	0.0043
3728.96906	0.00435
3728.00475	0.00439
3727.04045	0.00441
3726.07614	0.00447
3725.11184	0.00452
3724.14753	0.00459
3723.18323	0.00461
3722.21892	0.00466
3721.25462	0.0048
3720.29031	0.00494
3719.326	0.005
3718.3617	0.00506
3717.39739	0.00511
3716.43309	0.0052
3715.46878	0.00531
3714.50448	0.00545
3713.54017	0.00551
3712.57587	0.00549
3711.61156	0.0056
3710.64726	0.00578
3709.68295	0.00589
3708.71865	0.0061
3707.75434	0.0063
3706.79003	0.00643
3705.82573	0.00658
3704.86142	0.00669
3703.89712	0.00679
3702.93281	0.00688
3701.96851	0.00693
3701.0042	0.00707
3700.0399	0.00728
3699.07559	0.00747
3698.11129	0.00763
3697.14698	0.00781
3696.18267	0.00797
3695.21837	0.00815
3694.25406	0.0083
3693.28976	0.00847
3692.32545	0.0086
3691.36115	0.00871
3690.39684	0.00897
3689.43254	0.00915
3688.46823	0.00926
3687.50393	0.00964
3686.53962	0.01006
3685.57531	0.01039
3684.61101	0.01074
3683.6467	0.01113
3682.6824	0.01152
3681.71809	0.01189
3680.75379	0.01222
3679.78948	0.01259
3678.82518	0.0131
3677.86087	0.01366
3676.89657	0.01407
3675.93226	0.01441
3674.96796	0.01495
3674.00365	0.01568
3673.03934	0.01638
3672.07504	0.01696
3671.11073	0.01746
3670.14643	0.0181
3669.18212	0.0188
3668.21782	0.01947
3667.25351	0.02024
3666.28921	0.02105
3665.3249	0.02183
3664.3606	0.02256
3663.39629	0.02323
3662.43198	0.02399
3661.46768	0.02477
3660.50337	0.02559
3659.53907	0.02642
3658.57476	0.02722
3657.61046	0.02801
3656.64615	0.02875
3655.68185	0.02964
3654.71754	0.03065
3653.75324	0.03159
3652.78893	0.03243
3651.82463	0.03317
3650.86032	0.03389
3649.89601	0.0346
3648.93171	0.03541
3647.9674	0.03628
3647.0031	0.03711
3646.03879	0.03801
3645.07449	0.0389
3644.11018	0.03972
3643.14588	0.04058
3642.18157	0.04148
3641.21727	0.04239
3640.25296	0.04326
3639.28865	0.0441
3638.32435	0.04498
3637.36004	0.04589
3636.39574	0.04681
3635.43143	0.04769
3634.46713	0.0486
3633.50282	0.0495
3632.53852	0.05043
3631.57421	0.05133
3630.60991	0.05209
3629.6456	0.05282
3628.6813	0.0537
3627.71699	0.0547
3626.75268	0.05563
3625.78838	0.05645
3624.82407	0.05724
3623.85977	0.058
3622.89546	0.05872
3621.93116	0.05941
3620.96685	0.06
3620.00255	0.06051
3619.03824	0.06108
3618.07394	0.06168
3617.10963	0.06224
3616.14532	0.06275
3615.18102	0.06308
3614.21671	0.06336
3613.25241	0.06361
3612.2881	0.0639
3611.3238	0.06425
3610.35949	0.06445
3609.39519	0.06454
3608.43088	0.06471
3607.46658	0.06489
3606.50227	0.06509
3605.53797	0.0653
3604.57366	0.06545
3603.60935	0.06558
3602.64505	0.06569
3601.68074	0.06578
3600.71644	0.06588
3599.75213	0.06605
3598.78783	0.06624
3597.82352	0.06644
3596.85922	0.06663
3595.89491	0.06679
3594.93061	0.06702
3593.9663	0.06731
3593.00199	0.06761
3592.03769	0.06793
3591.07338	0.06823
3590.10908	0.06846
3589.14477	0.06866
3588.18047	0.06895
3587.21616	0.0693
3586.25186	0.0697
3585.28755	0.07016
3584.32325	0.07055
3583.35894	0.07087
3582.39464	0.07123
3581.43033	0.0716
3580.46602	0.07201
3579.50172	0.07241
3578.53741	0.07276
3577.57311	0.07307
3576.6088	0.07338
3575.6445	0.07372
3574.68019	0.0741
3573.71589	0.07446
3572.75158	0.0748
3571.78728	0.07511
3570.82297	0.0754
3569.85866	0.0757
3568.89436	0.07599
3567.93005	0.07628
3566.96575	0.07659
3566.00144	0.07691
3565.03714	0.07724
3564.07283	0.07757
3563.10853	0.07791
3562.14422	0.07828
3561.17992	0.07866
3560.21561	0.079
3559.2513	0.07929
3558.287	0.07954
3557.32269	0.07985
3556.35839	0.08026
3555.39408	0.08065
3554.42978	0.08098
3553.46547	0.08127
3552.50117	0.08154
3551.53686	0.08191
3550.57256	0.08233
3549.60825	0.08272
3548.64395	0.0831
3547.67964	0.08341
3546.71533	0.08372
3545.75103	0.08409
3544.78672	0.08451
3543.82242	0.08493
3542.85811	0.08533
3541.89381	0.08568
3540.9295	0.08595
3539.9652	0.08627
3539.00089	0.08667
3538.03659	0.08708
3537.07228	0.08751
3536.10797	0.08795
3535.14367	0.08832
3534.17936	0.08869
3533.21506	0.0891
3532.25075	0.0895
3531.28645	0.08991
3530.32214	0.09033
3529.35784	0.09069
3528.39353	0.09103
3527.42923	0.09137
3526.46492	0.09177
3525.50062	0.09222
3524.53631	0.09262
3523.572	0.09296
3522.6077	0.0933
3521.64339	0.09365
3520.67909	0.09404
3519.71478	0.09445
3518.75048	0.09486
3517.78617	0.09526
3516.82187	0.0956
3515.85756	0.0959
3514.89326	0.09629
3513.92895	0.09677
3512.96464	0.09721
3512.00034	0.0976
3511.03603	0.09801
3510.07173	0.09843
3509.10742	0.09889
3508.14312	0.09942
3507.17881	0.10001
3506.21451	0.10054
3505.2502	0.10107
3504.2859	0.10157
3503.32159	0.10207
3502.35729	0.10261
3501.39298	0.10318
3500.42867	0.10379
3499.46437	0.10437
3498.50006	0.10493
3497.53576	0.10548
3496.57145	0.10603
3495.60715	0.10662
3494.64284	0.10726
3493.67854	0.1079
3492.71423	0.10843
3491.74993	0.10897
3490.78562	0.10956
3489.82131	0.11014
3488.85701	0.11073
3487.8927	0.11133
3486.9284	0.11187
3485.96409	0.11229
3484.99979	0.11271
3484.03548	0.11317
3483.07118	0.11359
3482.10687	0.11394
3481.14257	0.11426
3480.17826	0.11454
3479.21396	0.11478
3478.24965	0.11504
3477.28534	0.11535
3476.32104	0.11565
3475.35673	0.1159
3474.39243	0.11614
3473.42812	0.11639
3472.46382	0.11669
3471.49951	0.11703
3470.53521	0.11736
3469.5709	0.11767
3468.6066	0.11798
3467.64229	0.11825
3466.67798	0.11851
3465.71368	0.11879
3464.74937	0.11906
3463.78507	0.11936
3462.82076	0.11963
3461.85646	0.11984
3460.89215	0.12005
3459.92785	0.12028
3458.96354	0.12052
3457.99924	0.1207
3457.03493	0.12087
3456.07063	0.12099
3455.10632	0.1211
3454.14201	0.12119
3453.17771	0.12129
3452.2134	0.12141
3451.2491	0.12146
3450.28479	0.12144
3449.32049	0.12141
3448.35618	0.12138
3447.39188	0.12139
3446.42757	0.12141
3445.46327	0.12137
3444.49896	0.12129
3443.53465	0.1212
3442.57035	0.12109
3441.60604	0.12098
3440.64174	0.12095
3439.67743	0.12098
3438.71313	0.12097
3437.74882	0.12095
3436.78452	0.12098
3435.82021	0.12102
3434.85591	0.12109
3433.8916	0.12115
3432.92729	0.12117
3431.96299	0.1212
3430.99868	0.12125
3430.03438	0.12134
3429.07007	0.12147
3428.10577	0.12158
3427.14146	0.12172
3426.17716	0.12187
3425.21285	0.12199
3424.24855	0.12213
3423.28424	0.12229
3422.31994	0.12245
3421.35563	0.12258
3420.39132	0.12272
3419.42702	0.12291
3418.46271	0.12311
3417.49841	0.12331
3416.5341	0.12354
3415.5698	0.12371
3414.60549	0.1239
3413.64119	0.12411
3412.67688	0.12434
3411.71258	0.12458
3410.74827	0.12483
3409.78396	0.12513
3408.81966	0.12547
3407.85535	0.12575
3406.89105	0.12602
3405.92674	0.12632
3404.96244	0.12663
3403.99813	0.12693
3403.03383	0.12727
3402.06952	0.12767
3401.10522	0.12808
3400.14091	0.12847
3399.17661	0.12882
3398.2123	0.12916
3397.24799	0.12954
3396.28369	0.12998
3395.31938	0.1304
3394.35508	0.1308
3393.39077	0.13117
3392.42647	0.13157
3391.46216	0.13208
3390.49786	0.13265
3389.53355	0.1332
3388.56925	0.13374
3387.60494	0.13429
3386.64063	0.13483
3385.67633	0.13543
3384.71202	0.1361
3383.74772	0.13682
3382.78341	0.1375
3381.81911	0.13815
3380.8548	0.1388
3379.8905	0.13948
3378.92619	0.1402
3377.96189	0.14095
3376.99758	0.14171
3376.03328	0.14236
3375.06897	0.14295
3374.10466	0.14359
3373.14036	0.14424
3372.17605	0.14489
3371.21175	0.14555
3370.24744	0.1462
3369.28314	0.14687
3368.31883	0.14752
3367.35453	0.14821
3366.39022	0.14899
3365.42592	0.1498
3364.46161	0.15054
3363.4973	0.15122
3362.533	0.15192
3361.56869	0.1527
3360.60439	0.15351
3359.64008	0.15431
3358.67578	0.15509
3357.71147	0.15583
3356.74717	0.15654
3355.78286	0.15727
3354.81856	0.15801
3353.85425	0.15879
3352.88995	0.15951
3351.92564	0.16019
3350.96133	0.16084
3349.99703	0.16148
3349.03272	0.16213
3348.06842	0.16278
3347.10411	0.16336
3346.13981	0.16387
3345.1755	0.16433
3344.2112	0.16476
3343.24689	0.16519
3342.28259	0.16564
3341.31828	0.16608
3340.35397	0.16643
3339.38967	0.16672
3338.42536	0.16697
3337.46106	0.16721
3336.49675	0.16747
3335.53245	0.16766
3334.56814	0.16782
3333.60384	0.16793
3332.63953	0.168
3331.67523	0.16805
3330.71092	0.16811
3329.74661	0.16819
3328.78231	0.16825
3327.818	0.16826
3326.8537	0.16821
3325.88939	0.16815
3324.92509	0.16813
3323.96078	0.16815
3322.99648	0.16816
3322.03217	0.16812
3321.06787	0.16806
3320.10356	0.16798
3319.13926	0.16791
3318.17495	0.1679
3317.21064	0.16787
3316.24634	0.16783
3315.28203	0.16778
3314.31773	0.16775
3313.35342	0.16771
3312.38912	0.1677
3311.42481	0.16772
3310.46051	0.16777
3309.4962	0.16781
3308.5319	0.16781
3307.56759	0.16783
3306.60328	0.16793
3305.63898	0.16806
3304.67467	0.16821
3303.71037	0.16839
3302.74606	0.16856
3301.78176	0.16872
3300.81745	0.16891
3299.85315	0.16919
3298.88884	0.1695
3297.92454	0.16979
3296.96023	0.1701
3295.99593	0.17048
3295.03162	0.1709
3294.06731	0.17138
3293.10301	0.17192
3292.1387	0.17255
3291.1744	0.17316
3290.21009	0.17375
3289.24579	0.17439
3288.28148	0.17514
3287.31718	0.17597
3286.35287	0.17684
3285.38857	0.17778
3284.42426	0.17872
3283.45995	0.17971
3282.49565	0.18077
3281.53134	0.18192
3280.56704	0.18319
3279.60273	0.18446
3278.63843	0.18578
3277.67412	0.18716
3276.70982	0.18859
3275.74551	0.1901
3274.78121	0.19169
3273.8169	0.19332
3272.8526	0.19498
3271.88829	0.19673
3270.92398	0.19851
3269.95968	0.20028
3268.99537	0.20208
3268.03107	0.20395
3267.06676	0.20574
3266.10246	0.20738
3265.13815	0.20896
3264.17385	0.21055
3263.20954	0.21215
3262.24524	0.21374
3261.28093	0.21528
3260.31662	0.21677
3259.35232	0.21824
3258.38801	0.21969
3257.42371	0.22122
3256.4594	0.22283
3255.4951	0.22454
3254.53079	0.22628
3253.56649	0.22814
3252.60218	0.2301
3251.63788	0.23223
3250.67357	0.23449
3249.70927	0.23686
3248.74496	0.23933
3247.78065	0.24187
3246.81635	0.24444
3245.85204	0.24708
3244.88774	0.24984
3243.92343	0.25267
3242.95913	0.2555
3241.99482	0.25835
3241.03052	0.26117
3240.06621	0.26395
3239.10191	0.26677
3238.1376	0.26959
3237.17329	0.2723
3236.20899	0.27492
3235.24468	0.27742
3234.28038	0.27975
3233.31607	0.28195
3232.35177	0.28411
3231.38746	0.28621
3230.42316	0.28817
3229.45885	0.29002
3228.49455	0.29175
3227.53024	0.29342
3226.56594	0.2951
3225.60163	0.29672
3224.63732	0.29822
3223.67302	0.29962
3222.70871	0.30093
3221.74441	0.3022
3220.7801	0.30344
3219.8158	0.30463
3218.85149	0.30573
3217.88719	0.30678
3216.92288	0.30774
3215.95858	0.30858
3214.99427	0.30941
3214.02996	0.31025
3213.06566	0.31103
3212.10135	0.31173
3211.13705	0.31236
3210.17274	0.31291
3209.20844	0.31348
3208.24413	0.31404
3207.27983	0.3146
3206.31552	0.3152
3205.35122	0.31579
3204.38691	0.31632
3203.4226	0.3168
3202.4583	0.31733
3201.49399	0.31795
3200.52969	0.31856
3199.56538	0.3191
3198.60108	0.31963
3197.63677	0.32017
3196.67247	0.32073
3195.70816	0.32136
3194.74386	0.322
3193.77955	0.32259
3192.81525	0.32315
3191.85094	0.32365
3190.88663	0.32414
3189.92233	0.32469
3188.95802	0.32524
3187.99372	0.32571
3187.02941	0.32609
3186.06511	0.32642
3185.1008	0.32677
3184.1365	0.32718
3183.17219	0.32761
3182.20789	0.32801
3181.24358	0.3284
3180.27927	0.32878
3179.31497	0.32916
3178.35066	0.32963
3177.38636	0.33019
3176.42205	0.33081
3175.45775	0.33146
3174.49344	0.33217
3173.52914	0.33294
3172.56483	0.33375
3171.60053	0.33464
3170.63622	0.33561
3169.67192	0.33653
3168.70761	0.33744
3167.7433	0.33829
3166.779	0.33899
3165.81469	0.33954
3164.85039	0.33994
3163.88608	0.34008
3162.92178	0.33992
3161.95747	0.33939
3160.99317	0.33849
3160.02886	0.3372
3159.06456	0.33562
3158.10025	0.33375
3157.13594	0.3316
3156.17164	0.32923
3155.20733	0.32668
3154.24303	0.32406
3153.27872	0.32145
3152.31442	0.31886
3151.35011	0.31633
3150.38581	0.31389
3149.4215	0.31155
3148.4572	0.30933
3147.49289	0.30723
3146.52859	0.3053
3145.56428	0.30351
3144.59997	0.30183
3143.63567	0.30028
3142.67136	0.29888
3141.70706	0.29759
3140.74275	0.29642
3139.77845	0.29539
3138.81414	0.29446
3137.84984	0.29363
3136.88553	0.29285
3135.92123	0.29217
3134.95692	0.29162
3133.99261	0.29117
3133.02831	0.29077
3132.064	0.29045
3131.0997	0.29022
3130.13539	0.29007
3129.17109	0.28995
3128.20678	0.28992
3127.24248	0.28994
3126.27817	0.29007
3125.31387	0.29028
3124.34956	0.29054
3123.38526	0.29086
3122.42095	0.29126
3121.45664	0.2917
3120.49234	0.29217
3119.52803	0.29262
3118.56373	0.29305
3117.59942	0.29349
3116.63512	0.29394
3115.67081	0.29441
3114.70651	0.29492
3113.7422	0.29542
3112.7779	0.29586
3111.81359	0.29627
3110.84928	0.29672
3109.88498	0.29726
3108.92067	0.29786
3107.95637	0.29847
3106.99206	0.29913
3106.02776	0.29982
3105.06345	0.30063
3104.09915	0.30157
3103.13484	0.30265
3102.17054	0.30386
3101.20623	0.30515
3100.24193	0.30653
3099.27762	0.30801
3098.31331	0.30962
3097.34901	0.31137
3096.3847	0.31325
3095.4204	0.31519
3094.45609	0.31715
3093.49179	0.31914
3092.52748	0.32122
3091.56318	0.32336
3090.59887	0.32554
3089.63457	0.32774
3088.67026	0.32994
3087.70595	0.3322
3086.74165	0.33464
3085.77734	0.33734
3084.81304	0.34025
3083.84873	0.34331
3082.88443	0.34648
3081.92012	0.34978
3080.95582	0.35326
3079.99151	0.35697
3079.02721	0.36082
3078.0629	0.36479
3077.09859	0.36891
3076.13429	0.37318
3075.16998	0.3776
3074.20568	0.38225
3073.24137	0.38707
3072.27707	0.392
3071.31276	0.39687
3070.34846	0.40165
3069.38415	0.40628
3068.41985	0.41071
3067.45554	0.41488
3066.49124	0.41873
3065.52693	0.42225
3064.56262	0.42561
3063.59832	0.4289
3062.63401	0.43209
3061.66971	0.43508
3060.7054	0.43776
3059.7411	0.44001
3058.77679	0.44184
3057.81249	0.44334
3056.84818	0.44463
3055.88388	0.44592
3054.91957	0.4476
3053.95526	0.44992
3052.99096	0.45289
3052.02665	0.45633
3051.06235	0.45981
3050.09804	0.4627
3049.13374	0.46474
3048.16943	0.46611
3047.20513	0.46699
3046.24082	0.46731
3045.27652	0.4668
3044.31221	0.46554
3043.34791	0.46409
3042.3836	0.46295
3041.41929	0.46235
3040.45499	0.46237
3039.49068	0.46288
3038.52638	0.46368
3037.56207	0.46462
3036.59777	0.46554
3035.63346	0.46628
3034.66916	0.46663
3033.70485	0.46653
3032.74055	0.46597
3031.77624	0.46508
3030.81193	0.46408
3029.84763	0.46308
3028.88332	0.46214
3027.91902	0.46131
3026.95471	0.46063
3025.99041	0.46007
3025.0261	0.45957
3024.0618	0.45918
3023.09749	0.4589
3022.13319	0.45875
3021.16888	0.45877
3020.20458	0.45888
3019.24027	0.45914
3018.27596	0.45963
3017.31166	0.46038
3016.34735	0.46138
3015.38305	0.4626
3014.41874	0.46403
3013.45444	0.46556
3012.49013	0.46701
3011.52583	0.46816
3010.56152	0.46887
3009.59722	0.46908
3008.63291	0.46899
3007.6686	0.46894
3006.7043	0.46918
3005.73999	0.46986
3004.77569	0.47102
3003.81138	0.4726
3002.84708	0.47467
3001.88277	0.47731
3000.91847	0.48051
2999.95416	0.48427
2998.98986	0.48854
2998.02555	0.49328
2997.06125	0.49849
2996.09694	0.50415
2995.13263	0.51033
2994.16833	0.51711
2993.20402	0.52456
2992.23972	0.53265
2991.27541	0.54128
2990.31111	0.55035
2989.3468	0.55967
2988.3825	0.56912
2987.41819	0.57855
2986.45389	0.58766
2985.48958	0.59625
2984.52527	0.60424
2983.56097	0.61164
2982.59666	0.61847
2981.63236	0.62478
2980.66805	0.6306
2979.70375	0.63597
2978.73944	0.64095
2977.77514	0.6455
2976.81083	0.64957
2975.84653	0.6529
2974.88222	0.65523
2973.91792	0.65626
2972.95361	0.65563
2971.9893	0.65319
2971.025	0.64913
2970.06069	0.64404
2969.09639	0.63852
2968.13208	0.63279
2967.16778	0.62688
2966.20347	0.62078
2965.23917	0.61466
2964.27486	0.60847
2963.31056	0.60209
2962.34625	0.59538
2961.38194	0.5883
2960.41764	0.58085
2959.45333	0.57305
2958.48903	0.56499
2957.52472	0.55669
2956.56042	0.54818
2955.59611	0.53966
2954.63181	0.53147
2953.6675	0.52408
2952.7032	0.51783
2951.73889	0.51298
2950.77458	0.50964
2949.81028	0.50783
2948.84597	0.50744
2947.88167	0.50834
2946.91736	0.51043
2945.95306	0.51358
2944.98875	0.51764
2944.02445	0.52239
2943.06014	0.52751
2942.09584	0.53274
2941.13153	0.53786
2940.16723	0.54271
2939.20292	0.54706
2938.23861	0.55071
2937.27431	0.55343
2936.31	0.55516
2935.3457	0.55587
2934.38139	0.55551
2933.41709	0.55413
2932.45278	0.55181
2931.48848	0.54872
2930.52417	0.54522
2929.55987	0.54155
2928.59556	0.53796
2927.63125	0.53467
2926.66695	0.53176
2925.70264	0.52925
2924.73834	0.52706
2923.77403	0.52506
2922.80973	0.52315
2921.84542	0.52125
2920.88112	0.51938
2919.91681	0.51756
2918.95251	0.51566
2917.9882	0.51367
2917.0239	0.51175
2916.05959	0.50989
2915.09528	0.5081
2914.13098	0.50643
2913.16667	0.50492
2912.20237	0.50353
2911.23806	0.5022
2910.27376	0.50086
2909.30945	0.4994
2908.34515	0.49775
2907.38084	0.49572
2906.41654	0.49318
2905.45223	0.49008
2904.48792	0.48651
2903.52362	0.4826
2902.55931	0.4785
2901.59501	0.47438
2900.6307	0.47029
2899.6664	0.46633
2898.70209	0.46257
2897.73779	0.45908
2896.77348	0.45595
2895.80918	0.45324
2894.84487	0.45096
2893.88057	0.44903
2892.91626	0.44741
2891.95195	0.44615
2890.98765	0.44526
2890.02334	0.44472
2889.05904	0.44448
2888.09473	0.44448
2887.13043	0.44467
2886.16612	0.44507
2885.20182	0.44574
2884.23751	0.44672
2883.27321	0.44799
2882.3089	0.44958
2881.34459	0.45146
2880.38029	0.45358
2879.41598	0.4559
2878.45168	0.45838
2877.48737	0.46083
2876.52307	0.46295
2875.55876	0.46437
2874.59446	0.46487
2873.63015	0.4642
2872.66585	0.4624
2871.70154	0.45958
2870.73724	0.45592
2869.77293	0.45168
2868.80862	0.44702
2867.84432	0.44211
2866.88001	0.43722
2865.91571	0.43249
2864.9514	0.42795
2863.9871	0.42368
2863.02279	0.4197
2862.05849	0.41603
2861.09418	0.41269
2860.12988	0.40962
2859.16557	0.40688
2858.20126	0.40434
2857.23696	0.40185
2856.27265	0.39934
2855.30835	0.3968
2854.34404	0.39415
2853.37974	0.3914
2852.41543	0.38853
2851.45113	0.38549
2850.48682	0.38229
2849.52252	0.37895
2848.55821	0.37557
2847.59391	0.37222
2846.6296	0.36899
2845.66529	0.36588
2844.70099	0.3629
2843.73668	0.36007
2842.77238	0.35749
2841.80807	0.35512
2840.84377	0.3529
2839.87946	0.35082
2838.91516	0.34884
2837.95085	0.34697
2836.98655	0.34522
2836.02224	0.34355
2835.05793	0.34201
2834.09363	0.34052
2833.12932	0.33904
2832.16502	0.33755
2831.20071	0.33603
2830.23641	0.33454
2829.2721	0.33311
2828.3078	0.3317
2827.34349	0.33027
2826.37919	0.32883
2825.41488	0.32737
2824.45057	0.32594
2823.48627	0.32459
2822.52196	0.32332
2821.55766	0.3221
2820.59335	0.32092
2819.62905	0.31979
2818.66474	0.31871
2817.70044	0.3177
2816.73613	0.31678
2815.77183	0.31592
2814.80752	0.31505
2813.84322	0.31414
2812.87891	0.31315
2811.9146	0.31207
2810.9503	0.31098
2809.98599	0.30985
2809.02169	0.30869
2808.05738	0.30741
2807.09308	0.30604
2806.12877	0.30462
2805.16447	0.30317
2804.20016	0.30172
2803.23586	0.30025
2802.27155	0.29876
2801.30724	0.2972
2800.34294	0.29563
2799.37863	0.29406
2798.41433	0.29246
2797.45002	0.29083
2796.48572	0.28916
2795.52141	0.28745
2794.55711	0.28563
2793.5928	0.28375
2792.6285	0.2818
2791.66419	0.27982
2790.69989	0.27781
2789.73558	0.27571
2788.77127	0.27351
2787.80697	0.27128
2786.84266	0.26901
2785.87836	0.26673
2784.91405	0.26441
2783.94975	0.26201
2782.98544	0.25956
2782.02114	0.2571
2781.05683	0.25465
2780.09253	0.25222
2779.12822	0.24983
2778.16391	0.2475
2777.19961	0.24515
2776.2353	0.24276
2775.271	0.24034
2774.30669	0.238
2773.34239	0.23569
2772.37808	0.23341
2771.41378	0.23113
2770.44947	0.22886
2769.48517	0.22668
2768.52086	0.2246
2767.55656	0.22266
2766.59225	0.22082
2765.62794	0.21901
2764.66364	0.21726
2763.69933	0.21554
2762.73503	0.21395
2761.77072	0.21247
2760.80642	0.21114
2759.84211	0.20989
2758.87781	0.20867
2757.9135	0.20751
2756.9492	0.20646
2755.98489	0.20553
2755.02058	0.2047
2754.05628	0.20392
2753.09197	0.20317
2752.12767	0.20243
2751.16336	0.20168
2750.19906	0.20095
2749.23475	0.20028
2748.27045	0.19961
2747.30614	0.19892
2746.34184	0.19819
2745.37753	0.19741
2744.41323	0.19661
2743.44892	0.19582
2742.48461	0.19504
2741.52031	0.19424
2740.556	0.19339
2739.5917	0.19251
2738.62739	0.19167
2737.66309	0.19092
2736.69878	0.19019
2735.73448	0.18949
2734.77017	0.18879
2733.80587	0.18809
2732.84156	0.1874
2731.87725	0.18676
2730.91295	0.18622
2729.94864	0.18575
2728.98434	0.18532
2728.02003	0.18489
2727.05573	0.18449
2726.09142	0.18418
2725.12712	0.18396
2724.16281	0.18379
2723.19851	0.18361
2722.2342	0.1834
2721.2699	0.18319
2720.30559	0.18297
2719.34128	0.18278
2718.37698	0.1827
2717.41267	0.18262
2716.44837	0.18248
2715.48406	0.18228
2714.51976	0.18207
2713.55545	0.18186
2712.59115	0.18163
2711.62684	0.18137
2710.66254	0.18105
2709.69823	0.18067
2708.73392	0.1802
2707.76962	0.17976
2706.80531	0.17938
2705.84101	0.17902
2704.8767	0.17864
2703.9124	0.17821
2702.94809	0.17775
2701.98379	0.17736
2701.01948	0.17704
2700.05518	0.17674
2699.09087	0.17641
2698.12656	0.17599
2697.16226	0.1755
2696.19795	0.17495
2695.23365	0.17439
2694.26934	0.17381
2693.30504	0.17316
2692.34073	0.17243
2691.37643	0.17164
2690.41212	0.17083
2689.44782	0.17003
2688.48351	0.16921
2687.51921	0.16834
2686.5549	0.16736
2685.59059	0.16628
2684.62629	0.16516
2683.66198	0.16407
2682.69768	0.16302
2681.73337	0.16199
2680.76907	0.16094
2679.80476	0.1599
2678.84046	0.15894
2677.87615	0.15803
2676.91185	0.15719
2675.94754	0.15641
2674.98323	0.15565
2674.01893	0.1549
2673.05462	0.1542
2672.09032	0.15355
2671.12601	0.15293
2670.16171	0.1524
2669.1974	0.15191
2668.2331	0.15144
2667.26879	0.15108
2666.30449	0.15082
2665.34018	0.15062
2664.37588	0.15053
2663.41157	0.15058
2662.44726	0.15077
2661.48296	0.15105
2660.51865	0.15144
2659.55435	0.15199
2658.59004	0.15271
2657.62574	0.15356
2656.66143	0.15453
2655.69713	0.15562
2654.73282	0.15676
2653.76852	0.15788
2652.80421	0.15901
2651.8399	0.16015
2650.8756	0.16127
2649.91129	0.16238
2648.94699	0.16349
2647.98268	0.16455
2647.01838	0.16553
2646.05407	0.16636
2645.08977	0.16699
2644.12546	0.16738
2643.16116	0.16747
2642.19685	0.16723
2641.23255	0.16671
2640.26824	0.16599
2639.30393	0.16515
2638.33963	0.16425
2637.37532	0.16336
2636.41102	0.16253
2635.44671	0.16174
2634.48241	0.16103
2633.5181	0.1604
2632.5538	0.15991
2631.58949	0.15954
2630.62519	0.15924
2629.66088	0.15897
2628.69657	0.15875
2627.73227	0.15865
2626.76796	0.15875
2625.80366	0.15899
2624.83935	0.15933
2623.87505	0.15974
2622.91074	0.16019
2621.94644	0.1607
2620.98213	0.16136
2620.01783	0.16214
2619.05352	0.16293
2618.08922	0.16361
2617.12491	0.16414
2616.1606	0.16456
2615.1963	0.16489
2614.23199	0.16514
2613.26769	0.16534
2612.30338	0.16544
2611.33908	0.16542
2610.37477	0.16532
2609.41047	0.16527
2608.44616	0.16529
2607.48186	0.1653
2606.51755	0.16525
2605.55324	0.16503
2604.58894	0.16463
2603.62463	0.16411
2602.66033	0.16352
2601.69602	0.16285
2600.73172	0.16201
2599.76741	0.16093
2598.80311	0.15969
2597.8388	0.15835
2596.8745	0.15702
2595.91019	0.15573
2594.94589	0.15443
2593.98158	0.15301
2593.01727	0.15151
2592.05297	0.15003
2591.08866	0.14864
2590.12436	0.14733
2589.16005	0.14608
2588.19575	0.1448
2587.23144	0.14345
2586.26714	0.14213
2585.30283	0.14092
2584.33853	0.13979
2583.37422	0.13864
2582.40991	0.13735
2581.44561	0.13593
2580.4813	0.13445
2579.517	0.13296
2578.55269	0.13151
2577.58839	0.13008
2576.62408	0.12859
2575.65978	0.12702
2574.69547	0.12542
2573.73117	0.12387
2572.76686	0.1224
2571.80255	0.12098
2570.83825	0.11956
2569.87394	0.1181
2568.90964	0.11661
2567.94533	0.11514
2566.98103	0.1138
2566.01672	0.11253
2565.05242	0.11127
2564.08811	0.10996
2563.12381	0.10866
2562.1595	0.10742
2561.1952	0.10624
2560.23089	0.10509
2559.26658	0.10396
2558.30228	0.1028
2557.33797	0.10158
2556.37367	0.10034
2555.40936	0.09912
2554.44506	0.09798
2553.48075	0.09683
2552.51645	0.09563
2551.55214	0.09439
2550.58784	0.09317
2549.62353	0.09202
2548.65922	0.09092
2547.69492	0.08986
2546.73061	0.08884
2545.76631	0.08781
2544.802	0.08681
2543.8377	0.08583
2542.87339	0.08493
2541.90909	0.08406
2540.94478	0.08317
2539.98048	0.08227
2539.01617	0.08138
2538.05187	0.0805
2537.08756	0.07961
2536.12325	0.07872
2535.15895	0.07783
2534.19464	0.07696
2533.23034	0.07608
2532.26603	0.07523
2531.30173	0.07441
2530.33742	0.07362
2529.37312	0.07283
2528.40881	0.07201
2527.44451	0.07122
2526.4802	0.07046
2525.51589	0.06971
2524.55159	0.06895
2523.58728	0.06818
2522.62298	0.06746
2521.65867	0.06679
2520.69437	0.06613
2519.73006	0.06545
2518.76576	0.06478
2517.80145	0.06407
2516.83715	0.06342
2515.87284	0.06281
2514.90854	0.06221
2513.94423	0.06162
2512.97992	0.061
2512.01562	0.06036
2511.05131	0.05974
2510.08701	0.0592
2509.1227	0.0587
2508.1584	0.05816
2507.19409	0.05759
2506.22979	0.05702
2505.26548	0.05647
2504.30118	0.05597
2503.33687	0.0555
2502.37256	0.05503
2501.40826	0.05449
2500.44395	0.05392
2499.47965	0.05338
2498.51534	0.05291
2497.55104	0.05248
2496.58673	0.05204
2495.62243	0.05157
2494.65812	0.05105
2493.69382	0.05054
2492.72951	0.0501
2491.76521	0.04972
2490.8009	0.04934
2489.83659	0.04887
2488.87229	0.04838
2487.90798	0.0479
2486.94368	0.04746
2485.97937	0.04709
2485.01507	0.04675
2484.05076	0.04637
2483.08646	0.04592
2482.12215	0.04546
2481.15785	0.04506
2480.19354	0.04472
2479.22923	0.04442
2478.26493	0.04406
2477.30062	0.04362
2476.33632	0.04318
2475.37201	0.0428
2474.40771	0.04243
2473.4434	0.04209
2472.4791	0.04175
2471.51479	0.04134
2470.55049	0.04089
2469.58618	0.0405
2468.62188	0.04019
2467.65757	0.03988
2466.69326	0.03955
2465.72896	0.03919
2464.76465	0.03881
2463.80035	0.03845
2462.83604	0.03813
2461.87174	0.03787
2460.90743	0.03758
2459.94313	0.03727
2458.97882	0.03692
2458.01452	0.03659
2457.05021	0.0363
2456.0859	0.03608
2455.1216	0.03587
2454.15729	0.03564
2453.19299	0.03538
2452.22868	0.03514
2451.26438	0.03495
2450.30007	0.03485
2449.33577	0.03476
2448.37146	0.03464
2447.40716	0.03449
2446.44285	0.03436
2445.47854	0.03429
2444.51424	0.0343
2443.54993	0.03431
2442.58563	0.0343
2441.62132	0.03429
2440.65702	0.03424
2439.69271	0.03421
2438.72841	0.03421
2437.7641	0.03417
2436.7998	0.03406
2435.83549	0.03389
2434.87119	0.03368
2433.90688	0.03348
2432.94257	0.03327
2431.97827	0.03307
2431.01396	0.03283
2430.04966	0.03258
2429.08535	0.03233
2428.12105	0.03211
2427.15674	0.03192
2426.19244	0.03177
2425.22813	0.03164
2424.26383	0.03152
2423.29952	0.03134
2422.33521	0.03113
2421.37091	0.03094
2420.4066	0.03076
2419.4423	0.03058
2418.47799	0.03038
2417.51369	0.03018
2416.54938	0.02996
2415.58508	0.02976
2414.62077	0.02959
2413.65647	0.02944
2412.69216	0.02931
2411.72786	0.0292
2410.76355	0.02905
2409.79924	0.02887
2408.83494	0.02872
2407.87063	0.0286
2406.90633	0.02846
2405.94202	0.02827
2404.97772	0.02805
2404.01341	0.02784
2403.04911	0.02767
2402.0848	0.02748
2401.1205	0.02729
2400.15619	0.02709
2399.19188	0.02688
2398.22758	0.02667
2397.26327	0.02647
2396.29897	0.02628
2395.33466	0.02608
2394.37036	0.02585
2393.40605	0.0256
2392.44175	0.02534
2391.47744	0.02509
2390.51314	0.02484
2389.54883	0.02461
2388.58453	0.02439
2387.62022	0.02416
2386.65591	0.02395
2385.69161	0.02376
2384.7273	0.02357
2383.763	0.02338
2382.79869	0.0232
2381.83439	0.02302
2380.87008	0.02284
2379.90578	0.02266
2378.94147	0.02243
2377.97717	0.02222
2377.01286	0.02199
2376.04855	0.02174
2375.08425	0.02145
2374.11994	0.02117
2373.15564	0.02088
2372.19133	0.02063
2371.22703	0.02039
2370.26272	0.02016
2369.29842	0.01994
2368.33411	0.01974
2367.36981	0.01957
2366.4055	0.01947
2365.4412	0.01939
2364.47689	0.0193
2363.51258	0.01921
2362.54828	0.01915
2361.58397	0.01909
2360.61967	0.01904
2359.65536	0.01904
2358.69106	0.01904
2357.72675	0.01902
2356.76245	0.019
2355.79814	0.019
2354.83384	0.01902
2353.86953	0.01905
2352.90522	0.01906
2351.94092	0.01904
2350.97661	0.01897
2350.01231	0.01891
2349.048	0.01886
2348.0837	0.01878
2347.11939	0.01868
2346.15509	0.01858
2345.19078	0.01847
2344.22648	0.0184
2343.26217	0.01833
2342.29786	0.01827
2341.33356	0.01822
2340.36925	0.01821
2339.40495	0.01822
2338.44064	0.0182
2337.47634	0.01811
2336.51203	0.01793
2335.54773	0.01772
2334.58342	0.01747
2333.61912	0.01727
2332.65481	0.01713
2331.69051	0.01704
2330.7262	0.01699
2329.76189	0.01698
2328.79759	0.01701
2327.83328	0.01707
2326.86898	0.01717
2325.90467	0.01728
2324.94037	0.01738
2323.97606	0.01748
2323.01176	0.01761
2322.04745	0.01771
2321.08315	0.01778
2320.11884	0.01784
2319.15453	0.01791
2318.19023	0.01798
2317.22592	0.01806
2316.26162	0.01812
2315.29731	0.01815
2314.33301	0.01816
2313.3687	0.01815
2312.4044	0.01813
2311.44009	0.01813
2310.47579	0.01812
2309.51148	0.01811
2308.54718	0.01808
2307.58287	0.018
2306.61856	0.01787
2305.65426	0.01772
2304.68995	0.01758
2303.72565	0.01746
2302.76134	0.01729
2301.79704	0.01707
2300.83273	0.01678
2299.86843	0.01649
2298.90412	0.01622
2297.93982	0.01594
2296.97551	0.01565
2296.0112	0.01538
2295.0469	0.0151
2294.08259	0.01484
2293.11829	0.01465
2292.15398	0.01451
2291.18968	0.01441
2290.22537	0.01431
2289.26107	0.01417
2288.29676	0.01402
2287.33246	0.01391
2286.36815	0.01383
2285.40385	0.01378
2284.43954	0.0137
2283.47523	0.01357
2282.51093	0.0134
2281.54662	0.01325
2280.58232	0.01315
2279.61801	0.01307
2278.65371	0.01298
2277.6894	0.01287
2276.7251	0.01276
2275.76079	0.01267
2274.79649	0.01262
2273.83218	0.01259
2272.86787	0.01256
2271.90357	0.01246
2270.93926	0.01234
2269.97496	0.01224
2269.01065	0.01216
2268.04635	0.01212
2267.08204	0.01204
2266.11774	0.01192
2265.15343	0.01175
2264.18913	0.0116
2263.22482	0.01149
2262.26052	0.01143
2261.29621	0.01135
2260.3319	0.01123
2259.3676	0.01105
2258.40329	0.01088
2257.43899	0.01075
2256.47468	0.01066
2255.51038	0.01059
2254.54607	0.01049
2253.58177	0.01036
2252.61746	0.01021
2251.65316	0.01009
2250.68885	0.01
2249.72454	0.00994
2248.76024	0.0099
2247.79593	0.0098
2246.83163	0.00971
2245.86732	0.00966
2244.90302	0.00966
2243.93871	0.00967
2242.97441	0.00971
2242.0101	0.00974
2241.0458	0.00972
2240.08149	0.00972
2239.11719	0.00977
2238.15288	0.00987
2237.18857	0.00999
2236.22427	0.01005
2235.25996	0.0101
2234.29566	0.01016
2233.33135	0.01024
2232.36705	0.01033
2231.40274	0.01045
2230.43844	0.01056
2229.47413	0.01066
2228.50983	0.01071
2227.54552	0.01074
2226.58121	0.01079
2225.61691	0.01088
2224.6526	0.01098
2223.6883	0.01104
2222.72399	0.01105
2221.75969	0.01105
2220.79538	0.01105
2219.83108	0.01107
2218.86677	0.01107
2217.90247	0.01105
2216.93816	0.01095
2215.97385	0.0108
2215.00955	0.01066
2214.04524	0.01059
2213.08094	0.01053
2212.11663	0.01045
2211.15233	0.01036
2210.18802	0.01023
2209.22372	0.0101
2208.25941	0.01004
2207.29511	0.01004
2206.3308	0.01006
2205.3665	0.01009
2204.40219	0.01006
2203.43788	0.01001
2202.47358	0.01001
2201.50927	0.01008
2200.54497	0.01016
2199.58066	0.01024
2198.61636	0.01028
2197.65205	0.01028
2196.68775	0.01031
2195.72344	0.01041
2194.75914	0.01056
2193.79483	0.01069
2192.83052	0.01075
2191.86622	0.01076
2190.90191	0.01078
2189.93761	0.01086
2188.9733	0.011
2188.009	0.01113
2187.04469	0.01119
2186.08039	0.01119
2185.11608	0.01118
2184.15178	0.0112
2183.18747	0.01132
2182.22317	0.01143
2181.25886	0.01145
2180.29455	0.0114
2179.33025	0.01132
2178.36594	0.01125
2177.40164	0.01128
2176.43733	0.01134
2175.47303	0.01137
2174.50872	0.0113
2173.54442	0.01119
2172.58011	0.01113
2171.61581	0.01117
2170.6515	0.01124
2169.68719	0.01129
2168.72289	0.01125
2167.75858	0.01113
2166.79428	0.01104
2165.82997	0.01105
2164.86567	0.01113
2163.90136	0.01115
2162.93706	0.01107
2161.97275	0.01091
2161.00845	0.01081
2160.04414	0.01083
2159.07984	0.0109
2158.11553	0.01098
2157.15122	0.01094
2156.18692	0.01085
2155.22261	0.01078
2154.25831	0.01079
2153.294	0.0109
2152.3297	0.01103
2151.36539	0.01108
2150.40109	0.01103
2149.43678	0.01098
2148.47248	0.01103
2147.50817	0.01119
2146.54386	0.0114
2145.57956	0.01155
2144.61525	0.01162
2143.65095	0.01165
2142.68664	0.01175
2141.72234	0.01194
2140.75803	0.01217
2139.79373	0.01236
2138.82942	0.01242
2137.86512	0.01246
2136.90081	0.01253
2135.93651	0.01271
2134.9722	0.01291
2134.00789	0.01307
2133.04359	0.01308
2132.07928	0.01302
2131.11498	0.01301
2130.15067	0.01307
2129.18637	0.01313
2128.22206	0.01315
2127.25776	0.01307
2126.29345	0.01296
2125.32915	0.01288
2124.36484	0.01292
2123.40053	0.01297
2122.43623	0.01298
2121.47192	0.01292
2120.50762	0.01282
2119.54331	0.01277
2118.57901	0.01278
2117.6147	0.01282
2116.6504	0.01282
2115.68609	0.01279
2114.72179	0.01276
2113.75748	0.01276
2112.79318	0.01282
2111.82887	0.01291
2110.86456	0.01297
2109.90026	0.01303
2108.93595	0.01308
2107.97165	0.01316
2107.00734	0.01328
2106.04304	0.01341
2105.07873	0.01351
2104.11443	0.01361
2103.15012	0.01375
2102.18582	0.01392
2101.22151	0.01409
2100.2572	0.01424
2099.2929	0.01437
2098.32859	0.01451
2097.36429	0.01469
2096.39998	0.0149
2095.43568	0.01511
2094.47137	0.01528
2093.50707	0.01543
2092.54276	0.01559
2091.57846	0.01576
2090.61415	0.016
2089.64984	0.01623
2088.68554	0.01643
2087.72123	0.01655
2086.75693	0.01668
2085.79262	0.01687
2084.82832	0.01713
2083.86401	0.01738
2082.89971	0.01753
2081.9354	0.01759
2080.9711	0.01768
2080.00679	0.01783
2079.04249	0.01807
2078.07818	0.01832
2077.11387	0.01848
2076.14957	0.01856
2075.18526	0.01862
2074.22096	0.01877
2073.25665	0.01904
2072.29235	0.01934
2071.32804	0.01956
2070.36374	0.01967
2069.39943	0.01976
2068.43513	0.01994
2067.47082	0.02023
2066.50651	0.02056
2065.54221	0.02081
2064.5779	0.02093
2063.6136	0.02103
2062.64929	0.0212
2061.68499	0.02154
2060.72068	0.02196
2059.75638	0.02228
2058.79207	0.02246
2057.82777	0.02254
2056.86346	0.02273
2055.89916	0.02311
2054.93485	0.02358
2053.97054	0.02399
2053.00624	0.02424
2052.04193	0.0244
2051.07763	0.02464
2050.11332	0.02504
2049.14902	0.02554
2048.18471	0.02598
2047.22041	0.02625
2046.2561	0.02642
2045.2918	0.02665
2044.32749	0.02708
2043.36318	0.02762
2042.39888	0.02811
2041.43457	0.02843
2040.47027	0.02865
2039.50596	0.0289
2038.54166	0.02931
2037.57735	0.02984
2036.61305	0.03035
2035.64874	0.03074
2034.68444	0.03098
2033.72013	0.03118
2032.75583	0.0315
2031.79152	0.03199
2030.82721	0.03248
2029.86291	0.03283
2028.8986	0.03305
2027.9343	0.03322
2026.96999	0.0335
2026.00569	0.03395
2025.04138	0.03444
2024.07708	0.03482
2023.11277	0.03508
2022.14847	0.03525
2021.18416	0.03549
2020.21985	0.03592
2019.25555	0.0364
2018.29124	0.03682
2017.32694	0.03708
2016.36263	0.03726
2015.39833	0.03749
2014.43402	0.03787
2013.46972	0.03832
2012.50541	0.0387
2011.54111	0.03887
2010.5768	0.03892
2009.6125	0.03901
2008.64819	0.03921
2007.68388	0.03947
2006.71958	0.03969
2005.75527	0.03976
2004.79097	0.03972
2003.82666	0.03972
2002.86236	0.03985
2001.89805	0.04006
2000.93375	0.04029
1999.96944	0.04043
1999.00514	0.0405
1998.04083	0.04058
1997.07652	0.04079
1996.11222	0.04113
1995.14791	0.04147
1994.18361	0.04173
1993.2193	0.04191
1992.255	0.04212
1991.29069	0.04246
1990.32639	0.04288
1989.36208	0.04331
1988.39778	0.04365
1987.43347	0.04389
1986.46917	0.0441
1985.50486	0.04434
1984.54055	0.04461
1983.57625	0.04489
1982.61194	0.0451
1981.64764	0.04526
1980.68333	0.04546
1979.71903	0.04573
1978.75472	0.046
1977.79042	0.04629
1976.82611	0.04659
1975.86181	0.04687
1974.8975	0.04712
1973.93319	0.04738
1972.96889	0.04761
1972.00458	0.04776
1971.04028	0.0478
1970.07597	0.04777
1969.11167	0.04772
1968.14736	0.04767
1967.18306	0.04762
1966.21875	0.04749
1965.25445	0.04733
1964.29014	0.04721
1963.32583	0.04714
1962.36153	0.04714
1961.39722	0.04721
1960.43292	0.04726
1959.46861	0.04729
1958.50431	0.04736
1957.54	0.04751
1956.5757	0.04769
1955.61139	0.04781
1954.64709	0.04778
1953.68278	0.04758
1952.71848	0.04724
1951.75417	0.04683
1950.78986	0.04637
1949.82556	0.04583
1948.86125	0.04518
1947.89695	0.0445
1946.93264	0.04392
1945.96834	0.04353
1945.00403	0.04331
1944.03973	0.04311
1943.07542	0.04278
1942.11112	0.04241
1941.14681	0.04213
1940.1825	0.04199
1939.2182	0.04198
1938.25389	0.04206
1937.28959	0.04201
1936.32528	0.04184
1935.36098	0.04169
1934.39667	0.04173
1933.43237	0.04194
1932.46806	0.04221
1931.50376	0.04236
1930.53945	0.04237
1929.57515	0.04239
1928.61084	0.04261
1927.64653	0.04302
1926.68223	0.04348
1925.71792	0.04381
1924.75362	0.04396
1923.78931	0.04405
1922.82501	0.04429
1921.8607	0.0448
1920.8964	0.0454
1919.93209	0.04585
1918.96779	0.04608
1918.00348	0.04627
1917.03917	0.04667
1916.07487	0.04732
1915.11056	0.04805
1914.14626	0.04867
1913.18195	0.04906
1912.21765	0.04934
1911.25334	0.04975
1910.28904	0.05038
1909.32473	0.05118
1908.36043	0.05188
1907.39612	0.05233
1906.43182	0.05264
1905.46751	0.05302
1904.5032	0.05362
1903.5389	0.05437
1902.57459	0.05508
1901.61029	0.05559
1900.64598	0.05594
1899.68168	0.05637
1898.71737	0.05703
1897.75307	0.0579
1896.78876	0.05874
1895.82446	0.05937
1894.86015	0.0598
1893.89584	0.06016
1892.93154	0.0606
1891.96723	0.06114
1891.00293	0.06159
1890.03862	0.06181
1889.07432	0.06189
1888.11001	0.06196
1887.14571	0.06206
1886.1814	0.06233
1885.2171	0.06268
1884.25279	0.0629
1883.28849	0.06295
1882.32418	0.06292
1881.35987	0.06301
1880.39557	0.06327
1879.43126	0.06367
1878.46696	0.0641
1877.50265	0.06441
1876.53835	0.06467
1875.57404	0.06508
1874.60974	0.0657
1873.64543	0.06648
1872.68113	0.06726
1871.71682	0.06791
1870.75251	0.06847
1869.78821	0.06907
1868.8239	0.06984
1867.8596	0.07072
1866.89529	0.0716
1865.93099	0.07244
1864.96668	0.0732
1864.00238	0.07397
1863.03807	0.07485
1862.07377	0.07588
1861.10946	0.07698
1860.14516	0.07811
1859.18085	0.07922
1858.21654	0.08034
1857.25224	0.08155
1856.28793	0.08291
1855.32363	0.0844
1854.35932	0.08598
1853.39502	0.0876
1852.43071	0.08926
1851.46641	0.091
1850.5021	0.0929
1849.5378	0.09495
1848.57349	0.09716
1847.60918	0.09946
1846.64488	0.10186
1845.68057	0.10427
1844.71627	0.10673
1843.75196	0.10949
1842.78766	0.11258
1841.82335	0.11574
1840.85905	0.11892
1839.89474	0.12216
1838.93044	0.12543
1837.96613	0.12885
1837.00182	0.13248
1836.03752	0.13633
1835.07321	0.14029
1834.10891	0.14435
1833.1446	0.14856
1832.1803	0.15298
1831.21599	0.1577
1830.25169	0.16282
1829.28738	0.1684
1828.32308	0.17428
1827.35877	0.18043
1826.39447	0.18702
1825.43016	0.19424
1824.46585	0.20227
1823.50155	0.21113
1822.53724	0.22068
1821.57294	0.23106
1820.60863	0.24257
1819.64433	0.25553
1818.68002	0.27014
1817.71572	0.28657
1816.75141	0.30494
1815.78711	0.32553
1814.8228	0.34883
1813.85849	0.37547
1812.89419	0.40607
1811.92988	0.4409
1810.96558	0.47957
1810.00127	0.52067
1809.03697	0.56106
1808.07266	0.59607
1807.10836	0.62087
1806.14405	0.63319
1805.17975	0.63505
1804.21544	0.63157
1803.25114	0.62807
1802.28683	0.62785
1801.32252	0.63206
1800.35822	0.64023
1799.39391	0.65135
1798.42961	0.66434
1797.4653	0.67843
1796.501	0.69327
1795.53669	0.70873
1794.57239	0.7245
1793.60808	0.74021
1792.64378	0.75587
1791.67947	0.77148
1790.71516	0.7869
1789.75086	0.80223
1788.78655	0.81738
1787.82225	0.83195
1786.85794	0.84535
1785.89364	0.85687
1784.92933	0.86614
1783.96503	0.87327
1783.00072	0.87877
1782.03642	0.88336
1781.07211	0.88806
1780.10781	0.89405
1779.1435	0.90218
1778.17919	0.91277
1777.21489	0.92543
1776.25058	0.93885
1775.28628	0.95165
1774.32197	0.96327
1773.35767	0.97366
1772.39336	0.98244
1771.42906	0.98786
1770.46475	0.98734
1769.50045	0.97979
1768.53614	0.96669
1767.57183	0.9518
1766.60753	0.93858
1765.64322	0.92867
1764.67892	0.92238
1763.71461	0.91915
1762.75031	0.91812
1761.786	0.91865
1760.8217	0.92045
1759.85739	0.92338
1758.89309	0.92735
1757.92878	0.93246
1756.96448	0.93881
1756.00017	0.94743
1755.03586	0.9598
1754.07156	0.97605
1753.10725	0.99218
1752.14295	1
1751.17864	0.992
1750.21434	0.96491
1749.25003	0.92053
1748.28573	0.8656
1747.32142	0.80866
1746.35712	0.75615
1745.39281	0.71146
1744.4285	0.67481
1743.4642	0.64417
1742.49989	0.61676
1741.53559	0.5903
1740.57128	0.56387
1739.60698	0.53814
1738.64267	0.51432
1737.67837	0.49296
1736.71406	0.47439
1735.74976	0.45875
1734.78545	0.44512
1733.82115	0.43148
1732.85684	0.41499
1731.89253	0.39398
1730.92823	0.36927
1729.96392	0.34343
1728.99962	0.31908
1728.03531	0.2975
1727.07101	0.27909
1726.1067	0.26375
1725.1424	0.25121
1724.17809	0.24127
1723.21379	0.23381
1722.24948	0.22882
1721.28517	0.22611
1720.32087	0.22555
1719.35656	0.22703
1718.39226	0.23049
1717.42795	0.23616
1716.46365	0.24408
1715.49934	0.25428
1714.53504	0.26693
1713.57073	0.28217
1712.60643	0.29995
1711.64212	0.32057
1710.67781	0.34434
1709.71351	0.37099
1708.7492	0.39939
1707.7849	0.42695
1706.82059	0.45102
1705.85629	0.4707
1704.89198	0.48761
1703.92768	0.50487
1702.96337	0.52494
1701.99907	0.54857
1701.03476	0.57543
1700.07046	0.60525
1699.10615	0.6368
1698.14184	0.66855
1697.17754	0.69953
1696.21323	0.72901
1695.24893	0.75597
1694.28462	0.77904
1693.32032	0.79758
1692.35601	0.81075
1691.39171	0.81517
1690.4274	0.80604
1689.4631	0.78089
1688.49879	0.74243
1687.53448	0.69752
1686.57018	0.6529
1685.60587	0.61248
1684.64157	0.57719
1683.67726	0.54682
1682.71296	0.52026
1681.74865	0.49625
1680.78435	0.47427
1679.82004	0.45407
1678.85574	0.43544
1677.89143	0.41799
1676.92713	0.40135
1675.96282	0.38526
1674.99851	0.3698
1674.03421	0.35528
1673.0699	0.34145
1672.1056	0.32809
1671.14129	0.31505
1670.17699	0.30216
1669.21268	0.28941
1668.24838	0.27711
1667.28407	0.26524
1666.31977	0.2536
1665.35546	0.24218
1664.39115	0.23089
1663.42685	0.21984
1662.46254	0.2094
1661.49824	0.19993
1660.53393	0.19137
1659.56963	0.18359
1658.60532	0.17637
1657.64102	0.16943
1656.67671	0.16271
1655.71241	0.15612
1654.7481	0.14975
1653.7838	0.14386
1652.81949	0.13859
1651.85518	0.13407
1650.89088	0.13011
1649.92657	0.12672
1648.96227	0.12395
1647.99796	0.12168
1647.03366	0.11969
1646.06935	0.1178
1645.10505	0.11622
1644.14074	0.11503
1643.17644	0.1142
1642.21213	0.11362
1641.24782	0.11307
1640.28352	0.11248
1639.31921	0.11194
1638.35491	0.11161
1637.3906	0.11156
1636.4263	0.11168
1635.46199	0.11182
1634.49769	0.11209
1633.53338	0.11243
1632.56908	0.11283
1631.60477	0.11347
1630.64047	0.11425
1629.67616	0.11511
1628.71185	0.11597
1627.74755	0.11689
1626.78324	0.11802
1625.81894	0.11931
1624.85463	0.1207
1623.89033	0.12217
1622.92602	0.12389
1621.96172	0.12588
1620.99741	0.12806
1620.03311	0.13045
1619.0688	0.13305
1618.10449	0.13592
1617.14019	0.13905
1616.17588	0.14263
1615.21158	0.14662
1614.24727	0.15087
1613.28297	0.15555
1612.31866	0.16078
1611.35436	0.16668
1610.39005	0.17321
1609.42575	0.18014
1608.46144	0.18699
1607.49714	0.19326
1606.53283	0.19852
1605.56852	0.20243
1604.60422	0.2047
1603.63991	0.20515
1602.67561	0.20401
1601.7113	0.20172
1600.747	0.19905
1599.78269	0.19664
1598.81839	0.19481
1597.85408	0.19362
1596.88978	0.19287
1595.92547	0.19241
1594.96116	0.19222
1593.99686	0.19253
1593.03255	0.19345
1592.06825	0.19488
1591.10394	0.19673
1590.13964	0.19897
1589.17533	0.20152
1588.21103	0.20406
1587.24672	0.20633
1586.28242	0.20785
1585.31811	0.20822
1584.3538	0.20821
1583.3895	0.2094
1582.42519	0.2127
1581.46089	0.21792
1580.49658	0.22454
1579.53228	0.23188
1578.56797	0.23945
1577.60367	0.24701
1576.63936	0.25454
1575.67506	0.26233
1574.71075	0.27033
1573.74645	0.27839
1572.78214	0.28682
1571.81783	0.29634
1570.85353	0.3077
1569.88922	0.32157
1568.92492	0.3383
1567.96061	0.3574
1566.99631	0.3777
1566.032	0.39739
1565.0677	0.41435
1564.10339	0.42691
1563.13909	0.43468
1562.17478	0.43894
1561.21047	0.44148
1560.24617	0.44378
1559.28186	0.44658
1558.31756	0.44959
1557.35325	0.45189
1556.38895	0.45242
1555.42464	0.45029
1554.46034	0.44543
1553.49603	0.4385
1552.53173	0.43029
1551.56742	0.42158
1550.60312	0.41272
1549.63881	0.40386
1548.6745	0.39511
1547.7102	0.38656
1546.74589	0.37845
1545.78159	0.37088
1544.81728	0.36394
1543.85298	0.35746
1542.88867	0.35111
1541.92437	0.34493
1540.96006	0.33921
1539.99576	0.3339
1539.03145	0.32908
1538.06714	0.32465
1537.10284	0.32025
1536.13853	0.31586
1535.17423	0.31171
1534.20992	0.30802
1533.24562	0.305
1532.28131	0.30267
1531.31701	0.30072
1530.3527	0.29901
1529.3884	0.29765
1528.42409	0.29671
1527.45979	0.29643
1526.49548	0.29661
1525.53117	0.29717
1524.56687	0.2981
1523.60256	0.29931
1522.63826	0.30083
1521.67395	0.30277
1520.70965	0.30537
1519.74534	0.3085
1518.78104	0.31185
1517.81673	0.31537
1516.85243	0.3194
1515.88812	0.32416
1514.92381	0.32969
1513.95951	0.33606
1512.9952	0.34314
1512.0309	0.35102
1511.06659	0.35958
1510.10229	0.36849
1509.13798	0.37771
1508.17368	0.38776
1507.20937	0.40016
1506.24507	0.41605
1505.28076	0.43293
1504.31646	0.44638
1503.35215	0.45736
1502.38784	0.46952
1501.42354	0.48254
1500.45923	0.49536
1499.49493	0.51038
1498.53062	0.53169
1497.56632	0.56011
1496.60201	0.59134
1495.63771	0.61745
1494.6734	0.62864
1493.7091	0.61933
1492.74479	0.59223
1491.78048	0.5559
1490.81618	0.5189
1489.85187	0.48674
1488.88757	0.4619
1487.92326	0.44513
1486.95896	0.43678
1485.99465	0.43711
1485.03035	0.44552
1484.06604	0.45973
1483.10174	0.47471
1482.13743	0.48338
1481.17313	0.47961
1480.20882	0.46162
1479.24451	0.43313
1478.28021	0.40084
1477.3159	0.37068
1476.3516	0.34572
1475.38729	0.32686
1474.42299	0.31373
1473.45868	0.30582
1472.49438	0.30277
1471.53007	0.30369
1470.56577	0.3068
1469.60146	0.31017
1468.63715	0.31317
1467.67285	0.31663
1466.70854	0.32151
1465.74424	0.32792
1464.77993	0.33538
1463.81563	0.34297
1462.85132	0.34987
1461.88702	0.35631
1460.92271	0.36315
1459.95841	0.37059
1458.9941	0.37692
1458.02979	0.3785
1457.06549	0.37172
1456.10118	0.35622
1455.13688	0.33494
1454.17257	0.31097
1453.20827	0.28728
1452.24396	0.26651
1451.27966	0.24951
1450.31535	0.23548
1449.35105	0.22306
1448.38674	0.21163
1447.42244	0.20118
1446.45813	0.19173
1445.49382	0.18292
1444.52952	0.17386
1443.56521	0.16344
1442.60091	0.15152
1441.6366	0.13944
1440.6723	0.1286
1439.70799	0.11949
1438.74369	0.11198
1437.77938	0.10564
1436.81508	0.10033
1435.85077	0.09607
1434.88646	0.09247
1433.92216	0.08907
1432.95785	0.08592
1431.99355	0.08305
1431.02924	0.0806
1430.06494	0.07881
1429.10063	0.0777
1428.13633	0.07702
1427.17202	0.07662
1426.20772	0.07652
1425.24341	0.07681
1424.27911	0.07753
1423.3148	0.07879
1422.35049	0.08049
1421.38619	0.08258
1420.42188	0.08494
1419.45758	0.08767
1418.49327	0.091
1417.52897	0.09459
1416.56466	0.09807
1415.60036	0.10119
1414.63605	0.10357
1413.67175	0.10513
1412.70744	0.1063
1411.74313	0.1077
1410.77883	0.10948
1409.81452	0.11115
1408.85022	0.11196
1407.88591	0.11177
1406.92161	0.11135
1405.9573	0.11161
1404.993	0.11297
1404.02869	0.11569
1403.06439	0.11991
1402.10008	0.12588
1401.13578	0.13427
1400.17147	0.1458
1399.20716	0.16058
1398.24286	0.17718
1397.27855	0.19212
1396.31425	0.20173
1395.34994	0.20454
1394.38564	0.20184
1393.42133	0.19563
1392.45703	0.18701
1391.49272	0.17671
1390.52842	0.16582
1389.56411	0.15552
1388.5998	0.14632
1387.6355	0.13825
1386.67119	0.13149
1385.70689	0.12642
1384.74258	0.12354
1383.77828	0.12347
1382.81397	0.12598
1381.84967	0.12994
1380.88536	0.13485
1379.92106	0.14107
1378.95675	0.14935
1377.99245	0.16049
1377.02814	0.1754
1376.06383	0.19418
1375.09953	0.21463
1374.13522	0.23331
1373.17092	0.24795
1372.20661	0.25846
1371.24231	0.2667
1370.278	0.27327
1369.3137	0.27545
1368.34939	0.27028
1367.38509	0.25961
1366.42078	0.24846
1365.45647	0.23898
1364.49217	0.22965
1363.52786	0.21862
1362.56356	0.20604
1361.59925	0.19389
1360.63495	0.18399
1359.67064	0.17703
1358.70634	0.17282
1357.74203	0.17083
1356.77773	0.17027
1355.81342	0.17017
1354.84911	0.16975
1353.88481	0.16862
1352.9205	0.16692
1351.9562	0.1651
1350.99189	0.16361
1350.02759	0.16263
1349.06328	0.1622
1348.09898	0.16238
1347.13467	0.16326
1346.17037	0.16503
1345.20606	0.16785
1344.24176	0.17169
1343.27745	0.17628
1342.31314	0.18119
1341.34884	0.18627
1340.38453	0.19156
1339.42023	0.19711
1338.45592	0.20285
1337.49162	0.20862
1336.52731	0.21424
1335.56301	0.21956
1334.5987	0.22479
1333.6344	0.23017
1332.67009	0.23578
1331.70578	0.24158
1330.74148	0.24748
1329.77717	0.25347
1328.81287	0.25963
1327.84856	0.26599
1326.88426	0.27242
1325.91995	0.27868
1324.95565	0.28456
1323.99134	0.29023
1323.02704	0.29606
1322.06273	0.30248
1321.09843	0.30973
1320.13412	0.31772
1319.16981	0.32621
1318.20551	0.33475
1317.2412	0.34285
1316.2769	0.35024
1315.31259	0.35692
1314.34829	0.36289
1313.38398	0.3679
1312.41968	0.37172
1311.45537	0.37422
1310.49107	0.37514
1309.52676	0.37442
1308.56245	0.37213
1307.59815	0.3684
1306.63384	0.36354
1305.66954	0.35821
1304.70523	0.3531
1303.74093	0.34864
1302.77662	0.34518
1301.81232	0.34282
1300.84801	0.34147
1299.88371	0.34101
1298.9194	0.34136
1297.9551	0.34259
1296.99079	0.34488
1296.02648	0.34836
1295.06218	0.35296
1294.09787	0.35844
1293.13357	0.36447
1292.16926	0.37056
1291.20496	0.37623
1290.24065	0.38126
1289.27635	0.38559
1288.31204	0.38918
1287.34774	0.39196
1286.38343	0.39399
1285.41912	0.39511
1284.45482	0.395
1283.49051	0.39343
1282.52621	0.39006
1281.5619	0.3844
1280.5976	0.37582
1279.63329	0.36401
1278.66899	0.34938
1277.70468	0.33275
1276.74038	0.31515
1275.77607	0.29752
1274.81177	0.28066
1273.84746	0.26523
1272.88315	0.25181
1271.91885	0.24091
1270.95454	0.23273
1269.99024	0.22717
1269.02593	0.22389
1268.06163	0.22258
1267.09732	0.22324
1266.13302	0.22591
1265.16871	0.2305
1264.20441	0.23681
1263.2401	0.24453
1262.27579	0.25344
1261.31149	0.26356
1260.34718	0.27509
1259.38288	0.28832
1258.41857	0.3034
1257.45427	0.32015
1256.48996	0.33843
1255.52566	0.35806
1254.56135	0.37874
1253.59705	0.39998
1252.63274	0.42089
1251.66844	0.44004
1250.70413	0.45582
1249.73982	0.46696
1248.77552	0.47296
1247.81121	0.47442
1246.84691	0.47271
1245.8826	0.4692
1244.9183	0.46462
1243.95399	0.45888
1242.98969	0.45147
1242.02538	0.44178
1241.06108	0.42929
1240.09677	0.41383
1239.13246	0.39588
1238.16816	0.3766
1237.20385	0.3574
1236.23955	0.3394
1235.27524	0.32312
1234.31094	0.30863
1233.34663	0.29559
1232.38233	0.28349
1231.41802	0.27177
1230.45372	0.2602
1229.48941	0.24885
1228.5251	0.23815
1227.5608	0.2286
1226.59649	0.22065
1225.63219	0.21456
1224.66788	0.21057
1223.70358	0.20899
1222.73927	0.20981
1221.77497	0.2126
1220.81066	0.21673
1219.84636	0.22168
1218.88205	0.22722
1217.91775	0.23346
1216.95344	0.24059
1215.98913	0.24871
1215.02483	0.25775
1214.06052	0.26769
1213.09622	0.27876
1212.13191	0.29117
1211.16761	0.30493
1210.2033	0.3199
1209.239	0.33548
1208.27469	0.35103
1207.31039	0.36617
1206.34608	0.38123
1205.38177	0.39704
1204.41747	0.41381
1203.45316	0.43064
1202.48886	0.44543
1201.52455	0.45568
1200.56025	0.45947
1199.59594	0.45564
1198.63164	0.44422
1197.66733	0.4267
1196.70303	0.40603
1195.73872	0.38547
1194.77442	0.3674
1193.81011	0.35315
1192.8458	0.34302
1191.8815	0.33629
1190.91719	0.33187
1189.95289	0.3288
1188.98858	0.32662
1188.02428	0.3252
1187.05997	0.32436
1186.09567	0.32371
1185.13136	0.32264
1184.16706	0.32071
1183.20275	0.3178
1182.23844	0.31408
1181.27414	0.3096
1180.30983	0.3042
1179.34553	0.2977
1178.38122	0.29022
1177.41692	0.28267
1176.45261	0.27631
1175.48831	0.27207
1174.524	0.27066
1173.5597	0.27227
1172.59539	0.27685
1171.63109	0.28415
1170.66678	0.29385
1169.70247	0.30554
1168.73817	0.31879
1167.77386	0.33346
1166.80956	0.34962
1165.84525	0.36729
1164.88095	0.38653
1163.91664	0.4073
1162.95234	0.42923
1161.98803	0.4513
1161.02373	0.4712
1160.05942	0.48566
1159.09511	0.49331
1158.13081	0.49573
1157.1665	0.49458
1156.2022	0.49051
1155.23789	0.48385
1154.27359	0.47539
1153.30928	0.46606
1152.34498	0.45529
1151.38067	0.44194
1150.41637	0.4266
1149.45206	0.41173
1148.48776	0.39942
1147.52345	0.38989
1146.55914	0.38222
1145.59484	0.37561
1144.63053	0.36984
1143.66623	0.36532
1142.70192	0.36276
1141.73762	0.36265
1140.77331	0.36517
1139.80901	0.37098
1138.8447	0.38107
1137.8804	0.39625
1136.91609	0.41677
1135.95178	0.4417
1134.98748	0.46849
1134.02317	0.49354
1133.05887	0.51413
1132.09456	0.53023
1131.13026	0.54363
1130.16595	0.55605
1129.20165	0.56835
1128.23734	0.58063
1127.27304	0.59286
1126.30873	0.6051
1125.34443	0.61738
1124.38012	0.63023
1123.41581	0.6452
1122.45151	0.66406
1121.4872	0.68818
1120.5229	0.71829
1119.55859	0.75467
1118.59429	0.79663
1117.62998	0.84164
1116.66568	0.88555
1115.70137	0.92368
1114.73707	0.95218
1113.77276	0.96811
1112.80845	0.96947
1111.84415	0.95588
1110.87984	0.92898
1109.91554	0.89213
1108.95123	0.84935
1107.98693	0.80405
1107.02262	0.75841
1106.05832	0.71343
1105.09401	0.66923
1104.12971	0.62578
1103.1654	0.58349
1102.20109	0.54319
1101.23679	0.50565
1100.27248	0.47108
1099.30818	0.43958
1098.34387	0.41112
1097.37957	0.38564
1096.41526	0.36317
1095.45096	0.34378
1094.48665	0.32735
1093.52235	0.31345
1092.55804	0.30165
1091.59374	0.2917
1090.62943	0.28357
1089.66512	0.27723
1088.70082	0.27228
1087.73651	0.26792
1086.77221	0.26352
1085.8079	0.25874
1084.8436	0.25364
1083.87929	0.24864
1082.91499	0.24411
1081.95068	0.24013
1080.98638	0.23666
1080.02207	0.23391
1079.05776	0.23236
1078.09346	0.23237
1077.12915	0.23401
1076.16485	0.23706
1075.20054	0.24087
1074.23624	0.24438
1073.27193	0.24685
1072.30763	0.24844
1071.34332	0.24985
1070.37902	0.25153
1069.41471	0.25342
1068.45041	0.25503
1067.4861	0.25591
1066.52179	0.25616
1065.55749	0.25601
1064.59318	0.25552
1063.62888	0.25468
1062.66457	0.25321
1061.70027	0.25088
1060.73596	0.24785
1059.77166	0.24475
1058.80735	0.24203
1057.84305	0.23985
1056.87874	0.2381
1055.91443	0.23637
1054.95013	0.23441
1053.98582	0.23242
1053.02152	0.23084
1052.05721	0.22995
1051.09291	0.2294
1050.1286	0.22854
1049.1643	0.22676
1048.19999	0.2241
1047.23569	0.22121
1046.27138	0.21867
1045.30708	0.21673
1044.34277	0.21528
1043.37846	0.21405
1042.41416	0.21304
1041.44985	0.21262
1040.48555	0.21347
1039.52124	0.21634
1038.55694	0.22166
1037.59263	0.22968
1036.62833	0.24099
1035.66402	0.25624
1034.69972	0.27557
1033.73541	0.29835
1032.7711	0.32301
1031.8068	0.34762
1030.84249	0.37089
1029.87819	0.39177
1028.91388	0.40839
1027.94958	0.42027
1026.98527	0.42904
1026.02097	0.43522
1025.05666	0.43749
1024.09236	0.43412
1023.12805	0.42392
1022.16375	0.40732
1021.19944	0.38668
1020.23513	0.36465
1019.27083	0.34306
1018.30652	0.32325
1017.34222	0.30637
1016.37791	0.29345
1015.41361	0.285
1014.4493	0.28078
1013.485	0.28004
1012.52069	0.28198
1011.55639	0.28566
1010.59208	0.28954
1009.62777	0.29208
1008.66347	0.29322
1007.69916	0.29366
1006.73486	0.29358
1005.77055	0.29329
1004.80625	0.29384
1003.84194	0.29638
1002.87764	0.30132
1001.91333	0.30864
1000.94903	0.31873
999.98472	0.33296
999.02042	0.35289
998.05611	0.37889
997.0918	0.41017
996.1275	0.44517
995.16319	0.48232
994.19889	0.52051
993.23458	0.55854
992.27028	0.59515
991.30597	0.62898
990.34167	0.65881
989.37736	0.68387
988.41306	0.70428
987.44875	0.72124
986.48444	0.73634
985.52014	0.75081
984.55583	0.76529
983.59153	0.77955
982.62722	0.79163
981.66292	0.79811
980.69861	0.79545
979.73431	0.78095
978.77	0.75442
977.8057	0.71852
976.84139	0.67734
975.87708	0.63473
974.91278	0.59359
973.94847	0.55596
972.98417	0.52265
972.01986	0.49367
971.05556	0.46859
970.09125	0.44628
969.12695	0.42511
968.16264	0.40336
967.19834	0.37987
966.23403	0.35468
965.26973	0.32893
964.30542	0.30391
963.34111	0.28098
962.37681	0.26111
961.4125	0.24446
960.4482	0.23054
959.48389	0.21855
958.51959	0.20801
957.55528	0.19899
956.59098	0.19139
955.62667	0.18504
954.66237	0.17991
953.69806	0.17583
952.73375	0.17225
951.76945	0.16881
950.80514	0.1655
949.84084	0.16248
948.87653	0.16004
947.91223	0.15831
946.94792	0.1574
945.98362	0.15761
945.01931	0.1591
944.05501	0.16137
943.0907	0.16324
942.1264	0.16329
941.16209	0.1604
940.19778	0.15417
939.23348	0.1453
938.26917	0.13531
937.30487	0.12563
936.34056	0.11698
935.37626	0.10968
934.41195	0.10404
933.44765	0.10045
932.48334	0.09917
931.51904	0.10001
930.55473	0.10253
929.59042	0.1061
928.62612	0.10966
927.66181	0.11194
926.69751	0.11226
925.7332	0.11055
924.7689	0.10724
923.80459	0.10352
922.84029	0.10046
921.87598	0.09758
920.91168	0.09359
919.94737	0.08833
918.98307	0.08291
918.01876	0.07825
917.05445	0.07454
916.09015	0.07155
915.12584	0.06869
914.16154	0.06546
913.19723	0.06202
912.23293	0.05876
911.26862	0.05593
910.30432	0.05325
909.34001	0.05029
908.37571	0.04693
907.4114	0.04371
906.44709	0.04148
905.48279	0.04045
904.51848	0.04005
903.55418	0.03949
902.58987	0.03841
901.62557	0.03706
900.66126	0.03619
899.69696	0.03632
898.73265	0.03702
897.76835	0.03731
896.80404	0.0365
895.83974	0.03482
894.87543	0.03312
893.91112	0.03216
892.94682	0.03203
891.98251	0.03201
891.01821	0.03137
890.0539	0.03025
889.0896	0.02957
888.12529	0.02998
887.16099	0.03117
886.19668	0.03213
885.23238	0.03184
884.26807	0.03043
883.30376	0.02904
882.33946	0.02867
881.37515	0.02911
880.41085	0.02915
879.44654	0.02788
878.48224	0.02536
877.51793	0.02291
876.55363	0.02208
875.58932	0.02316
874.62502	0.02498
873.66071	0.02648
872.69641	0.02778
871.7321	0.03
870.76779	0.03452
869.80349	0.04174
868.83918	0.0508
867.87488	0.06025
866.91057	0.06851
865.94627	0.07432
864.98196	0.07678
864.01766	0.07648
863.05335	0.07513
862.08905	0.07333
861.12474	0.07112
860.16043	0.06939
859.19613	0.06949
858.23182	0.07143
857.26752	0.07333
856.30321	0.07285
855.33891	0.06914
854.3746	0.06348
853.4103	0.0579
852.44599	0.0537
851.48169	0.05127
850.51738	0.05005
849.55307	0.0492
848.58877	0.04818
847.62446	0.04707
846.66016	0.04681
845.69585	0.04801
844.73155	0.04998
843.76724	0.05061
842.80294	0.04813
841.83863	0.04318
840.87433	0.03783
839.91002	0.03311
838.94572	0.02872
837.98141	0.02439
837.0171	0.02065
836.0528	0.0182
835.08849	0.01737
834.12419	0.01797
833.15988	0.01894
832.19558	0.01936
831.23127	0.01926
830.26697	0.01904
829.30266	0.01867
828.33836	0.01751
827.37405	0.0155
826.40974	0.01333
825.44544	0.01132
824.48113	0.00972
823.51683	0.009
822.55252	0.00937
821.58822	0.01069
820.62391	0.01243
819.65961	0.014
818.6953	0.01543
817.731	0.01698
816.76669	0.01815
815.80239	0.01863
814.83808	0.01927
813.87377	0.02078
812.90947	0.0229
811.94516	0.02526
810.98086	0.02787
810.01655	0.03041
809.05225	0.03231
808.08794	0.03345
807.12364	0.03392
806.15933	0.03368
805.19503	0.03278
804.23072	0.0318
803.26641	0.03133
802.30211	0.03137
801.3378	0.03145
800.3735	0.03065
799.40919	0.02833
798.44489	0.0253
797.48058	0.02308
796.51628	0.02218
795.55197	0.02227
794.58767	0.02305
793.62336	0.02422
792.65906	0.02568
791.69475	0.02781
790.73044	0.03076
789.76614	0.03373
788.80183	0.03578
787.83753	0.03691
786.87322	0.03759
785.90892	0.03827
784.94461	0.03955
783.98031	0.04143
783.016	0.04295
782.0517	0.0435
781.08739	0.04313
780.12308	0.04256
779.15878	0.04266
778.19447	0.04397
777.23017	0.04625
776.26586	0.04896
775.30156	0.05227
774.33725	0.05716
773.37295	0.06479
772.40864	0.07574
771.44434	0.08847
770.48003	0.09909
769.51573	0.10333
768.55142	0.10046
767.58711	0.09471
766.62281	0.0904
765.6585	0.08811
764.6942	0.08709
763.72989	0.08684
762.76559	0.08709
761.80128	0.08792
760.83698	0.08902
759.87267	0.08959
758.90837	0.08909
757.94406	0.08767
756.97975	0.08587
756.01545	0.08479
755.05114	0.08575
754.08684	0.08855
753.12253	0.09159
752.15823	0.09348
751.19392	0.09421
750.22962	0.09465
749.26531	0.09599
748.30101	0.09869
747.3367	0.10183
746.3724	0.10426
745.40809	0.10574
744.44378	0.10732
743.47948	0.1102
742.51517	0.1146
741.55087	0.11946
740.58656	0.12296
739.62226	0.12486
738.65795	0.12679
737.69365	0.13024
736.72934	0.13589
735.76504	0.14308
734.80073	0.14976
733.83642	0.15406
732.87212	0.15552
731.90781	0.15506
730.94351	0.15396
729.9792	0.153
729.0149	0.15255
728.05059	0.15247
727.08629	0.15273
726.12198	0.15335
725.15768	0.15372
724.19337	0.15263
723.22906	0.14847
722.26476	0.14044
721.30045	0.12948
720.33615	0.11831
719.37184	0.10979
718.40754	0.10447
717.44323	0.10098
716.47893	0.09773
715.51462	0.09394
714.55032	0.09
713.58601	0.08741
712.62171	0.08729
711.6574	0.08922
710.69309	0.09187
709.72879	0.09484
708.76448	0.09902
707.80018	0.10544
706.83587	0.11448
705.87157	0.12574
704.90726	0.13832
703.94296	0.15211
702.97865	0.168
702.01435	0.18656
701.05004	0.20716
700.08573	0.22847
699.12143	0.24855
698.15712	0.26576
697.19282	0.28073
696.22851	0.29464
695.26421	0.30339
694.2999	0.29574
693.3356	0.26641
692.37129	0.22567
691.40699	0.18706
690.44268	0.15666
689.47838	0.1348
688.51407	0.11966
687.54976	0.10907
686.58546	0.1013
685.62115	0.09534
684.65685	0.09072
683.69254	0.0876
682.72824	0.08587
681.76393	0.08442
680.79963	0.08287
679.83532	0.08137
678.87102	0.08009
677.90671	0.07937
676.9424	0.0796
675.9781	0.08065
675.01379	0.08184
674.04949	0.08317
673.08518	0.08493
672.12088	0.08687
671.15657	0.08846
670.19227	0.08937
669.22796	0.08952
668.26366	0.08892
667.29935	0.08837
666.33505	0.08838
665.37074	0.0886
664.40643	0.08904
663.44213	0.08996
662.47782	0.09132
661.51352	0.0929
660.54921	0.09479
659.58491	0.0965
658.6206	0.09731
657.6563	0.09731
656.69199	0.09703
655.72769	0.09649
654.76338	0.09528
653.79907	0.09335
652.83477	0.0906
651.87046	0.08721
650.90616	0.08397
649.94185	0.08119
648.97755	0.07828
648.01324	0.07485
647.04894	0.0713
646.08463	0.06806
645.12033	0.0655
644.15602	0.06396
643.19172	0.06277
642.22741	0.06102
641.2631	0.05896
640.2988	0.05752
639.33449	0.05681
638.37019	0.05676
637.40588	0.05726
636.44158	0.05726
635.47727	0.05647
634.51297	0.05597
633.54866	0.05667
632.58436	0.05801
631.62005	0.05912
630.65574	0.05984
629.69144	0.0601
628.72713	0.06028
627.76283	0.06115
626.79852	0.0632
625.83422	0.06546
624.86991	0.06665
623.90561	0.06627
622.9413	0.065
621.977	0.06434
621.01269	0.06486
620.04839	0.06632
619.08408	0.06872
618.11977	0.07323
617.15547	0.07677
616.19116	0.07387
615.22686	0.06816
614.26255	0.0655
613.29825	0.06485
612.33394	0.06411
611.36964	0.06347
610.40533	0.06321
609.44103	0.06288
608.47672	0.06252
607.51241	0.06188
606.54811	0.06019
605.5838	0.058
604.6195	0.05662
603.65519	0.05629
602.69089	0.05645
601.72658	0.05664
600.76228	0.05632
599.79797	0.05566
598.83367	0.05578
597.86936	0.05708
596.90505	0.059
595.94075	0.06119
594.97644	0.06394
594.01214	0.06691
593.04783	0.07001
592.08353	0.0742
591.11922	0.07961
590.15492	0.08528
589.19061	0.09029
588.22631	0.09446
587.262	0.0979
586.2977	0.10103
585.33339	0.10447
584.36908	0.10813
583.40478	0.11177
582.44047	0.11526
581.47617	0.11867
580.51186	0.12193
579.54756	0.12426
578.58325	0.12458
577.61895	0.12196
576.65464	0.11669
575.69034	0.10996
574.72603	0.10273
573.76172	0.09549
572.79742	0.08909
571.83311	0.08406
570.86881	0.07993
569.9045	0.07652
568.9402	0.07385
567.97589	0.07182
567.01159	0.07051
566.04728	0.06994
565.08298	0.07023
564.11867	0.0708
563.15437	0.07119
562.19006	0.07142
561.22575	0.07144
560.26145	0.07184
559.29714	0.07298
558.33284	0.0737
557.36853	0.07295
556.40423	0.07159
555.43992	0.07083
554.47562	0.0705
553.51131	0.0702
552.54701	0.06957
551.5827	0.06828
550.61839	0.06618
549.65409	0.06376
548.68978	0.06197
547.72548	0.06061
546.76117	0.05917
545.79687	0.05751
544.83256	0.05544
543.86826	0.05348
542.90395	0.05228
541.93965	0.05178
540.97534	0.05158
540.01104	0.05155
539.04673	0.05184
538.08242	0.05241
537.11812	0.0538
536.15381	0.05677
535.18951	0.0607
534.2252	0.06476
533.2609	0.06914
532.29659	0.07407
531.33229	0.07952
530.36798	0.08564
529.40368	0.09216
528.43937	0.09802
527.47506	0.1027
526.51076	0.10552
525.54645	0.1064
524.58215	0.10667
523.61784	0.10677
522.65354	0.106
521.68923	0.10351
520.72493	0.09917
519.76062	0.09345
518.79632	0.08686
517.83201	0.08062
516.86771	0.07612
515.9034	0.07312
514.93909	0.07085
513.97479	0.07018
513.01048	0.07182
512.04618	0.07481
511.08187	0.07825
510.11757	0.08159
509.15326	0.08419
508.18896	0.08585
507.22465	0.08767
506.26035	0.09035
505.29604	0.09381
504.33173	0.09661
503.36743	0.09712
502.40312	0.09603
501.43882	0.09491
500.47451	0.0954
499.51021	0.09748
498.5459	0.09968
497.5816	0.10184
496.61729	0.10375
495.65299	0.10442
494.68868	0.10437
493.72438	0.10463
492.76007	0.10386
491.79576	0.10053
490.83146	0.09516
489.86715	0.08906
488.90285	0.08424
487.93854	0.08204
486.97424	0.08103
486.00993	0.07904
485.04563	0.07597
484.08132	0.07222
483.11702	0.06884
482.15271	0.06717
481.1884	0.06673
480.2241	0.06622
479.25979	0.06435
478.29549	0.06197
477.33118	0.06089
476.36688	0.06125
475.40257	0.06249
474.43827	0.06288
473.47396	0.06122
472.50966	0.05871
471.54535	0.058
470.58104	0.05994
469.61674	0.0632
468.65243	0.06619
467.68813	0.06734
466.72382	0.06797
465.75952	0.0699
464.79521	0.07263
463.83091	0.07452
462.8666	0.07384
461.9023	0.07164
460.93799	0.06921
459.97369	0.06766
459.00938	0.0684
458.04507	0.06942
457.08077	0.06766
456.11646	0.06258
455.15216	0.05674
454.18785	0.05291
453.22355	0.0505
452.25924	0.0482
451.29494	0.04576
450.33063	0.04242
449.36633	0.03852
448.40202	0.03603
447.43771	0.03571
446.47341	0.0362
445.5091	0.03553
444.5448	0.03351
443.58049	0.03165
442.61619	0.03153
441.65188	0.03311
440.68758	0.03465
439.72327	0.03516
438.75897	0.03534
437.79466	0.03605
436.83036	0.03779
435.86605	0.04085
434.90174	0.04348
433.93744	0.04466
432.97313	0.046
432.00883	0.04855
431.04452	0.05241
430.08022	0.0563
429.11591	0.05926
428.15161	0.06254
427.1873	0.06635
426.223	0.06966
425.25869	0.07198
424.29438	0.07308
423.33008	0.07406
422.36577	0.07521
421.40147	0.07559
420.43716	0.0759
419.47286	0.07579
418.50855	0.07436
417.54425	0.07241
416.57994	0.07134
415.61564	0.0716
414.65133	0.07147
413.68703	0.07003
412.72272	0.06807
411.75841	0.0663
410.79411	0.06592
409.8298	0.06701
408.8655	0.06597
407.90119	0.06172
406.93689	0.05879
405.97258	0.05788
405.00828	0.05803
404.04397	0.06194
403.07967	0.06595
402.11536	0.06421
401.15105	0.06227
400.18675	0.06396