401	0.0257
402	0.0257
403	0.0257
404	0.0257
405	0.0257
406	0.0257
407	0.0257
408	0.0257
409	0.0257
410	0.0257
411	0.0257
412	0.0257
413	0.0257
414	0.0257
415	0.0257
416	0.0257
417	0.0257
418	0.0257
419	0.0257
420	0.0257
421	0.0257
422	0.0257
423	0.0257
424	0.0257
425	0.0257
426	0.01002
427	0.01864
428	0.01951
429	0.01219
430	0.00876
431	0.01553
432	0.02454
433	0.02422
434	0.01609
435	0.01293
436	0.01808
437	0.02303
438	0.0215
439	0.0177
440	0.01819
441	0.02061
442	0.01779
443	0.01055
444	0.00854
445	0.01472
446	0.019
447	0.01458
448	0.00962
449	0.01349
450	0.02175
451	0.02314
452	0.01618
453	0.01141
454	0.01585
455	0.02317
456	0.02314
457	0.01363
458	0.00856
459	0.01807
460	0.02615
461	0.02417
462	0.02162
463	0.02643
464	0.03322
465	0.03421
466	0.0283
467	0.0232
468	0.02752
469	0.03698
470	0.03929
471	0.03356
472	0.03039
473	0.03639
474	0.04397
475	0.04457
476	0.04261
477	0.04608
478	0.05256
479	0.05408
480	0.05061
481	0.04966
482	0.05437
483	0.05772
484	0.0536
485	0.04758
486	0.04954
487	0.05959
488	0.06517
489	0.06001
490	0.05373
491	0.05472
492	0.06041
493	0.06347
494	0.06169
495	0.06048
496	0.06441
497	0.06996
498	0.07132
499	0.06918
500	0.06864
501	0.0707
502	0.07158
503	0.06977
504	0.06843
505	0.07065
506	0.07451
507	0.07466
508	0.07137
509	0.07014
510	0.07328
511	0.07671
512	0.07525
513	0.07196
514	0.07417
515	0.08095
516	0.08357
517	0.07925
518	0.0757
519	0.07958
520	0.08783
521	0.09262
522	0.09169
523	0.09108
524	0.09479
525	0.09846
526	0.0971
527	0.09383
528	0.09468
529	0.09907
530	0.10091
531	0.097
532	0.09202
533	0.09192
534	0.0954
535	0.0958
536	0.09088
537	0.08675
538	0.08845
539	0.09212
540	0.09124
541	0.08619
542	0.08378
543	0.08647
544	0.08863
545	0.08567
546	0.08151
547	0.08213
548	0.08564
549	0.08619
550	0.08306
551	0.08089
552	0.08275
553	0.08587
554	0.08571
555	0.08306
556	0.08253
557	0.08495
558	0.08652
559	0.08521
560	0.08394
561	0.08567
562	0.08875
563	0.09026
564	0.09074
565	0.09291
566	0.09676
567	0.09984
568	0.10107
569	0.10295
570	0.10808
571	0.1146
572	0.11899
573	0.12116
574	0.12391
575	0.12877
576	0.13413
577	0.13713
578	0.13777
579	0.13958
580	0.14407
581	0.14771
582	0.14739
583	0.14571
584	0.14711
585	0.15084
586	0.15177
587	0.14837
588	0.1456
589	0.14747
590	0.15003
591	0.14713
592	0.14074
593	0.13929
594	0.14337
595	0.14554
596	0.14143
597	0.13622
598	0.13665
599	0.14126
600	0.14282
601	0.13892
602	0.13574
603	0.13868
604	0.14443
605	0.14614
606	0.14329
607	0.14179
608	0.14525
609	0.14955
610	0.14825
611	0.14201
612	0.13849
613	0.141
614	0.14287
615	0.13686
616	0.12507
617	0.11712
618	0.11909
619	0.12325
620	0.11931
621	0.11122
622	0.10911
623	0.11175
624	0.1091
625	0.09979
626	0.09279
627	0.09329
628	0.09561
629	0.09245
630	0.08465
631	0.07981
632	0.08152
633	0.08437
634	0.08221
635	0.07703
636	0.07564
637	0.07923
638	0.08142
639	0.0778
640	0.07251
641	0.07226
642	0.0764
643	0.07799
644	0.07435
645	0.07059
646	0.07145
647	0.07384
648	0.07137
649	0.06551
650	0.06414
651	0.06845
652	0.07243
653	0.07192
654	0.0684
655	0.0671
656	0.06987
657	0.07255
658	0.07163
659	0.06966
660	0.07095
661	0.07441
662	0.076
663	0.07573
664	0.07694
665	0.07946
666	0.07713
667	0.05566
668	0.00619
669	0
670	0.03248
671	0.05672
672	0.06437
673	0.06376
674	0.06275
675	0.06316
676	0.06227
677	0.05956
678	0.05828
679	0.05953
680	0.06069
681	0.06002
682	0.05946
683	0.06117
684	0.06417
685	0.06605
686	0.06645
687	0.06755
688	0.07077
689	0.07514
690	0.07895
691	0.08229
692	0.08755
693	0.09585
694	0.10477
695	0.11195
696	0.11885
697	0.12814
698	0.13926
699	0.14824
700	0.15292
701	0.15614
702	0.16113
703	0.16613
704	0.16639
705	0.16168
706	0.15751
707	0.15636
708	0.15467
709	0.14886
710	0.14013
711	0.13308
712	0.12936
713	0.12545
714	0.11837
715	0.11056
716	0.10597
717	0.10405
718	0.09992
719	0.09049
720	0.08113
721	0.08048
722	0.08557
723	0.08658
724	0.08222
725	0.07853
726	0.07894
727	0.08031
728	0.07781
729	0.07237
730	0.06962
731	0.07177
732	0.07365
733	0.07087
734	0.0662
735	0.06511
736	0.06757
737	0.06837
738	0.06517
739	0.06184
740	0.06264
741	0.0663
742	0.06823
743	0.06701
744	0.06661
745	0.07066
746	0.07671
747	0.08018
748	0.08156
749	0.08568
750	0.09439
751	0.10373
752	0.10948
753	0.11301
754	0.11879
755	0.12725
756	0.13358
757	0.13446
758	0.13308
759	0.134
760	0.13627
761	0.13508
762	0.12899
763	0.12225
764	0.11842
765	0.1155
766	0.10943
767	0.10061
768	0.09359
769	0.09045
770	0.08783
771	0.08208
772	0.07463
773	0.06981
774	0.06828
775	0.06608
776	0.06055
777	0.05434
778	0.05139
779	0.05109
780	0.04909
781	0.0439
782	0.03928
783	0.03901
784	0.04125
785	0.04103
786	0.03729
787	0.03462
788	0.03588
789	0.03806
790	0.03671
791	0.03252
792	0.03009
793	0.03082
794	0.03134
795	0.02885
796	0.02521
797	0.02395
798	0.02519
799	0.02534
800	0.02252
801	0.01931
802	0.01887
803	0.02028
804	0.02016
805	0.01779
806	0.01608
807	0.01709
808	0.01901
809	0.01903
810	0.01761
811	0.01755
812	0.01948
813	0.02092
814	0.01982
815	0.01792
816	0.01807
817	0.0204
818	0.0222
819	0.02237
820	0.02271
821	0.02475
822	0.0274
823	0.02897
824	0.02975
825	0.03133
826	0.03428
827	0.03745
828	0.03993
829	0.04283
830	0.04776
831	0.0542
832	0.06019
833	0.0654
834	0.07158
835	0.07955
836	0.08726
837	0.09268
838	0.09664
839	0.10135
840	0.10734
841	0.11233
842	0.115
843	0.11695
844	0.12032
845	0.12421
846	0.12622
847	0.12638
848	0.12738
849	0.13052
850	0.1339
851	0.13513
852	0.135
853	0.13618
854	0.13905
855	0.14064
856	0.13849
857	0.13431
858	0.13162
859	0.13072
860	0.12822
861	0.12207
862	0.11484
863	0.11031
864	0.10794
865	0.10339
866	0.09468
867	0.08602
868	0.0813
869	0.07819
870	0.07208
871	0.0629
872	0.05506
873	0.0513
874	0.04888
875	0.04389
876	0.0372
877	0.03334
878	0.03382
879	0.03498
880	0.03333
881	0.03063
882	0.03119
883	0.03543
884	0.03908
885	0.03933
886	0.03878
887	0.04146
888	0.04689
889	0.05045
890	0.05006
891	0.04953
892	0.05325
893	0.05938
894	0.06234
895	0.06147
896	0.06152
897	0.06528
898	0.07005
899	0.07208
900	0.07172
901	0.07281
902	0.07753
903	0.08335
904	0.08681
905	0.08877
906	0.09293
907	0.10005
908	0.10705
909	0.11171
910	0.11537
911	0.12072
912	0.12787
913	0.13439
914	0.13897
915	0.14347
916	0.15011
917	0.15844
918	0.16603
919	0.17186
920	0.17787
921	0.18585
922	0.19447
923	0.20169
924	0.20738
925	0.21292
926	0.21921
927	0.22552
928	0.23051
929	0.23429
930	0.23811
931	0.24245
932	0.24663
933	0.25015
934	0.25357
935	0.25771
936	0.26248
937	0.26689
938	0.27044
939	0.27356
940	0.27664
941	0.27908
942	0.28025
943	0.2803
944	0.27928
945	0.27699
946	0.27328
947	0.26832
948	0.26275
949	0.2573
950	0.25163
951	0.24557
952	0.23989
953	0.23584
954	0.23365
955	0.23249
956	0.23217
957	0.23372
958	0.23802
959	0.24431
960	0.25122
961	0.25889
962	0.26872
963	0.28084
964	0.29375
965	0.30634
966	0.31924
967	0.33374
968	0.34954
969	0.36458
970	0.37794
971	0.39075
972	0.40444
973	0.41863
974	0.43114
975	0.44099
976	0.45019
977	0.46063
978	0.47129
979	0.48003
980	0.48664
981	0.49325
982	0.50129
983	0.50963
984	0.51662
985	0.52265
986	0.52979
987	0.53906
988	0.5492
989	0.55877
990	0.56864
991	0.581
992	0.59604
993	0.61168
994	0.62646
995	0.64122
996	0.65753
997	0.6751
998	0.6913
999	0.70438
1000	0.71605
1001	0.72891
1002	0.74191
1003	0.75199
1004	0.75886
1005	0.76509
1006	0.77257
1007	0.78012
1008	0.78582
1009	0.78992
1010	0.79484
1011	0.80258
1012	0.81227
1013	0.8218
1014	0.83108
1015	0.84236
1016	0.85679
1017	0.87243
1018	0.88697
1019	0.90091
1020	0.9161
1021	0.93266
1022	0.94832
1023	0.96105
1024	0.97143
1025	0.98138
1026	0.99096
1027	0.99777
1028	1
1029	0.99893
1030	0.9972
1031	0.99475
1032	0.98965
1033	0.98119
1034	0.97116
1035	0.96186
1036	0.9531
1037	0.94326
1038	0.9323
1039	0.92204
1040	0.91358
1041	0.90576
1042	0.89669
1043	0.88629
1044	0.87633
1045	0.86758
1046	0.85848
1047	0.84752
1048	0.83559
1049	0.82468
1050	0.81524
1051	0.80592
1052	0.7953
1053	0.78375
1054	0.77301
1055	0.76378
1056	0.7542
1057	0.74256
1058	0.7298
1059	0.71787
1060	0.70691
1061	0.69547
1062	0.6829
1063	0.67002
1064	0.65807
1065	0.64709
1066	0.63603
1067	0.62453
1068	0.61391
1069	0.60594
1070	0.60112
1071	0.59892
1072	0.59972
1073	0.60512
1074	0.61613
1075	0.63204
1076	0.65118
1077	0.67197
1078	0.69322
1079	0.71377
1080	0.73195
1081	0.74595
1082	0.75504
1083	0.75991
1084	0.76107
1085	0.75838
1086	0.75148
1087	0.74135
1088	0.72961
1089	0.71698
1090	0.70351
1091	0.68965
1092	0.67588
1093	0.66266
1094	0.65036
1095	0.63931
1096	0.62981
1097	0.62235
1098	0.61715
1099	0.61393
1100	0.61249
1101	0.61293
1102	0.61485
1103	0.6173
1104	0.61988
1105	0.62294
1106	0.62659
1107	0.63004
1108	0.63225
1109	0.633
1110	0.63296
1111	0.63277
1112	0.63199
1113	0.62987
1114	0.62646
1115	0.62305
1116	0.61994
1117	0.61628
1118	0.61195
1119	0.60785
1120	0.60482
1121	0.6027
1122	0.60046
1123	0.59755
1124	0.59484
1125	0.59335
1126	0.59246
1127	0.59039
1128	0.5866
1129	0.58263
1130	0.58016
1131	0.57857
1132	0.57549
1133	0.57029
1134	0.56487
1135	0.56092
1136	0.55782
1137	0.55413
1138	0.55
1139	0.54772
1140	0.54851
1141	0.55085
1142	0.55274
1143	0.55463
1144	0.55863
1145	0.56542
1146	0.57319
1147	0.58023
1148	0.58699
1149	0.59519
1150	0.60494
1151	0.61431
1152	0.62182
1153	0.62817
1154	0.63481
1155	0.64152
1156	0.64624
1157	0.64777
1158	0.64717
1159	0.64635
1160	0.64512
1161	0.64119
1162	0.63379
1163	0.6246
1164	0.61552
1165	0.60582
1166	0.59363
1167	0.57882
1168	0.56356
1169	0.54939
1170	0.53531
1171	0.51972
1172	0.50284
1173	0.48642
1174	0.47148
1175	0.45722
1176	0.44237
1177	0.42714
1178	0.41324
1179	0.40149
1180	0.39051
1181	0.37889
1182	0.36746
1183	0.35792
1184	0.35034
1185	0.34316
1186	0.33523
1187	0.32718
1188	0.32051
1189	0.31542
1190	0.31039
1191	0.30448
1192	0.29915
1193	0.29583
1194	0.29387
1195	0.29192
1196	0.28988
1197	0.28891
1198	0.28953
1199	0.29078
1200	0.29148
1201	0.29155
1202	0.2918
1203	0.29235
1204	0.29223
1205	0.29076
1206	0.28839
1207	0.28595
1208	0.28342
1209	0.27991
1210	0.27512
1211	0.2699
1212	0.26513
1213	0.2606
1214	0.25552
1215	0.24982
1216	0.24452
1217	0.24015
1218	0.23602
1219	0.23176
1220	0.2277
1221	0.22464
1222	0.22277
1223	0.22118
1224	0.21956
1225	0.21854
1226	0.2187
1227	0.21973
1228	0.22087
1229	0.22197
1230	0.22354
1231	0.22586
1232	0.22842
1233	0.23054
1234	0.23241
1235	0.2348
1236	0.23798
1237	0.24124
1238	0.2438
1239	0.24615
1240	0.2491
1241	0.25222
1242	0.25459
1243	0.25604
1244	0.25749
1245	0.25949
1246	0.26122
1247	0.26167
1248	0.26129
1249	0.2611
1250	0.26148
1251	0.26162
1252	0.2606
1253	0.25897
1254	0.25783
1255	0.2573
1256	0.25637
1257	0.25427
1258	0.25167
1259	0.24961
1260	0.24811
1261	0.24644
1262	0.24407
1263	0.24163
1264	0.24002
1265	0.23882
1266	0.23687
1267	0.2343
1268	0.23237
1269	0.23171
1270	0.23144
1271	0.23048
1272	0.22947
1273	0.23017
1274	0.23248
1275	0.23504
1276	0.23689
1277	0.23862
1278	0.24142
1279	0.24505
1280	0.24815
1281	0.25007
1282	0.25163
1283	0.25374
1284	0.25612
1285	0.25768
1286	0.25801
1287	0.25819
1288	0.25958
1289	0.26184
1290	0.26348
1291	0.26427
1292	0.26545
1293	0.2677
1294	0.27016
1295	0.27158
1296	0.2721
1297	0.2731
1298	0.27508
1299	0.27676
1300	0.27679
1301	0.2758
1302	0.27523
1303	0.27542
1304	0.27527
1305	0.27384
1306	0.27201
1307	0.27107
1308	0.27109
1309	0.27111
1310	0.27039
1311	0.2695
1312	0.26941
1313	0.27027
1314	0.27137
1315	0.27208
1316	0.27286
1317	0.2745
1318	0.27659
1319	0.27839
1320	0.28057
1321	0.28403
1322	0.28832
1323	0.29223
1324	0.29496
1325	0.29709
1326	0.29989
1327	0.30355
1328	0.3067
1329	0.30848
1330	0.30963
1331	0.31122
1332	0.31315
1333	0.31428
1334	0.31402
1335	0.31266
1336	0.31088
1337	0.30891
1338	0.30584
1339	0.30137
1340	0.29837
1341	0.29879
1342	0.29989
1343	0.29885
1344	0.29612
1345	0.2935
1346	0.29176
1347	0.29029
1348	0.28821
1349	0.28581
1350	0.28452
1351	0.28445
1352	0.28441
1353	0.28365
1354	0.28257
1355	0.28264
1356	0.2845
1357	0.28654
1358	0.2881
1359	0.28993
1360	0.29216
1361	0.29415
1362	0.29586
1363	0.29925
1364	0.30582
1365	0.31256
1366	0.31705
1367	0.31947
1368	0.3209
1369	0.32319
1370	0.32646
1371	0.32863
1372	0.32807
1373	0.32454
1374	0.31945
1375	0.31593
1376	0.31385
1377	0.31025
1378	0.30452
1379	0.29821
1380	0.29163
1381	0.28284
1382	0.27054
1383	0.25647
1384	0.24603
1385	0.24301
1386	0.24541
1387	0.25018
1388	0.25634
1389	0.26134
1390	0.26341
1391	0.26368
1392	0.26345
1393	0.2624
1394	0.25974
1395	0.25735
1396	0.25748
1397	0.25828
1398	0.25747
1399	0.25625
1400	0.25681
1401	0.25824
1402	0.25915
1403	0.25927
1404	0.25828
1405	0.25786
1406	0.26061
1407	0.26459
1408	0.26743
1409	0.26896
1410	0.26963
1411	0.27035
1412	0.27204
1413	0.27429
1414	0.27536
1415	0.27448
1416	0.27254
1417	0.27063
1418	0.2687
1419	0.26683
1420	0.2677
1421	0.27067
1422	0.27172
1423	0.2694
1424	0.26628
1425	0.266
1426	0.26708
1427	0.26689
1428	0.26485
1429	0.26096
1430	0.25718
1431	0.2561
1432	0.2557
1433	0.25392
1434	0.25122
1435	0.24752
1436	0.24221
1437	0.23918
1438	0.24088
1439	0.24147
1440	0.24047
1441	0.23978
1442	0.23993
1443	0.24012
1444	0.24018
1445	0.24095
1446	0.24257
1447	0.24423
1448	0.24663
1449	0.25087
1450	0.25551
1451	0.25953
1452	0.2637
1453	0.26793
1454	0.27063
1455	0.27158
1456	0.27274
1457	0.27693
1458	0.28406
1459	0.29245
1460	0.30011
1461	0.30438
1462	0.30468
1463	0.30173
1464	0.29599
1465	0.28938
1466	0.28643
1467	0.28461
1468	0.28037
1469	0.27439
1470	0.26778
1471	0.25925
1472	0.24756
1473	0.23752
1474	0.23386
1475	0.23202
1476	0.22919
1477	0.22826
1478	0.22991
1479	0.23184
1480	0.23317
1481	0.23422
1482	0.23504
1483	0.23395
1484	0.2296
1485	0.22252
1486	0.21367
1487	0.20357
1488	0.19437
1489	0.18665
1490	0.18079
1491	0.18204
1492	0.18606
1493	0.1879
1494	0.18772
1495	0.18572
1496	0.18298
1497	0.18203
1498	0.18249
1499	0.18319
1500	0.18454
1501	0.18535
1502	0.18562
1503	0.18583
1504	0.18452
1505	0.17912
1506	0.16676
1507	0.15792
1508	0.16171
1509	0.16932
1510	0.17563
1511	0.17981
1512	0.18259
1513	0.18538
1514	0.18663
1515	0.18449
1516	0.17973
1517	0.17785
1518	0.18351
1519	0.18722
1520	0.18486
1521	0.17975
1522	0.18035
1523	0.18557
1524	0.18783
1525	0.18743
1526	0.18734
1527	0.18822
1528	0.18939
1529	0.19146
1530	0.19294
1531	0.19199
1532	0.18879
1533	0.1847
1534	0.18349
1535	0.18593
1536	0.18817
1537	0.18785
1538	0.1835
1539	0.17315
1540	0.16591
1541	0.16789
1542	0.16956
1543	0.17034
1544	0.17039
1545	0.17114
1546	0.17497
1547	0.17824
1548	0.17756
1549	0.17301
1550	0.16858
1551	0.16897
1552	0.17039
1553	0.16819
1554	0.16316
1555	0.15975
1556	0.15883
1557	0.15515
1558	0.14298
1559	0.13134
1560	0.13629
1561	0.14533
1562	0.14878
1563	0.14797
1564	0.14436
1565	0.14094
1566	0.14004
1567	0.13893
1568	0.13452
1569	0.12678
1570	0.1227
1571	0.12471
1572	0.12479
1573	0.12209
1574	0.11818
1575	0.11307
1576	0.10603
1577	0.10164
1578	0.10215
1579	0.10237
1580	0.10111
1581	0.09875
1582	0.09576
1583	0.09272
1584	0.09023
1585	0.08829
1586	0.08635
1587	0.08397
1588	0.08117
1589	0.07827
1590	0.07566
1591	0.07335
1592	0.0709
1593	0.068
1594	0.06503
1595	0.06285
1596	0.06166
1597	0.06062
1598	0.0594
1599	0.0581
1600	0.05654
1601	0.05454
1602	0.05227
1603	0.05047
1604	0.04965
1605	0.04891
1606	0.04682
1607	0.04386
1608	0.04131
1609	0.03935
1610	0.03823
1611	0.03782
1612	0.03692
1613	0.03536
1614	0.03347
1615	0.03057
1616	0.02578
1617	0.02278
1618	0.02461
1619	0.02693
1620	0.02765
1621	0.02687
1622	0.02447
1623	0.02128
1624	0.02235
1625	0.026
1626	0.02733
1627	0.02635
1628	0.02569
1629	0.02746
1630	0.02938
1631	0.03028
1632	0.03088
1633	0.03097
1634	0.02926
1635	0.02582
1636	0.02526
1637	0.02963
1638	0.03538
1639	0.04034
1640	0.04382
1641	0.04653
1642	0.04922
1643	0.05178
1644	0.05324
1645	0.05239
1646	0.04946
1647	0.04889
1648	0.05443
1649	0.06219
1650	0.06703
1651	0.06805
1652	0.06469
1653	0.05626
1654	0.06054
1655	0.07187
1656	0.07843
1657	0.08222
1658	0.08477
1659	0.08628
1660	0.08662
1661	0.08568
1662	0.08418
1663	0.08458
1664	0.08785
1665	0.09154
1666	0.09421
1667	0.09502
1668	0.09357
1669	0.09342
1670	0.0977
1671	0.10316
1672	0.10881
1673	0.11387
1674	0.11625
1675	0.11809
1676	0.12473
1677	0.13184
1678	0.1363
1679	0.13828
1680	0.14033
1681	0.14521
1682	0.1488
1683	0.14718
1684	0.14579
1685	0.15771
1686	0.17047
1687	0.17565
1688	0.17871
1689	0.18266
1690	0.18796
1691	0.19334
1692	0.19744
1693	0.19981
1694	0.20016
1695	0.19757
1696	0.19388
1697	0.1939
1698	0.19527
1699	0.19381
1700	0.18773
1701	0.18678
1702	0.18944
1703	0.18902
1704	0.18526
1705	0.17978
1706	0.17404
1707	0.17013
1708	0.16864
1709	0.16598
1710	0.16097
1711	0.15602
1712	0.1517
1713	0.1463
1714	0.13959
1715	0.13347
1716	0.1292
1717	0.12445
1718	0.12093
1719	0.12325
1720	0.12707
1721	0.12798
1722	0.12685
1723	0.12571
1724	0.12637
1725	0.12813
1726	0.12932
1727	0.13024
1728	0.1311
1729	0.13078
1730	0.1309
1731	0.13408
1732	0.13655
1733	0.13551
1734	0.13616
1735	0.14645
1736	0.15491
1737	0.1595
1738	0.16241
1739	0.16459
1740	0.16851
1741	0.17415
1742	0.17758
1743	0.17987
1744	0.18482
1745	0.19163
1746	0.19723
1747	0.20201
1748	0.20853
1749	0.21788
1750	0.2277
1751	0.23859
1752	0.25187
1753	0.26371
1754	0.27294
1755	0.27967
1756	0.28398
1757	0.28858
1758	0.2944
1759	0.29923
1760	0.3015
1761	0.30091
1762	0.30051
1763	0.30299
1764	0.3051
1765	0.30551
1766	0.3045
1767	0.30189
1768	0.29857
1769	0.29666
1770	0.29489
1771	0.2904
1772	0.28524
1773	0.28411
1774	0.28526
1775	0.28483
1776	0.2837
1777	0.28291
1778	0.28135
1779	0.27836
1780	0.27483
1781	0.27269
1782	0.27247
1783	0.27186
1784	0.26986
1785	0.26802
1786	0.26765
1787	0.26716
1788	0.26585
1789	0.26403
1790	0.26123
1791	0.25723
1792	0.25333
1793	0.25171
1794	0.25157
1795	0.24954
1796	0.24554
1797	0.24171
1798	0.23761
1799	0.23147
1800	0.22411
1801	0.21693
1802	0.2097
1803	0.20304
1804	0.19715
1805	0.19067
1806	0.18307
1807	0.17471
1808	0.16683
1809	0.15995
1810	0.15255
1811	0.1448
1812	0.13924
1813	0.13548
1814	0.13204
1815	0.1281
1816	0.12331
1817	0.11839
1818	0.11451
1819	0.11178
1820	0.10902
1821	0.1056
1822	0.10197
1823	0.09867
1824	0.09519
1825	0.09148
1826	0.08935
1827	0.08838
1828	0.08579
1829	0.08116
1830	0.07823
1831	0.07881
1832	0.07958
1833	0.07903
1834	0.07796
1835	0.07645
1836	0.07411
1837	0.07183
1838	0.07109
1839	0.07108
1840	0.07012
1841	0.06811
1842	0.06554
1843	0.06237
1844	0.05909
1845	0.05834
1846	0.0593
1847	0.05909
1848	0.05851
1849	0.05874
1850	0.05895
1851	0.05844
1852	0.05766
1853	0.05696
1854	0.05621
1855	0.05529
1856	0.05443
1857	0.05366
1858	0.05283
1859	0.05198
1860	0.05115
1861	0.05051
1862	0.05023
1863	0.04997
1864	0.04914
1865	0.04747
1866	0.04498
1867	0.04215
1868	0.03958
1869	0.03865
1870	0.04019
1871	0.0424
1872	0.04381
1873	0.04408
1874	0.04348
1875	0.04277
1876	0.04227
1877	0.04194
1878	0.04147
1879	0.04079
1880	0.04022
1881	0.03988
1882	0.03952
1883	0.03878
1884	0.03779
1885	0.03718
1886	0.03714
1887	0.03688
1888	0.03546
1889	0.03318
1890	0.03256
1891	0.03383
1892	0.03461
1893	0.03413
1894	0.03263
1895	0.03121
1896	0.03133
1897	0.03213
1898	0.03216
1899	0.03166
1900	0.03121
1901	0.03083
1902	0.03043
1903	0.02988
1904	0.02925
1905	0.02874
1906	0.02812
1907	0.02695
1908	0.02555
1909	0.02447
1910	0.02424
1911	0.02507
1912	0.02581
1913	0.02576
1914	0.02542
1915	0.02512
1916	0.02446
1917	0.0229
1918	0.02163
1919	0.02228
1920	0.02337
1921	0.02287
1922	0.02074
1923	0.01948
1924	0.02078
1925	0.02243
1926	0.02297
1927	0.02299
1928	0.02292
1929	0.02273
1930	0.02248
1931	0.02219
1932	0.02189
1933	0.02166
1934	0.02154
1935	0.02145
1936	0.02143
1937	0.02146
1938	0.02141
1939	0.02123
1940	0.02066
1941	0.01915
1942	0.0171
1943	0.01687
1944	0.01824
1945	0.01883
1946	0.01891
1947	0.01954
1948	0.02012
1949	0.02012
1950	0.02
1951	0.02004
1952	0.0202
1953	0.02016
1954	0.0197
1955	0.01922
1956	0.01923
1957	0.01957
1958	0.01968
1959	0.0195
1960	0.01919
1961	0.01911
1962	0.01931
1963	0.01938
1964	0.01898
1965	0.01816
1966	0.01707
1967	0.01642
1968	0.01694
1969	0.01785
1970	0.01823
1971	0.01827
1972	0.01843
1973	0.01838
1974	0.01798
1975	0.01765
1976	0.01763
1977	0.0178
1978	0.01769
1979	0.01726
1980	0.01695
1981	0.01707
1982	0.01735
1983	0.0173
1984	0.01694
1985	0.01664
1986	0.01653
1987	0.01625
1988	0.01569
1989	0.0154
1990	0.01531
1991	0.0146
1992	0.01384
1993	0.01416
1994	0.01496
1995	0.01544
1996	0.01568
1997	0.01576
1998	0.01545
1999	0.01499
2000	0.01485
2001	0.01515
2002	0.0154
2003	0.01528
2004	0.01486
2005	0.01457
2006	0.01461
2007	0.01475
2008	0.01461
2009	0.01433
2010	0.01426
2011	0.01447
2012	0.01467
2013	0.01457
2014	0.01429
2015	0.01388
2016	0.01329
2017	0.01294
2018	0.01317
2019	0.01363
2020	0.01411
2021	0.01457
2022	0.01489
2023	0.01493
2024	0.01475
2025	0.01474
2026	0.01495
2027	0.01525
2028	0.01537
2029	0.01529
2030	0.01521
2031	0.01544
2032	0.01579
2033	0.01594
2034	0.0158
2035	0.01573
2036	0.01591
2037	0.01618
2038	0.01629
2039	0.01603
2040	0.0156
2041	0.0154
2042	0.01573
2043	0.01611
2044	0.01613
2045	0.01613
2046	0.01646
2047	0.01692
2048	0.01712
2049	0.01695
2050	0.01673
2051	0.01678
2052	0.01711
2053	0.01733
2054	0.0172
2055	0.01697
2056	0.01706
2057	0.01742
2058	0.01766
2059	0.01751
2060	0.01723
2061	0.01728
2062	0.01755
2063	0.01747
2064	0.0168
2065	0.01627
2066	0.01658
2067	0.01729
2068	0.01761
2069	0.01745
2070	0.0173
2071	0.01741
2072	0.01761
2073	0.01761
2074	0.01741
2075	0.01727
2076	0.01731
2077	0.01741
2078	0.0174
2079	0.01726
2080	0.01714
2081	0.01727
2082	0.01756
2083	0.01767
2084	0.01744
2085	0.01725
2086	0.01732
2087	0.01753
2088	0.01753
2089	0.01718
2090	0.01682
2091	0.01694
2092	0.01739
2093	0.01762
2094	0.0175
2095	0.01732
2096	0.01735
2097	0.01749
2098	0.01748
2099	0.01729
2100	0.01714
2101	0.01722
2102	0.01737
2103	0.01736
2104	0.01721
2105	0.01713
2106	0.01724
2107	0.01741
2108	0.01746
2109	0.01732
2110	0.01718
2111	0.01713
2112	0.01724
2113	0.01728
2114	0.01711
2115	0.01692
2116	0.01702
2117	0.0173
2118	0.01745
2119	0.01736
2120	0.0172
2121	0.01721
2122	0.0173
2123	0.01735
2124	0.01739
2125	0.01743
2126	0.01744
2127	0.01745
2128	0.01748
2129	0.01743
2130	0.0174
2131	0.01744
2132	0.01754
2133	0.01757
2134	0.01754
2135	0.01749
2136	0.01747
2137	0.01746
2138	0.01738
2139	0.01722
2140	0.01726
2141	0.01741
2142	0.01756
2143	0.01757
2144	0.01749
2145	0.01745
2146	0.01744
2147	0.01742
2148	0.01736
2149	0.01733
2150	0.01735
2151	0.01736
2152	0.01729
2153	0.0172
2154	0.01716
2155	0.01722
2156	0.0173
2157	0.01726
2158	0.01706
2159	0.01685
2160	0.01674
2161	0.01667
2162	0.01663
2163	0.01662
2164	0.0166
2165	0.01655
2166	0.01647
2167	0.0164
2168	0.01624
2169	0.0161
2170	0.01608
2171	0.01611
2172	0.01614
2173	0.01617
2174	0.01621
2175	0.01624
2176	0.01627
2177	0.0163
2178	0.01633
2179	0.01636
2180	0.0164
2181	0.01643
2182	0.01646
2183	0.01649
2184	0.01652
2185	0.01655
2186	0.01659
2187	0.01662
2188	0.01665
2189	0.01668
2190	0.01671
2191	0.01675
2192	0.01678
2193	0.01681
2194	0.01684
2195	0.01687
2196	0.0169
2197	0.01694
2198	0.01697
2199	0.017
2200	0.01703
2201	0.01706
2202	0.01709
2203	0.01713
2204	0.01716
2205	0.01719
2206	0.01722
2207	0.01725
2208	0.01729
2209	0.01732
2210	0.01735
2211	0.01738
2212	0.01741
2213	0.01744
2214	0.01748
2215	0.01751
2216	0.01754
2217	0.01757
2218	0.0176
2219	0.01763
2220	0.01767
2221	0.0177
2222	0.01773
2223	0.01776
2224	0.01779
2225	0.01783
2226	0.01786
2227	0.01789
2228	0.01792
2229	0.01795
2230	0.01798
2231	0.01802
2232	0.01805
2233	0.01808
2234	0.01811
2235	0.01814
2236	0.01817
2237	0.01821
2238	0.01824
2239	0.01827
2240	0.0183
2241	0.01833
2242	0.01837
2243	0.0184
2244	0.01843
2245	0.01846
2246	0.01849
2247	0.01852
2248	0.01856
2249	0.01859
2250	0.01862
2251	0.01865
2252	0.01868
2253	0.01871
2254	0.01875
2255	0.01878
2256	0.01881
2257	0.01884
2258	0.01887
2259	0.01891
2260	0.01894
2261	0.01897
2262	0.019
2263	0.01903
2264	0.01906
2265	0.0191
2266	0.01913
2267	0.01916
2268	0.01919
2269	0.01922
2270	0.01925
2271	0.01929
2272	0.01932
2273	0.01935
2274	0.01938
2275	0.01941
2276	0.01945
2277	0.01948
2278	0.01951
2279	0.01954
2280	0.01957
2281	0.0196
2282	0.01964
2283	0.01967
2284	0.0197
2285	0.01973
2286	0.01976
2287	0.01979
2288	0.01983
2289	0.01986
2290	0.01989
2291	0.01992
2292	0.01995
2293	0.01999
2294	0.02002
2295	0.02005
2296	0.02008
2297	0.02011
2298	0.02014
2299	0.02018
2300	0.02021
2301	0.02024
2302	0.02027
2303	0.0203
2304	0.02033
2305	0.02037
2306	0.0204
2307	0.02043
2308	0.02046
2309	0.02049
2310	0.02053
2311	0.02056
2312	0.02059
2313	0.02062
2314	0.02065
2315	0.02068
2316	0.02072
2317	0.02075
2318	0.02078
2319	0.02081
2320	0.02084
2321	0.02087
2322	0.02091
2323	0.02094
2324	0.02097
2325	0.021
2326	0.02103
2327	0.02106
2328	0.0211
2329	0.02113
2330	0.02116
2331	0.02119
2332	0.02122
2333	0.02126
2334	0.02129
2335	0.02132
2336	0.02135
2337	0.02138
2338	0.02141
2339	0.02145
2340	0.02148
2341	0.02151
2342	0.02154
2343	0.02157
2344	0.0216
2345	0.02164
2346	0.02167
2347	0.0217
2348	0.02173
2349	0.02176
2350	0.0218
2351	0.02183
2352	0.02186
2353	0.02189
2354	0.02192
2355	0.02195
2356	0.02199
2357	0.02202
2358	0.02205
2359	0.02208
2360	0.02211
2361	0.02214
2362	0.02218
2363	0.02221
2364	0.02224
2365	0.02227
2366	0.0223
2367	0.02234
2368	0.02237
2369	0.0224
2370	0.02243
2371	0.02246
2372	0.02249
2373	0.02253
2374	0.02256
2375	0.02259
2376	0.02262
2377	0.02265
2378	0.02268
2379	0.02272
2380	0.02275
2381	0.02278
2382	0.02281
2383	0.02284
2384	0.02288
2385	0.02291
2386	0.02294
2387	0.02297
2388	0.023
2389	0.02303
2390	0.02307
2391	0.0231
2392	0.02313
2393	0.02316
2394	0.02319
2395	0.02322
2396	0.02326
2397	0.02329
2398	0.02332
2399	0.02335
2400	0.02338
2401	0.02342
2402	0.02345
2403	0.02348
2404	0.02351
2405	0.02354
2406	0.02357
2407	0.02361
2408	0.02364
2409	0.02367
2410	0.0237
2411	0.02373
2412	0.02376
2413	0.0238
2414	0.02383
2415	0.02386
2416	0.02389
2417	0.02392
2418	0.02396
2419	0.02399
2420	0.02402
2421	0.02405
2422	0.02408
2423	0.02411
2424	0.02415
2425	0.02418
2426	0.02421
2427	0.02424
2428	0.02427
2429	0.0243
2430	0.02434
2431	0.02437
2432	0.0244
2433	0.02443
2434	0.02446
2435	0.02449
2436	0.02452
2437	0.02455
2438	0.02459
2439	0.02462
2440	0.02465
2441	0.02468
2442	0.02471
2443	0.02474
2444	0.02477
2445	0.0248
2446	0.02484
2447	0.02487
2448	0.0249
2449	0.02493
2450	0.02496
2451	0.02499
2452	0.02502
2453	0.02505
2454	0.02509
2455	0.02512
2456	0.02515
2457	0.02518
2458	0.02521
2459	0.02524
2460	0.02527
2461	0.0253
2462	0.02534
2463	0.02537
2464	0.0254
2465	0.02543
2466	0.02546
2467	0.02549
2468	0.02552
2469	0.02555
2470	0.02559
2471	0.02562
2472	0.02565
2473	0.02568
2474	0.02571
2475	0.02574
2476	0.02577
2477	0.0258
2478	0.02536
2479	0.0254
2480	0.02567
2481	0.02598
2482	0.02614
2483	0.02621
2484	0.02648
2485	0.02687
2486	0.02719
2487	0.02726
2488	0.02717
2489	0.02723
2490	0.02756
2491	0.02796
2492	0.02804
2493	0.02794
2494	0.02804
2495	0.02837
2496	0.02868
2497	0.02884
2498	0.02902
2499	0.02929
2500	0.02955
2501	0.02971
2502	0.02982
2503	0.0299
2504	0.03006
2505	0.03028
2506	0.03045
2507	0.03054
2508	0.03058
2509	0.03061
2510	0.03071
2511	0.0308
2512	0.03088
2513	0.03103
2514	0.03129
2515	0.03142
2516	0.03139
2517	0.03147
2518	0.03175
2519	0.03205
2520	0.0322
2521	0.03225
2522	0.03239
2523	0.03258
2524	0.03269
2525	0.03267
2526	0.03272
2527	0.03294
2528	0.03321
2529	0.03336
2530	0.03339
2531	0.03347
2532	0.03376
2533	0.03408
2534	0.03424
2535	0.03432
2536	0.03454
2537	0.03492
2538	0.03531
2539	0.03546
2540	0.03535
2541	0.03537
2542	0.03573
2543	0.03619
2544	0.03636
2545	0.03637
2546	0.03655
2547	0.037
2548	0.03738
2549	0.03743
2550	0.03736
2551	0.03754
2552	0.03802
2553	0.03843
2554	0.03854
2555	0.03854
2556	0.03876
2557	0.03921
2558	0.03958
2559	0.03969
2560	0.03976
2561	0.04005
2562	0.04048
2563	0.04076
2564	0.04076
2565	0.04081
2566	0.04129
2567	0.042
2568	0.04237
2569	0.04234
2570	0.04241
2571	0.04289
2572	0.0435
2573	0.04376
2574	0.04377
2575	0.04391
2576	0.04442
2577	0.04505
2578	0.0454
2579	0.04551
2580	0.0457
2581	0.04616
2582	0.04666
2583	0.04693
2584	0.04705
2585	0.0473
2586	0.04782
2587	0.04833
2588	0.04855
2589	0.04861
2590	0.04888
2591	0.04943
2592	0.04994
2593	0.05016
2594	0.05042
2595	0.05092
2596	0.0515
2597	0.05186
2598	0.05207
2599	0.05231
2600	0.05275
2601	0.05323
2602	0.05361
2603	0.05394
2604	0.05438
2605	0.05484
2606	0.05524
2607	0.05556
2608	0.05587
2609	0.05628
2610	0.0568
2611	0.05726
2612	0.05757
2613	0.0579
2614	0.05838
2615	0.05885
2616	0.05921
2617	0.05958
2618	0.06015
2619	0.06084
2620	0.06136
2621	0.06154
2622	0.06173
2623	0.06219
2624	0.06287
2625	0.06339
2626	0.06363
2627	0.06395
2628	0.06445
2629	0.06497
2630	0.06524
2631	0.06535
2632	0.06563
2633	0.06621
2634	0.0668
2635	0.06714
2636	0.06729
2637	0.06761
2638	0.06811
2639	0.06852
2640	0.06864
2641	0.06867
2642	0.06897
2643	0.06951
2644	0.06991
2645	0.06995
2646	0.06997
2647	0.07034
2648	0.07083
2649	0.07104
2650	0.07096
2651	0.07099
2652	0.07134
2653	0.07183
2654	0.07201
2655	0.07194
2656	0.0719
2657	0.07208
2658	0.07233
2659	0.07249
2660	0.07253
2661	0.07262
2662	0.07284
2663	0.07301
2664	0.073
2665	0.0729
2666	0.07295
2667	0.07311
2668	0.0732
2669	0.07311
2670	0.07301
2671	0.07307
2672	0.0733
2673	0.0734
2674	0.07324
2675	0.07307
2676	0.07321
2677	0.07351
2678	0.07357
2679	0.07343
2680	0.07333
2681	0.07342
2682	0.07355
2683	0.07346
2684	0.07325
2685	0.07316
2686	0.07334
2687	0.07355
2688	0.07359
2689	0.07348
2690	0.07345
2691	0.07356
2692	0.07367
2693	0.07366
2694	0.07365
2695	0.07378
2696	0.07399
2697	0.0741
2698	0.07415
2699	0.0743
2700	0.07464
2701	0.07491
2702	0.07496
2703	0.0749
2704	0.0751
2705	0.07548
2706	0.07582
2707	0.07591
2708	0.07601
2709	0.07635
2710	0.07697
2711	0.07754
2712	0.07781
2713	0.07795
2714	0.07826
2715	0.07871
2716	0.07905
2717	0.07919
2718	0.07941
2719	0.07988
2720	0.08044
2721	0.0808
2722	0.08104
2723	0.08139
2724	0.08194
2725	0.08251
2726	0.08278
2727	0.08279
2728	0.08297
2729	0.08343
2730	0.08384
2731	0.08392
2732	0.08393
2733	0.08414
2734	0.08461
2735	0.08495
2736	0.08507
2737	0.08525
2738	0.08559
2739	0.08598
2740	0.08622
2741	0.08635
2742	0.08641
2743	0.0866
2744	0.08696
2745	0.08734
2746	0.08762
2747	0.08791
2748	0.08828
2749	0.08862
2750	0.08882
2751	0.08885
2752	0.08889
2753	0.08914
2754	0.08948
2755	0.08974
2756	0.08994
2757	0.0902
2758	0.09051
2759	0.09079
2760	0.09092
2761	0.091
2762	0.09121
2763	0.09152
2764	0.09182
2765	0.09201
2766	0.09227
2767	0.09264
2768	0.09304
2769	0.09332
2770	0.09353
2771	0.09379
2772	0.0941
2773	0.0944
2774	0.09465
2775	0.09493
2776	0.09524
2777	0.0956
2778	0.09594
2779	0.0962
2780	0.09654
2781	0.09705
2782	0.09756
2783	0.09801
2784	0.09839
2785	0.09889
2786	0.0995
2787	0.10009
2788	0.10055
2789	0.10099
2790	0.10166
2791	0.1025
2792	0.10318
2793	0.10365
2794	0.10415
2795	0.10498
2796	0.10605
2797	0.10703
2798	0.10769
2799	0.10821
2800	0.10899
2801	0.10998
2802	0.11092
2803	0.11175
2804	0.11263
2805	0.11372
2806	0.11478
2807	0.11567
2808	0.11657
2809	0.1177
2810	0.1189
2811	0.11991
2812	0.12073
2813	0.12155
2814	0.12258
2815	0.12377
2816	0.12488
2817	0.1258
2818	0.12675
2819	0.12786
2820	0.12909
2821	0.13033
2822	0.13141
2823	0.13237
2824	0.1334
2825	0.13459
2826	0.13573
2827	0.13673
2828	0.13785
2829	0.13918
2830	0.14054
2831	0.14172
2832	0.14272
2833	0.14381
2834	0.14514
2835	0.14649
2836	0.14776
2837	0.14896
2838	0.15029
2839	0.15176
2840	0.15316
2841	0.15437
2842	0.15561
2843	0.15704
2844	0.15862
2845	0.16031
2846	0.16192
2847	0.16351
2848	0.16518
2849	0.16712
2850	0.1694
2851	0.17196
2852	0.17486
2853	0.17826
2854	0.18208
2855	0.18606
2856	0.18996
2857	0.19388
2858	0.19795
2859	0.20205
2860	0.206
2861	0.20991
2862	0.21405
2863	0.21837
2864	0.22271
2865	0.227
2866	0.23116
2867	0.23539
2868	0.23968
2869	0.24403
2870	0.24829
2871	0.2525
2872	0.2566
2873	0.26047
2874	0.26401
2875	0.26716
2876	0.26996
2877	0.27246
2878	0.27468
2879	0.27664
2880	0.27838
2881	0.27998
2882	0.28149
2883	0.28289
2884	0.28411
2885	0.2851
2886	0.28601
2887	0.28694
2888	0.28784
2889	0.28875
2890	0.28971
2891	0.29077
2892	0.29178
2893	0.29275
2894	0.29372
2895	0.29483
2896	0.29591
2897	0.29686
2898	0.29774
2899	0.29889
2900	0.30025
2901	0.30171
2902	0.30311
2903	0.3044
2904	0.30576
2905	0.30738
2906	0.30915
2907	0.31087
2908	0.31251
2909	0.3142
2910	0.31604
2911	0.31795
2912	0.3198
2913	0.32149
2914	0.32306
2915	0.32457
2916	0.32619
2917	0.32793
2918	0.33004
2919	0.33274
2920	0.33629
2921	0.34047
2922	0.3448
2923	0.34895
2924	0.35294
2925	0.35667
2926	0.35987
2927	0.36247
2928	0.36447
2929	0.3661
2930	0.36736
2931	0.36808
2932	0.3682
2933	0.36764
2934	0.36653
2935	0.3649
2936	0.36267
2937	0.35973
2938	0.35616
2939	0.35223
2940	0.34813
2941	0.34379
2942	0.33902
2943	0.33384
2944	0.32849
2945	0.32317
2946	0.31794
2947	0.31283
2948	0.30787
2949	0.3032
2950	0.29898
2951	0.2952
2952	0.29176
2953	0.28861
2954	0.28604
2955	0.28424
2956	0.28324
2957	0.28297
2958	0.2834
2959	0.28446
2960	0.28602
2961	0.28795
2962	0.29018
2963	0.29256
2964	0.29512
2965	0.29792
2966	0.30063
2967	0.3029
2968	0.30475
2969	0.30622
2970	0.30715
2971	0.3074
2972	0.30697
2973	0.30594
2974	0.30448
2975	0.30266
2976	0.30043
2977	0.29768
2978	0.29429
2979	0.2906
2980	0.28673
2981	0.28251
2982	0.2778
2983	0.27271
2984	0.26751
2985	0.26224
2986	0.25673
2987	0.25096
2988	0.24509
2989	0.23917
2990	0.23324
2991	0.22749
2992	0.22196
2993	0.21653
2994	0.2112
2995	0.20612
2996	0.20139
2997	0.19694
2998	0.19271
2999	0.18865
3000	0.18478
3001	0.18135
3002	0.17832
3003	0.17552
3004	0.17278
3005	0.17023
3006	0.16804
3007	0.16618
3008	0.16442
3009	0.16275
3010	0.16112
3011	0.15963
3012	0.15825
3013	0.15711
3014	0.15622
3015	0.15536
3016	0.15454
3017	0.15381
3018	0.15314
3019	0.15251
3020	0.15194
3021	0.15154
3022	0.1513
3023	0.15114
3024	0.15091
3025	0.15076
3026	0.15083
3027	0.15104
3028	0.15117
3029	0.15119
3030	0.15123
3031	0.15143
3032	0.15205
3033	0.15282
3034	0.15341
3035	0.15389
3036	0.15447
3037	0.15513
3038	0.1556
3039	0.15582
3040	0.15591
3041	0.15613
3042	0.15655
3043	0.15695
3044	0.1572
3045	0.15743
3046	0.15778
3047	0.15808
3048	0.15825
3049	0.15847
3050	0.15887
3051	0.15934
3052	0.15977
3053	0.16014
3054	0.16024
3055	0.16025
3056	0.16046
3057	0.16098
3058	0.16157
3059	0.1619
3060	0.16219
3061	0.16256
3062	0.16308
3063	0.16342
3064	0.16355
3065	0.16376
3066	0.16411
3067	0.16453
3068	0.16496
3069	0.16522
3070	0.16532
3071	0.16539
3072	0.16537
3073	0.16534
3074	0.16539
3075	0.16554
3076	0.16566
3077	0.16569
3078	0.16564
3079	0.16563
3080	0.16581
3081	0.16614
3082	0.16646
3083	0.16685
3084	0.16717
3085	0.16739
3086	0.16768
3087	0.16812
3088	0.16874
3089	0.16929
3090	0.16965
3091	0.16993
3092	0.17046
3093	0.17116
3094	0.17168
3095	0.17177
3096	0.17191
3097	0.17256
3098	0.17347
3099	0.17418
3100	0.1746
3101	0.17504
3102	0.17575
3103	0.17658
3104	0.17749
3105	0.17836
3106	0.17921
3107	0.18018
3108	0.18134
3109	0.18227
3110	0.18296
3111	0.18369
3112	0.18468
3113	0.18572
3114	0.18662
3115	0.18737
3116	0.18829
3117	0.18957
3118	0.19091
3119	0.19202
3120	0.19317
3121	0.19433
3122	0.19543
3123	0.19662
3124	0.19782
3125	0.19891
3126	0.19997
3127	0.20129
3128	0.20286
3129	0.20436
3130	0.20566
3131	0.20697
3132	0.20838
3133	0.2098
3134	0.21126
3135	0.21266
3136	0.21409
3137	0.21564
3138	0.21704
3139	0.21817
3140	0.21935
3141	0.22086
3142	0.22258
3143	0.22417
3144	0.22557
3145	0.22706
3146	0.22866
3147	0.23036
3148	0.23196
3149	0.23325
3150	0.23441
3151	0.23574
3152	0.23724
3153	0.23876
3154	0.24027
3155	0.24184
3156	0.24352
3157	0.24523
3158	0.24677
3159	0.24815
3160	0.24956
3161	0.25107
3162	0.25262
3163	0.25406
3164	0.25542
3165	0.25669
3166	0.25801
3167	0.25947
3168	0.26104
3169	0.26253
3170	0.26386
3171	0.26515
3172	0.26654
3173	0.26809
3174	0.26965
3175	0.27108
3176	0.27231
3177	0.27349
3178	0.27481
3179	0.27638
3180	0.27796
3181	0.27939
3182	0.28076
3183	0.28219
3184	0.28351
3185	0.28469
3186	0.28596
3187	0.28741
3188	0.28891
3189	0.29023
3190	0.2915
3191	0.29284
3192	0.29412
3193	0.29539
3194	0.29662
3195	0.29764
3196	0.29852
3197	0.29963
3198	0.30098
3199	0.30228
3200	0.30353
3201	0.30467
3202	0.30581
3203	0.30702
3204	0.30821
3205	0.30928
3206	0.31028
3207	0.31139
3208	0.31254
3209	0.31357
3210	0.31453
3211	0.3156
3212	0.31676
3213	0.31785
3214	0.31867
3215	0.31952
3216	0.32072
3217	0.32199
3218	0.32289
3219	0.32346
3220	0.3243
3221	0.32553
3222	0.3268
3223	0.32797
3224	0.32899
3225	0.32975
3226	0.33045
3227	0.33128
3228	0.33226
3229	0.33323
3230	0.33395
3231	0.33443
3232	0.33483
3233	0.33537
3234	0.3361
3235	0.33691
3236	0.33774
3237	0.3386
3238	0.3394
3239	0.34014
3240	0.34088
3241	0.3417
3242	0.34255
3243	0.34306
3244	0.3431
3245	0.3432
3246	0.34392
3247	0.34491
3248	0.34584
3249	0.34667
3250	0.34739
3251	0.34799
3252	0.34864
3253	0.34921
3254	0.34962
3255	0.35016
3256	0.35093
3257	0.35175
3258	0.35257
3259	0.35347
3260	0.35441
3261	0.35536
3262	0.35619
3263	0.35688
3264	0.35761
3265	0.35845
3266	0.35929
3267	0.36005
3268	0.36062
3269	0.36095
3270	0.3613
3271	0.36198
3272	0.36286
3273	0.36349
3274	0.3639
3275	0.36452
3276	0.36542
3277	0.36641
3278	0.36739
3279	0.36809
3280	0.36857
3281	0.36902
3282	0.36951
3283	0.37001
3284	0.37056
3285	0.37105
3286	0.37132
3287	0.37148
3288	0.3717
3289	0.37189
3290	0.37184
3291	0.37163
3292	0.3716
3293	0.37184
3294	0.37215
3295	0.37234
3296	0.37253
3297	0.37276
3298	0.37293
3299	0.37306
3300	0.37297
3301	0.37286
3302	0.37278
3303	0.37254
3304	0.37205
3305	0.37166
3306	0.37146
3307	0.37114
3308	0.37052
3309	0.3698
3310	0.3694
3311	0.36919
3312	0.36886
3313	0.36837
3314	0.36774
3315	0.36712
3316	0.36651
3317	0.36577
3318	0.36479
3319	0.36377
3320	0.3628
3321	0.36187
3322	0.3609
3323	0.35976
3324	0.3584
3325	0.35688
3326	0.35532
3327	0.35403
3328	0.35316
3329	0.35231
3330	0.351
3331	0.34943
3332	0.34788
3333	0.34642
3334	0.34495
3335	0.3433
3336	0.34139
3337	0.33938
3338	0.33749
3339	0.33568
3340	0.33375
3341	0.33188
3342	0.33008
3343	0.32818
3344	0.32623
3345	0.32428
3346	0.32235
3347	0.32036
3348	0.31803
3349	0.31538
3350	0.31257
3351	0.30986
3352	0.30747
3353	0.30517
3354	0.30256
3355	0.29962
3356	0.29664
3357	0.29397
3358	0.29151
3359	0.28905
3360	0.28617
3361	0.28309
3362	0.28019
3363	0.27743
3364	0.27449
3365	0.2714
3366	0.26834
3367	0.26532
3368	0.26236
3369	0.25944
3370	0.25639
3371	0.25325
3372	0.25017
3373	0.24724
3374	0.24449
3375	0.24176
3376	0.23875
3377	0.23564
3378	0.23275
3379	0.23014
3380	0.22757
3381	0.2248
3382	0.22168
3383	0.2185
3384	0.21572
3385	0.21339
3386	0.21109
3387	0.20873
3388	0.20651
3389	0.20427
3390	0.2017
3391	0.19869
3392	0.19559
3393	0.19318
3394	0.19137
3395	0.18923
3396	0.18654
3397	0.18382
3398	0.18156
3399	0.17968
3400	0.1777
3401	0.17539
3402	0.1731
3403	0.17108
3404	0.16924
3405	0.1672
3406	0.1648
3407	0.16239
3408	0.16021
3409	0.15785
3410	0.15529
3411	0.15306
3412	0.15132
3413	0.14939
3414	0.14703
3415	0.14479
3416	0.14285
3417	0.14095
3418	0.13893
3419	0.13677
3420	0.13443
3421	0.13229
3422	0.13087
3423	0.12993
3424	0.12889
3425	0.12754
3426	0.12609
3427	0.12475
3428	0.12348
3429	0.12221
3430	0.12095
3431	0.1196
3432	0.11835
3433	0.11744
3434	0.11663
3435	0.11583
3436	0.11514
3437	0.11442
3438	0.11358
3439	0.11299
3440	0.11265
3441	0.11226
3442	0.1118
3443	0.11147
3444	0.11111
3445	0.11032
3446	0.10924
3447	0.10862
3448	0.10917
3449	0.11034
3450	0.11088
3451	0.11063
3452	0.11028
3453	0.11015
3454	0.11016
3455	0.11036
3456	0.11073
3457	0.11124
3458	0.11179
3459	0.11215
3460	0.11218
3461	0.11201
3462	0.112
3463	0.11243
3464	0.1133
3465	0.11417
3466	0.11446
3467	0.11453
3468	0.11514
3469	0.11609
3470	0.11679
3471	0.11712
3472	0.11709
3473	0.11708
3474	0.11744
3475	0.11823
3476	0.11921
3477	0.11999
3478	0.12037
3479	0.1203
3480	0.11988
3481	0.11942
3482	0.11945
3483	0.12035
3484	0.12155
3485	0.12234
3486	0.12236
3487	0.12177
3488	0.12151
3489	0.12232
3490	0.12336
3491	0.12387
3492	0.12431
3493	0.12485
3494	0.12532
3495	0.12539
3496	0.12525
3497	0.12565
3498	0.12642
3499	0.12682
3500	0.12659
3501	0.12587
3502	0.12488
3503	0.12436
3504	0.12509
3505	0.12659
3506	0.1278
3507	0.12809
3508	0.12731
3509	0.12625
3510	0.12636
3511	0.12752
3512	0.12856
3513	0.12928
3514	0.13006
3515	0.13068
3516	0.13074
3517	0.13035
3518	0.12986
3519	0.12977
3520	0.1301
3521	0.13009
3522	0.12919
3523	0.12821
3524	0.12828
3525	0.12887
3526	0.12883
3527	0.12824
3528	0.12818
3529	0.1292
3530	0.13058
3531	0.13176
3532	0.13294
3533	0.13398
3534	0.13429
3535	0.13369
3536	0.13292
3537	0.13299
3538	0.13385
3539	0.13475
3540	0.13542
3541	0.13572
3542	0.13546
3543	0.13438
3544	0.1329
3545	0.13208
3546	0.13246
3547	0.13398
3548	0.13614
3549	0.13785
3550	0.13829
3551	0.13758
3552	0.13676
3553	0.13707
3554	0.13841
3555	0.13982
3556	0.14089
3557	0.14151
3558	0.14163
3559	0.14129
3560	0.14102
3561	0.14127
3562	0.14144
3563	0.14099
3564	0.13957
3565	0.13653
3566	0.13297
3567	0.13278
3568	0.1373
3569	0.14248
3570	0.14544
3571	0.147
3572	0.14828
3573	0.14888
3574	0.1489
3575	0.14924
3576	0.14981
3577	0.15031
3578	0.15089
3579	0.1513
3580	0.15165
3581	0.15239
3582	0.15305
3583	0.15311
3584	0.15268
3585	0.15138
3586	0.14878
3587	0.14654
3588	0.1477
3589	0.15192
3590	0.1553
3591	0.15604
3592	0.1549
3593	0.15324
3594	0.15239
3595	0.15288
3596	0.15479
3597	0.15647
3598	0.15674
3599	0.15628
3600	0.1559
3601	0.15689
3602	0.15938
3603	0.16164
3604	0.16284
3605	0.16243
3606	0.16051
3607	0.15883
3608	0.15943
3609	0.16242
3610	0.16555
3611	0.16612
3612	0.16501
3613	0.16422
3614	0.16406
3615	0.16433
3616	0.16413
3617	0.16245
3618	0.16057
3619	0.16102
3620	0.16305
3621	0.16404
3622	0.16385
3623	0.16337
3624	0.16275
3625	0.16128
3626	0.15858
3627	0.15517
3628	0.15173
3629	0.15151
3630	0.15662
3631	0.15976
3632	0.1602
3633	0.15995
3634	0.16063
3635	0.16216
3636	0.16272
3637	0.16215
3638	0.16175
3639	0.16214
3640	0.16227
3641	0.16125
3642	0.15998
3643	0.1595
3644	0.15868
3645	0.15566
3646	0.15049
3647	0.14544
3648	0.14303
3649	0.14203
3650	0.14242
3651	0.14707
3652	0.15163
3653	0.15261
3654	0.15096
3655	0.14795
3656	0.14605
3657	0.14693
3658	0.14721
3659	0.14614
3660	0.14502
3661	0.14421
3662	0.1435
3663	0.14266
3664	0.14148
3665	0.13976
3666	0.1374
3667	0.13408
3668	0.12957
3669	0.12482
3670	0.12333
3671	0.12593
3672	0.12674
3673	0.12307
3674	0.1165
3675	0.11145
3676	0.11492
3677	0.11789
3678	0.11718
3679	0.11656
3680	0.1172
3681	0.11745
3682	0.11641
3683	0.1146
3684	0.11269
3685	0.11072
3686	0.10777
3687	0.104
3688	0.10177
3689	0.10056
3690	0.09735
3691	0.0958
3692	0.09765
3693	0.09896
3694	0.09859
3695	0.09759
3696	0.0963
3697	0.09531
3698	0.09461
3699	0.09326
3700	0.09115
3701	0.08955
3702	0.08952
3703	0.08987
3704	0.0897
3705	0.08913
3706	0.08839
3707	0.087
3708	0.08422
3709	0.08105
3710	0.07877
3711	0.07754
3712	0.08053
3713	0.08684
3714	0.08955
3715	0.08976
3716	0.08904
3717	0.08689
3718	0.08379
3719	0.0811
3720	0.0787
3721	0.0752
3722	0.07168
3723	0.07041
3724	0.06964
3725	0.06742
3726	0.06581
3727	0.06681
3728	0.06884
3729	0.0693
3730	0.06731
3731	0.06492
3732	0.0648
3733	0.06346
3734	0.05827
3735	0.05435
3736	0.0581
3737	0.06457
3738	0.0678
3739	0.06873
3740	0.06886
3741	0.0691
3742	0.06878
3743	0.06684
3744	0.06678
3745	0.07068
3746	0.07145
3747	0.0679
3748	0.06479
3749	0.06361
3750	0.063
3751	0.06209
3752	0.06499
3753	0.07014
3754	0.07176
3755	0.07086
3756	0.06995
3757	0.06931
3758	0.06763
3759	0.0663
3760	0.0686
3761	0.07132
3762	0.07155
3763	0.07055
3764	0.06876
3765	0.06728
3766	0.06768
3767	0.06833
3768	0.06688
3769	0.06512
3770	0.06563
3771	0.06754
3772	0.06828
3773	0.06836
3774	0.06821
3775	0.06772
3776	0.06678
3777	0.06494
3778	0.06243
3779	0.06131
3780	0.06282
3781	0.06424
3782	0.06402
3783	0.06265
3784	0.06099
3785	0.0604
3786	0.06135
3787	0.06241
3788	0.06277
3789	0.06274
3790	0.0627
3791	0.06249
3792	0.06199
3793	0.06102
3794	0.05924
3795	0.05697
3796	0.05527
3797	0.0548
3798	0.05437
3799	0.05251
3800	0.04956
3801	0.04846
3802	0.0511
3803	0.05397
3804	0.05436
3805	0.05272
3806	0.05104
3807	0.05265
3808	0.05545
3809	0.0562
3810	0.05602
3811	0.05566
3812	0.05486
3813	0.05319
3814	0.0501
3815	0.04685
3816	0.04746
3817	0.05007
3818	0.04833
3819	0.04422
3820	0.04037
3821	0.04104
3822	0.04627
3823	0.04815
3824	0.04745
3825	0.04634
3826	0.04553
3827	0.04598
3828	0.04724
3829	0.0476
3830	0.04655
3831	0.04564
3832	0.04579
3833	0.04505
3834	0.04325
3835	0.04201
3836	0.04053
3837	0.0392
3838	0.03956
3839	0.03884
3840	0.03801
3841	0.04008
3842	0.04139
3843	0.04069
3844	0.04165
3845	0.04376
3846	0.04442
3847	0.04388
3848	0.04243
3849	0.0402
3850	0.03744
3851	0.03411
3852	0.0302
3853	0.02889
3854	0.03463
3855	0.03995
3856	0.03885
3857	0.03792
3858	0.03914
3859	0.03992
3860	0.03883
3861	0.03705
3862	0.03556
3863	0.03367
3864	0.03214
3865	0.03391
3866	0.037
3867	0.03687
3868	0.03374
3869	0.03004
3870	0.0306
3871	0.0341
3872	0.03425
3873	0.03266
3874	0.03257
3875	0.03534
3876	0.0371
3877	0.03673
3878	0.03501
3879	0.03232
3880	0.03052
3881	0.03129
3882	0.03239
3883	0.03146
3884	0.02948
3885	0.02907
3886	0.03214
3887	0.03511
3888	0.03535
3889	0.03385
3890	0.03168
3891	0.03063
3892	0.03149
3893	0.03222
3894	0.03268
3895	0.03335
3896	0.03326
3897	0.03116
3898	0.02795
3899	0.02668
3900	0.02705
3901	0.02628
3902	0.0252
3903	0.02492
3904	0.02549
3905	0.02676
3906	0.02867
3907	0.03075
3908	0.03206
3909	0.03255
3910	0.03278
3911	0.03278
3912	0.03243
3913	0.0319
3914	0.03112
3915	0.02951
3916	0.02754
3917	0.02718
3918	0.02807
3919	0.02839
3920	0.02898
3921	0.03001
3922	0.02957
3923	0.02747
3924	0.02562
3925	0.02649
3926	0.02881
3927	0.02967
3928	0.02885
3929	0.02753
3930	0.02634
3931	0.02543
3932	0.02537
3933	0.02631
3934	0.02738
3935	0.02821
3936	0.02893
3937	0.02923
3938	0.02906
3939	0.02875
3940	0.02816
3941	0.02683
3942	0.02531
3943	0.02526
3944	0.0266
3945	0.02766
3946	0.02745
3947	0.02629
3948	0.02506
3949	0.02435
3950	0.02459
3951	0.02575
3952	0.02666
3953	0.02698
3954	0.02734
3955	0.0274
3956	0.02709
3957	0.02679
3958	0.02665
3959	0.02647
3960	0.02596
3961	0.02533
3962	0.02533
3963	0.026
3964	0.0266
3965	0.02679
3966	0.02671
3967	0.02644
3968	0.02592
3969	0.02538
3970	0.02509
3971	0.02493
3972	0.02484
3973	0.02492
3974	0.02492
3975	0.02478
3976	0.02488
3977	0.02536
3978	0.02566
3979	0.02575
3980	0.02577
3981	0.02543
3982	0.02489
3983	0.02473
3984	0.02485
3985	0.02481
3986	0.0247
3987	0.02469
3988	0.0247
3989	0.02461
3990	0.02439
3991	0.02422
3992	0.02431
3993	0.02455
3994	0.02457
3995	0.02448
3996	0.02451
3997	0.02452
3998	0.02446
3999	0.0245
4000	0.02455