4000.18193	0.01293
3999.21756	0.01325
3998.2532	0.01354
3997.28884	0.01381
3996.32447	0.01407
3995.36011	0.0143
3994.39574	0.01452
3993.43138	0.01471
3992.46702	0.01489
3991.50265	0.01504
3990.53829	0.01518
3989.57392	0.01529
3988.60956	0.01539
3987.6452	0.01502
3986.68083	0.0147
3985.71647	0.01452
3984.7521	0.01443
3983.78774	0.01458
3982.82338	0.01506
3981.85901	0.01554
3980.89465	0.01587
3979.93028	0.01632
3978.96592	0.01708
3978.00156	0.01798
3977.03719	0.01867
3976.07283	0.01902
3975.10846	0.01901
3974.1441	0.01872
3973.17974	0.01846
3972.21537	0.01848
3971.25101	0.01867
3970.28664	0.01888
3969.32228	0.01905
3968.35792	0.01918
3967.39355	0.01928
3966.42919	0.01926
3965.46482	0.01906
3964.50046	0.01891
3963.5361	0.01892
3962.57173	0.01874
3961.60737	0.01843
3960.643	0.01844
3959.67864	0.0189
3958.71428	0.01991
3957.74991	0.02148
3956.78555	0.02307
3955.82118	0.024
3954.85682	0.02425
3953.89246	0.02476
3952.92809	0.02601
3951.96373	0.0275
3950.99936	0.02887
3950.035	0.03028
3949.07064	0.03168
3948.10627	0.03265
3947.14191	0.03295
3946.17754	0.03259
3945.21318	0.03162
3944.24882	0.03021
3943.28445	0.0289
3942.32009	0.02798
3941.35572	0.02751
3940.39136	0.0275
3939.427	0.02779
3938.46263	0.02819
3937.49827	0.02832
3936.5339	0.02817
3935.56954	0.02879
3934.60518	0.03033
3933.64081	0.03174
3932.67645	0.03254
3931.71208	0.03343
3930.74772	0.03525
3929.78336	0.03702
3928.81899	0.0378
3927.85463	0.03858
3926.89026	0.04001
3925.9259	0.04141
3924.96154	0.04207
3923.99717	0.04179
3923.03281	0.04083
3922.06844	0.03954
3921.10408	0.03837
3920.13972	0.03754
3919.17535	0.03642
3918.21099	0.03434
3917.24662	0.03135
3916.28226	0.02809
3915.3179	0.02531
3914.35353	0.02354
3913.38917	0.02383
3912.4248	0.02651
3911.46044	0.02991
3910.49608	0.0331
3909.53171	0.03695
3908.56735	0.04174
3907.60298	0.04673
3906.63862	0.05084
3905.67426	0.05429
3904.70989	0.05769
3903.74553	0.06024
3902.78116	0.06218
3901.8168	0.06454
3900.85244	0.06675
3899.88807	0.0678
3898.92371	0.06698
3897.95934	0.06395
3896.99498	0.05968
3896.03062	0.05544
3895.06625	0.05145
3894.10189	0.04808
3893.13752	0.04548
3892.17316	0.0439
3891.2088	0.04456
3890.24443	0.04707
3889.28007	0.04992
3888.3157	0.05213
3887.35134	0.05377
3886.38698	0.05448
3885.42261	0.05431
3884.45825	0.05393
3883.49388	0.05279
3882.52952	0.05043
3881.56516	0.04808
3880.60079	0.04895
3879.63643	0.05288
3878.67206	0.05728
3877.7077	0.05935
3876.74333	0.05887
3875.77897	0.05825
3874.81461	0.05886
3873.85024	0.06111
3872.88588	0.06476
3871.92151	0.0684
3870.95715	0.071
3869.99279	0.07218
3869.02842	0.07282
3868.06406	0.07395
3867.09969	0.07396
3866.13533	0.07105
3865.17097	0.06556
3864.2066	0.06231
3863.24224	0.06274
3862.27787	0.06594
3861.31351	0.07012
3860.34915	0.07362
3859.38478	0.07665
3858.42042	0.08035
3857.45605	0.08461
3856.49169	0.08618
3855.52733	0.08479
3854.56296	0.08241
3853.5986	0.08037
3852.63423	0.07897
3851.66987	0.07744
3850.70551	0.07608
3849.74114	0.07537
3848.77678	0.07512
3847.81241	0.07426
3846.84805	0.07253
3845.88369	0.07094
3844.91932	0.06978
3843.95496	0.06822
3842.99059	0.0667
3842.02623	0.06796
3841.06187	0.07347
3840.0975	0.07888
3839.13314	0.08181
3838.16877	0.08318
3837.20441	0.08385
3836.24005	0.08323
3835.27568	0.08066
3834.31132	0.07595
3833.34695	0.06915
3832.38259	0.06309
3831.41823	0.06045
3830.45386	0.05925
3829.4895	0.05824
3828.52513	0.05782
3827.56077	0.05901
3826.59641	0.06282
3825.63204	0.06822
3824.66768	0.07328
3823.70331	0.0774
3822.73895	0.08056
3821.77459	0.08218
3820.81022	0.0821
3819.84586	0.08074
3818.88149	0.07806
3817.91713	0.07494
3816.95277	0.07198
3815.9884	0.06877
3815.02404	0.06489
3814.05967	0.05968
3813.09531	0.05402
3812.13095	0.05057
3811.16658	0.04908
3810.20222	0.04908
3809.23785	0.05155
3808.27349	0.05599
3807.30913	0.06045
3806.34476	0.06459
3805.3804	0.06842
3804.41603	0.07268
3803.45167	0.07721
3802.48731	0.08005
3801.52294	0.08075
3800.55858	0.07963
3799.59421	0.07693
3798.62985	0.07265
3797.66549	0.06685
3796.70112	0.06034
3795.73676	0.05491
3794.77239	0.05147
3793.80803	0.04808
3792.84367	0.04322
3791.8793	0.03734
3790.91494	0.03252
3789.95057	0.0315
3788.98621	0.03387
3788.02185	0.03621
3787.05748	0.03766
3786.09312	0.03885
3785.12875	0.04063
3784.16439	0.04279
3783.20003	0.04391
3782.23566	0.04354
3781.2713	0.04294
3780.30693	0.04338
3779.34257	0.04425
3778.37821	0.04458
3777.41384	0.0444
3776.44948	0.04468
3775.48511	0.0455
3774.52075	0.04657
3773.55639	0.04795
3772.59202	0.0492
3771.62766	0.04927
3770.66329	0.04904
3769.69893	0.04963
3768.73457	0.05098
3767.7702	0.05359
3766.80584	0.05722
3765.84147	0.06013
3764.87711	0.06113
3763.91275	0.06006
3762.94838	0.05905
3761.98402	0.05966
3761.01965	0.06216
3760.05529	0.06655
3759.09093	0.07238
3758.12656	0.07938
3757.1622	0.0863
3756.19783	0.09215
3755.23347	0.09885
3754.26911	0.10615
3753.30474	0.11324
3752.34038	0.11902
3751.37601	0.12298
3750.41165	0.12471
3749.44729	0.12412
3748.48292	0.12192
3747.51856	0.11937
3746.55419	0.11807
3745.58983	0.11828
3744.62547	0.11863
3743.6611	0.11833
3742.69674	0.11741
3741.73237	0.11595
3740.76801	0.1145
3739.80365	0.11408
3738.83928	0.1139
3737.87492	0.11345
3736.91055	0.11301
3735.94619	0.11193
3734.98182	0.10976
3734.01746	0.10728
3733.0531	0.10643
3732.08873	0.1069
3731.12437	0.10563
3730.16	0.10297
3729.19564	0.09982
3728.23128	0.09568
3727.26691	0.08993
3726.30255	0.08317
3725.33818	0.07643
3724.37382	0.07052
3723.40946	0.0675
3722.44509	0.06788
3721.48073	0.06982
3720.51636	0.07342
3719.552	0.07803
3718.58764	0.08178
3717.62327	0.08382
3716.65891	0.08449
3715.69454	0.08451
3714.73018	0.08431
3713.76582	0.08398
3712.80145	0.08398
3711.83709	0.08456
3710.87272	0.0857
3709.90836	0.08693
3708.944	0.08686
3707.97963	0.08556
3707.01527	0.08382
3706.0509	0.08128
3705.08654	0.07726
3704.12218	0.07171
3703.15781	0.06484
3702.19345	0.05803
3701.22908	0.05323
3700.26472	0.05221
3699.30036	0.05608
3698.33599	0.06261
3697.37163	0.06976
3696.40726	0.07604
3695.4429	0.08102
3694.47854	0.08493
3693.51417	0.0877
3692.54981	0.08895
3691.58544	0.08884
3690.62108	0.08873
3689.65672	0.08947
3688.69235	0.08952
3687.72799	0.08718
3686.76362	0.08529
3685.79926	0.08717
3684.8349	0.09059
3683.87053	0.09344
3682.90617	0.09421
3681.9418	0.09323
3680.97744	0.09339
3680.01308	0.09629
3679.04871	0.1021
3678.08435	0.10974
3677.11998	0.1177
3676.15562	0.12527
3675.19126	0.13103
3674.22689	0.13434
3673.26253	0.13542
3672.29816	0.13461
3671.3338	0.13198
3670.36944	0.12748
3669.40507	0.1211
3668.44071	0.11328
3667.47634	0.10583
3666.51198	0.09967
3665.54762	0.09418
3664.58325	0.08965
3663.61889	0.08775
3662.65452	0.08649
3661.69016	0.08332
3660.7258	0.0814
3659.76143	0.08223
3658.79707	0.08788
3657.8327	0.09957
3656.86834	0.11382
3655.90398	0.1271
3654.93961	0.13807
3653.97525	0.147
3653.01088	0.15462
3652.04652	0.16096
3651.08216	0.16555
3650.11779	0.16829
3649.15343	0.16956
3648.18906	0.1696
3647.2247	0.16801
3646.26034	0.16445
3645.29597	0.15996
3644.33161	0.15617
3643.36724	0.15207
3642.40288	0.14553
3641.43852	0.13606
3640.47415	0.12644
3639.50979	0.12134
3638.54542	0.12187
3637.58106	0.12729
3636.6167	0.13511
3635.65233	0.14424
3634.68797	0.15323
3633.7236	0.16016
3632.75924	0.16458
3631.79488	0.1672
3630.83051	0.16963
3629.86615	0.17318
3628.90178	0.17773
3627.93742	0.18209
3626.97306	0.18544
3626.00869	0.18794
3625.04433	0.18992
3624.07996	0.19175
3623.1156	0.19391
3622.15124	0.19609
3621.18687	0.19744
3620.22251	0.19758
3619.25814	0.19755
3618.29378	0.19922
3617.32942	0.20456
3616.36505	0.21237
3615.40069	0.21847
3614.43632	0.2223
3613.47196	0.22407
3612.5076	0.22402
3611.54323	0.22283
3610.57887	0.22114
3609.6145	0.21947
3608.65014	0.2183
3607.68578	0.21803
3606.72141	0.21901
3605.75705	0.22069
3604.79268	0.22214
3603.82832	0.22359
3602.86396	0.22561
3601.89959	0.22804
3600.93523	0.23009
3599.97086	0.23101
3599.0065	0.23154
3598.04214	0.23399
3597.07777	0.23922
3596.11341	0.24616
3595.14904	0.25343
3594.18468	0.25996
3593.22031	0.26492
3592.25595	0.26822
3591.29159	0.27058
3590.32722	0.27271
3589.36286	0.27481
3588.39849	0.27697
3587.43413	0.27904
3586.46977	0.28072
3585.5054	0.28197
3584.54104	0.28311
3583.57667	0.28447
3582.61231	0.28577
3581.64795	0.28645
3580.68358	0.28595
3579.71922	0.28365
3578.75485	0.28059
3577.79049	0.27958
3576.82613	0.28262
3575.86176	0.28979
3574.8974	0.29953
3573.93303	0.30942
3572.96867	0.31808
3572.00431	0.32568
3571.03994	0.33277
3570.07558	0.33926
3569.11121	0.3449
3568.14685	0.34992
3567.18249	0.35423
3566.21812	0.35732
3565.25376	0.3592
3564.28939	0.36029
3563.32503	0.36121
3562.36067	0.36223
3561.3963	0.3627
3560.43194	0.36181
3559.46757	0.35953
3558.50321	0.35654
3557.53885	0.35379
3556.57448	0.35262
3555.61012	0.35473
3554.64575	0.36041
3553.68139	0.36761
3552.71703	0.3742
3551.75266	0.37979
3550.7883	0.38464
3549.82393	0.38876
3548.85957	0.3922
3547.89521	0.39544
3546.93084	0.39868
3545.96648	0.40163
3545.00211	0.404
3544.03775	0.40556
3543.07339	0.40637
3542.10902	0.40695
3541.14466	0.40779
3540.18029	0.40909
3539.21593	0.41059
3538.25157	0.41208
3537.2872	0.4136
3536.32284	0.41535
3535.35847	0.41788
3534.39411	0.42188
3533.42975	0.42754
3532.46538	0.43406
3531.50102	0.44035
3530.53665	0.44589
3529.57229	0.45066
3528.60793	0.45482
3527.64356	0.45844
3526.6792	0.46151
3525.71483	0.46417
3524.75047	0.46677
3523.78611	0.46926
3522.82174	0.47099
3521.85738	0.47174
3520.89301	0.47214
3519.92865	0.47303
3518.96429	0.47442
3517.99992	0.47592
3517.03556	0.47742
3516.07119	0.47909
3515.10683	0.48113
3514.14247	0.48378
3513.1781	0.48733
3512.21374	0.49194
3511.24937	0.49748
3510.28501	0.50318
3509.32065	0.50816
3508.35628	0.51235
3507.39192	0.51631
3506.42755	0.52036
3505.46319	0.52429
3504.49883	0.52782
3503.53446	0.53081
3502.5701	0.53331
3501.60573	0.5354
3500.64137	0.5371
3499.67701	0.53865
3498.71264	0.54056
3497.74828	0.54312
3496.78391	0.54602
3495.81955	0.5485
3494.85519	0.55024
3493.89082	0.55167
3492.92646	0.55362
3491.96209	0.55675
3490.99773	0.5611
3490.03337	0.56598
3489.069	0.57058
3488.10464	0.57458
3487.14027	0.57805
3486.17591	0.58128
3485.21155	0.58467
3484.24718	0.58833
3483.28282	0.59202
3482.31845	0.59546
3481.35409	0.59858
3480.38973	0.60138
3479.42536	0.60386
3478.461	0.60613
3477.49663	0.60842
3476.53227	0.61091
3475.56791	0.61346
3474.60354	0.61581
3473.63918	0.61808
3472.67481	0.62051
3471.71045	0.62315
3470.74609	0.62616
3469.78172	0.6296
3468.81736	0.63327
3467.85299	0.63683
3466.88863	0.64014
3465.92427	0.6432
3464.9599	0.6461
3463.99554	0.64899
3463.03117	0.65199
3462.06681	0.65502
3461.10245	0.6578
3460.13808	0.66013
3459.17372	0.66211
3458.20935	0.66434
3457.24499	0.66708
3456.28062	0.67009
3455.31626	0.6731
3454.3519	0.67605
3453.38753	0.679
3452.42317	0.682
3451.4588	0.68508
3450.49444	0.68826
3449.53008	0.69142
3448.56571	0.69434
3447.60135	0.69697
3446.63698	0.69934
3445.67262	0.70148
3444.70826	0.70337
3443.74389	0.70504
3442.77953	0.70651
3441.81516	0.70782
3440.8508	0.70893
3439.88644	0.70978
3438.92207	0.7104
3437.95771	0.71085
3436.99334	0.71128
3436.02898	0.71204
3435.06462	0.71337
3434.10025	0.7149
3433.13589	0.71621
3432.17152	0.71746
3431.20716	0.71913
3430.2428	0.72131
3429.27843	0.72363
3428.31407	0.72578
3427.3497	0.72775
3426.38534	0.72955
3425.42098	0.73116
3424.45661	0.73257
3423.49225	0.73377
3422.52788	0.73477
3421.56352	0.73562
3420.59916	0.73636
3419.63479	0.73697
3418.67043	0.7374
3417.70606	0.73763
3416.7417	0.73766
3415.77734	0.73759
3414.81297	0.73748
3413.84861	0.73733
3412.88424	0.73713
3411.91988	0.73692
3410.95552	0.73675
3409.99115	0.73668
3409.02679	0.73688
3408.06242	0.73748
3407.09806	0.73828
3406.1337	0.73894
3405.16933	0.73936
3404.20497	0.73977
3403.2406	0.74038
3402.27624	0.74114
3401.31188	0.74184
3400.34751	0.74242
3399.38315	0.74285
3398.41878	0.74313
3397.45442	0.74324
3396.49006	0.74326
3395.52569	0.74334
3394.56133	0.7435
3393.59696	0.74368
3392.6326	0.74382
3391.66824	0.74388
3390.70387	0.7438
3389.73951	0.74357
3388.77514	0.74318
3387.81078	0.74263
3386.84642	0.74196
3385.88205	0.74131
3384.91769	0.74076
3383.95332	0.74014
3382.98896	0.73931
3382.0246	0.73837
3381.06023	0.73751
3380.09587	0.73666
3379.1315	0.73562
3378.16714	0.73434
3377.20278	0.73293
3376.23841	0.73153
3375.27405	0.73016
3374.30968	0.72882
3373.34532	0.72758
3372.38096	0.72648
3371.41659	0.72541
3370.45223	0.72427
3369.48786	0.72298
3368.5235	0.72154
3367.55914	0.72007
3366.59477	0.71865
3365.63041	0.71727
3364.66604	0.71584
3363.70168	0.71433
3362.73732	0.71275
3361.77295	0.71106
3360.80859	0.70923
3359.84422	0.70724
3358.87986	0.7051
3357.9155	0.70286
3356.95113	0.7006
3355.98677	0.69837
3355.0224	0.6962
3354.05804	0.69404
3353.09368	0.69191
3352.12931	0.68977
3351.16495	0.68764
3350.20058	0.68552
3349.23622	0.68336
3348.27186	0.68116
3347.30749	0.679
3346.34313	0.67694
3345.37876	0.67503
3344.4144	0.6733
3343.45004	0.67166
3342.48567	0.67
3341.52131	0.66827
3340.55694	0.66649
3339.59258	0.66462
3338.62822	0.66269
3337.66385	0.66075
3336.69949	0.6588
3335.73512	0.65682
3334.77076	0.65483
3333.8064	0.65284
3332.84203	0.65082
3331.87767	0.64874
3330.9133	0.64657
3329.94894	0.64434
3328.98458	0.64209
3328.02021	0.63984
3327.05585	0.63751
3326.09148	0.63513
3325.12712	0.6328
3324.16276	0.63062
3323.19839	0.62854
3322.23403	0.62649
3321.26966	0.62437
3320.3053	0.62223
3319.34094	0.62017
3318.37657	0.61822
3317.41221	0.61625
3316.44784	0.61422
3315.48348	0.61213
3314.51911	0.61001
3313.55475	0.60784
3312.59039	0.60562
3311.62602	0.60337
3310.66166	0.60109
3309.69729	0.59879
3308.73293	0.59649
3307.76857	0.59421
3306.8042	0.59193
3305.83984	0.58959
3304.87547	0.58719
3303.91111	0.58474
3302.94675	0.58233
3301.98238	0.58
3301.01802	0.57776
3300.05365	0.57556
3299.08929	0.57341
3298.12493	0.57134
3297.16056	0.56934
3296.1962	0.56736
3295.23183	0.56532
3294.26747	0.56321
3293.30311	0.56111
3292.33874	0.55901
3291.37438	0.55689
3290.41001	0.55478
3289.44565	0.55262
3288.48129	0.55043
3287.51692	0.5483
3286.55256	0.54626
3285.58819	0.54425
3284.62383	0.54231
3283.65947	0.54042
3282.6951	0.53852
3281.73074	0.5366
3280.76637	0.53468
3279.80201	0.53277
3278.83765	0.53081
3277.87328	0.52876
3276.90892	0.5267
3275.94455	0.52464
3274.98019	0.52256
3274.01583	0.52042
3273.05146	0.51823
3272.0871	0.51606
3271.12273	0.51395
3270.15837	0.51182
3269.19401	0.50963
3268.22964	0.50741
3267.26528	0.50516
3266.30091	0.50284
3265.33655	0.50059
3264.37219	0.49853
3263.40782	0.49657
3262.44346	0.49465
3261.47909	0.4928
3260.51473	0.49095
3259.55037	0.48896
3258.586	0.48681
3257.62164	0.48449
3256.65727	0.48212
3255.69291	0.47988
3254.72855	0.47778
3253.76418	0.47574
3252.79982	0.4737
3251.83545	0.47165
3250.87109	0.46958
3249.90673	0.46751
3248.94236	0.46542
3247.978	0.46336
3247.01363	0.46133
3246.04927	0.45929
3245.08491	0.45721
3244.12054	0.45508
3243.15618	0.45295
3242.19181	0.45088
3241.22745	0.44885
3240.26309	0.44678
3239.29872	0.44465
3238.33436	0.4425
3237.36999	0.44033
3236.40563	0.4381
3235.44127	0.43576
3234.4769	0.43339
3233.51254	0.43109
3232.54817	0.42885
3231.58381	0.42656
3230.61945	0.42422
3229.65508	0.4219
3228.69072	0.4196
3227.72635	0.41726
3226.76199	0.41482
3225.79763	0.41234
3224.83326	0.40994
3223.8689	0.4076
3222.90453	0.40516
3221.94017	0.40258
3220.97581	0.40001
3220.01144	0.3975
3219.04708	0.39501
3218.08271	0.39251
3217.11835	0.38997
3216.15399	0.38739
3215.18962	0.3848
3214.22526	0.38216
3213.26089	0.37941
3212.29653	0.37658
3211.33217	0.37366
3210.3678	0.37068
3209.40344	0.36772
3208.43907	0.36494
3207.47471	0.36236
3206.51035	0.35987
3205.54598	0.35733
3204.58162	0.35474
3203.61725	0.35214
3202.65289	0.3496
3201.68853	0.34714
3200.72416	0.34465
3199.7598	0.34209
3198.79543	0.33953
3197.83107	0.33702
3196.86671	0.33453
3195.90234	0.33204
3194.93798	0.32955
3193.97361	0.32705
3193.00925	0.32454
3192.04489	0.32199
3191.08052	0.31935
3190.11616	0.31664
3189.15179	0.31401
3188.18743	0.31155
3187.22307	0.30919
3186.2587	0.30696
3185.29434	0.30482
3184.32997	0.30271
3183.36561	0.30055
3182.40125	0.29832
3181.43688	0.29606
3180.47252	0.29379
3179.50815	0.29154
3178.54379	0.28928
3177.57943	0.28702
3176.61506	0.28475
3175.6507	0.28249
3174.68633	0.28025
3173.72197	0.27809
3172.7576	0.276
3171.79324	0.27389
3170.82888	0.27173
3169.86451	0.26953
3168.90015	0.2673
3167.93578	0.26507
3166.97142	0.26292
3166.00706	0.26088
3165.04269	0.25885
3164.07833	0.25669
3163.11396	0.25441
3162.1496	0.25206
3161.18524	0.24967
3160.22087	0.24724
3159.25651	0.24477
3158.29214	0.24229
3157.32778	0.2398
3156.36342	0.23729
3155.39905	0.23476
3154.43469	0.23224
3153.47032	0.22977
3152.50596	0.22734
3151.5416	0.22495
3150.57723	0.22256
3149.61287	0.22019
3148.6485	0.21784
3147.68414	0.21552
3146.71978	0.21322
3145.75541	0.21092
3144.79105	0.20868
3143.82668	0.20659
3142.86232	0.20466
3141.89796	0.2028
3140.93359	0.20094
3139.96923	0.19907
3139.00486	0.19719
3138.0405	0.19536
3137.07614	0.19362
3136.11177	0.19195
3135.14741	0.19025
3134.18304	0.18857
3133.21868	0.18703
3132.25432	0.18562
3131.28995	0.18421
3130.32559	0.18283
3129.36122	0.18149
3128.39686	0.18014
3127.4325	0.17877
3126.46813	0.17745
3125.50377	0.17618
3124.5394	0.17491
3123.57504	0.17361
3122.61068	0.17232
3121.64631	0.17111
3120.68195	0.16998
3119.71758	0.1688
3118.75322	0.16749
3117.78886	0.16611
3116.82449	0.16469
3115.86013	0.16323
3114.89576	0.16178
3113.9314	0.16031
3112.96704	0.15884
3112.00267	0.15743
3111.03831	0.15624
3110.07394	0.15523
3109.10958	0.15417
3108.14522	0.15302
3107.18085	0.15198
3106.21649	0.15112
3105.25212	0.15035
3104.28776	0.14966
3103.3234	0.14906
3102.35903	0.14846
3101.39467	0.14777
3100.4303	0.14702
3099.46594	0.14623
3098.50158	0.14543
3097.53721	0.14462
3096.57285	0.14377
3095.60848	0.1429
3094.64412	0.14198
3093.67976	0.14102
3092.71539	0.14007
3091.75103	0.13917
3090.78666	0.13841
3089.8223	0.13784
3088.85794	0.13747
3087.89357	0.1372
3086.92921	0.1369
3085.96484	0.13654
3085.00048	0.13621
3084.03612	0.13602
3083.07175	0.13592
3082.10739	0.1358
3081.14302	0.13564
3080.17866	0.13542
3079.2143	0.13514
3078.24993	0.13485
3077.28557	0.13459
3076.3212	0.13439
3075.35684	0.13429
3074.39248	0.13429
3073.42811	0.1343
3072.46375	0.13426
3071.49938	0.1342
3070.53502	0.13419
3069.57066	0.13421
3068.60629	0.13423
3067.64193	0.1343
3066.67756	0.13447
3065.7132	0.13465
3064.74884	0.13471
3063.78447	0.13464
3062.82011	0.13445
3061.85574	0.13415
3060.89138	0.13377
3059.92702	0.13339
3058.96265	0.13302
3057.99829	0.13265
3057.03392	0.13225
3056.06956	0.13185
3055.1052	0.13151
3054.14083	0.1312
3053.17647	0.13089
3052.2121	0.13058
3051.24774	0.1302
3050.28338	0.1297
3049.31901	0.1291
3048.35465	0.12846
3047.39028	0.12775
3046.42592	0.12701
3045.46156	0.12631
3044.49719	0.1257
3043.53283	0.12511
3042.56846	0.12457
3041.6041	0.12417
3040.63974	0.12388
3039.67537	0.12361
3038.71101	0.12331
3037.74664	0.12304
3036.78228	0.1229
3035.81792	0.12283
3034.85355	0.12271
3033.88919	0.12253
3032.92482	0.12232
3031.96046	0.12207
3030.99609	0.12176
3030.03173	0.12137
3029.06737	0.1209
3028.103	0.12033
3027.13864	0.11971
3026.17427	0.11908
3025.20991	0.11843
3024.24555	0.11781
3023.28118	0.11734
3022.31682	0.11708
3021.35245	0.11697
3020.38809	0.11706
3019.42373	0.11739
3018.45936	0.11782
3017.495	0.11819
3016.53063	0.11848
3015.56627	0.1188
3014.60191	0.11922
3013.63754	0.11973
3012.67318	0.12027
3011.70881	0.1208
3010.74445	0.12134
3009.78009	0.12191
3008.81572	0.1225
3007.85136	0.12309
3006.88699	0.12369
3005.92263	0.12436
3004.95827	0.12515
3003.9939	0.12614
3003.02954	0.12733
3002.06517	0.12871
3001.10081	0.13033
3000.13645	0.13222
2999.17208	0.13436
2998.20772	0.13676
2997.24335	0.1394
2996.27899	0.14222
2995.31463	0.14522
2994.35026	0.14845
2993.3859	0.15193
2992.42153	0.15566
2991.45717	0.1596
2990.49281	0.16368
2989.52844	0.16787
2988.56408	0.17216
2987.59971	0.17656
2986.63535	0.18102
2985.67099	0.18555
2984.70662	0.19013
2983.74226	0.19478
2982.77789	0.19949
2981.81353	0.20417
2980.84917	0.20874
2979.8848	0.21313
2978.92044	0.21732
2977.95607	0.22127
2976.99171	0.22495
2976.02735	0.22836
2975.06298	0.23144
2974.09862	0.23411
2973.13425	0.23631
2972.16989	0.23805
2971.20553	0.2393
2970.24116	0.24006
2969.2768	0.24035
2968.31243	0.24021
2967.34807	0.23966
2966.38371	0.23878
2965.41934	0.23764
2964.45498	0.23633
2963.49061	0.23493
2962.52625	0.2335
2961.56189	0.23214
2960.59752	0.23092
2959.63316	0.2299
2958.66879	0.22915
2957.70443	0.22873
2956.74007	0.2287
2955.7757	0.22912
2954.81134	0.23005
2953.84697	0.23148
2952.88261	0.23343
2951.91825	0.23586
2950.95388	0.23878
2949.98952	0.24215
2949.02515	0.24596
2948.06079	0.25013
2947.09643	0.25462
2946.13206	0.25939
2945.1677	0.26439
2944.20333	0.26956
2943.23897	0.27481
2942.27461	0.28005
2941.31024	0.28519
2940.34588	0.29014
2939.38151	0.29483
2938.41715	0.29921
2937.45279	0.3032
2936.48842	0.30677
2935.52406	0.30989
2934.55969	0.31253
2933.59533	0.31466
2932.63097	0.31629
2931.6666	0.31739
2930.70224	0.31799
2929.73787	0.31808
2928.77351	0.31768
2927.80915	0.31681
2926.84478	0.31549
2925.88042	0.31378
2924.91605	0.31169
2923.95169	0.30927
2922.98733	0.30658
2922.02296	0.30367
2921.0586	0.30058
2920.09423	0.29735
2919.12987	0.29402
2918.16551	0.29063
2917.20114	0.28723
2916.23678	0.28388
2915.27241	0.28058
2914.30805	0.27738
2913.34369	0.27431
2912.37932	0.27138
2911.41496	0.26861
2910.45059	0.266
2909.48623	0.26353
2908.52187	0.2612
2907.5575	0.25899
2906.59314	0.25688
2905.62877	0.25486
2904.66441	0.25292
2903.70005	0.25104
2902.73568	0.24921
2901.77132	0.24744
2900.80695	0.24573
2899.84259	0.24406
2898.87823	0.24245
2897.91386	0.24087
2896.9495	0.23936
2895.98513	0.23792
2895.02077	0.23657
2894.05641	0.23528
2893.09204	0.23408
2892.12768	0.23296
2891.16331	0.23192
2890.19895	0.23093
2889.23458	0.22998
2888.27022	0.22908
2887.30586	0.22821
2886.34149	0.22736
2885.37713	0.2265
2884.41276	0.22559
2883.4484	0.22461
2882.48404	0.22355
2881.51967	0.22239
2880.55531	0.22109
2879.59094	0.21963
2878.62658	0.218
2877.66222	0.21619
2876.69785	0.21416
2875.73349	0.21191
2874.76912	0.20944
2873.80476	0.2068
2872.8404	0.204
2871.87603	0.20107
2870.91167	0.19801
2869.9473	0.19486
2868.98294	0.19166
2868.01858	0.18845
2867.05421	0.18527
2866.08985	0.18215
2865.12548	0.17909
2864.16112	0.17613
2863.19676	0.17325
2862.23239	0.17047
2861.26803	0.16779
2860.30366	0.1652
2859.3393	0.16267
2858.37494	0.16019
2857.41057	0.15772
2856.44621	0.15525
2855.48184	0.15275
2854.51748	0.15023
2853.55312	0.14768
2852.58875	0.14512
2851.62439	0.14254
2850.66002	0.13996
2849.69566	0.1374
2848.7313	0.13489
2847.76693	0.13245
2846.80257	0.1301
2845.8382	0.12786
2844.87384	0.12576
2843.90948	0.12381
2842.94511	0.12201
2841.98075	0.12033
2841.01638	0.11879
2840.05202	0.1174
2839.08766	0.11618
2838.12329	0.11509
2837.15893	0.11409
2836.19456	0.11313
2835.2302	0.11222
2834.26584	0.11136
2833.30147	0.11053
2832.33711	0.10973
2831.37274	0.10894
2830.40838	0.10817
2829.44402	0.1074
2828.47965	0.10664
2827.51529	0.10587
2826.55092	0.10511
2825.58656	0.10437
2824.6222	0.10365
2823.65783	0.10296
2822.69347	0.10229
2821.7291	0.10162
2820.76474	0.10097
2819.80038	0.10034
2818.83601	0.09972
2817.87165	0.09912
2816.90728	0.09853
2815.94292	0.09795
2814.97856	0.09738
2814.01419	0.09681
2813.04983	0.09624
2812.08546	0.09568
2811.1211	0.09512
2810.15674	0.09457
2809.19237	0.09402
2808.22801	0.09346
2807.26364	0.09289
2806.29928	0.09232
2805.33492	0.09176
2804.37055	0.09119
2803.40619	0.09062
2802.44182	0.09004
2801.47746	0.08947
2800.5131	0.08891
2799.54873	0.08836
2798.58437	0.08779
2797.62	0.08722
2796.65564	0.08666
2795.69128	0.0861
2794.72691	0.08554
2793.76255	0.08497
2792.79818	0.0844
2791.83382	0.08383
2790.86946	0.08327
2789.90509	0.08272
2788.94073	0.08215
2787.97636	0.08157
2787.012	0.08099
2786.04764	0.08041
2785.08327	0.07984
2784.11891	0.07925
2783.15454	0.07866
2782.19018	0.07806
2781.22582	0.07748
2780.26145	0.07691
2779.29709	0.07633
2778.33272	0.07575
2777.36836	0.07518
2776.404	0.07463
2775.43963	0.0741
2774.47527	0.07358
2773.5109	0.07307
2772.54654	0.07256
2771.58218	0.07208
2770.61781	0.07162
2769.65345	0.07117
2768.68908	0.07074
2767.72472	0.07034
2766.76036	0.06996
2765.79599	0.0696
2764.83163	0.06924
2763.86726	0.0689
2762.9029	0.06858
2761.93854	0.06827
2760.97417	0.06797
2760.00981	0.06768
2759.04544	0.06741
2758.08108	0.06716
2757.11672	0.06693
2756.15235	0.06671
2755.18799	0.0665
2754.22362	0.06629
2753.25926	0.06609
2752.2949	0.06592
2751.33053	0.06576
2750.36617	0.06559
2749.4018	0.0654
2748.43744	0.06522
2747.47307	0.06505
2746.50871	0.06489
2745.54435	0.06473
2744.57998	0.06457
2743.61562	0.0644
2742.65125	0.0642
2741.68689	0.064
2740.72253	0.0638
2739.75816	0.06358
2738.7938	0.06335
2737.82943	0.06313
2736.86507	0.06293
2735.90071	0.06271
2734.93634	0.06251
2733.97198	0.06231
2733.00761	0.06211
2732.04325	0.06191
2731.07889	0.06171
2730.11452	0.06151
2729.15016	0.06132
2728.18579	0.06115
2727.22143	0.06098
2726.25707	0.06081
2725.2927	0.06064
2724.32834	0.06049
2723.36397	0.06034
2722.39961	0.06019
2721.43525	0.06003
2720.47088	0.05988
2719.50652	0.05974
2718.54215	0.05961
2717.57779	0.05949
2716.61343	0.05934
2715.64906	0.05918
2714.6847	0.05902
2713.72033	0.05887
2712.75597	0.05871
2711.79161	0.05853
2710.82724	0.05834
2709.86288	0.05816
2708.89851	0.05797
2707.93415	0.05779
2706.96979	0.05761
2706.00542	0.05742
2705.04106	0.05723
2704.07669	0.05704
2703.11233	0.05685
2702.14797	0.05665
2701.1836	0.05645
2700.21924	0.05626
2699.25487	0.05608
2698.29051	0.05591
2697.32615	0.05573
2696.36178	0.05554
2695.39742	0.05535
2694.43305	0.05514
2693.46869	0.05493
2692.50433	0.05471
2691.53996	0.05448
2690.5756	0.05425
2689.61123	0.054
2688.64687	0.05374
2687.68251	0.05349
2686.71814	0.05323
2685.75378	0.05296
2684.78941	0.05269
2683.82505	0.05241
2682.86069	0.05212
2681.89632	0.05183
2680.93196	0.05155
2679.96759	0.05129
2679.00323	0.05104
2678.03887	0.05079
2677.0745	0.05054
2676.11014	0.05031
2675.14577	0.05009
2674.18141	0.04987
2673.21705	0.04966
2672.25268	0.04948
2671.28832	0.04931
2670.32395	0.04915
2669.35959	0.049
2668.39523	0.04886
2667.43086	0.04873
2666.4665	0.04862
2665.50213	0.04854
2664.53777	0.04849
2663.57341	0.04845
2662.60904	0.04845
2661.64468	0.04847
2660.68031	0.04852
2659.71595	0.04859
2658.75159	0.04869
2657.78722	0.04882
2656.82286	0.04897
2655.85849	0.04913
2654.89413	0.0493
2653.92977	0.04946
2652.9654	0.04963
2652.00104	0.04978
2651.03667	0.04993
2650.07231	0.05006
2649.10795	0.05015
2648.14358	0.0502
2647.17922	0.0502
2646.21485	0.05015
2645.25049	0.05005
2644.28613	0.04991
2643.32176	0.04972
2642.3574	0.04951
2641.39303	0.04926
2640.42867	0.04897
2639.46431	0.04864
2638.49994	0.04829
2637.53558	0.04792
2636.57121	0.04754
2635.60685	0.04716
2634.64249	0.04679
2633.67812	0.04642
2632.71376	0.04608
2631.74939	0.04575
2630.78503	0.04546
2629.82067	0.0452
2628.8563	0.04498
2627.89194	0.04479
2626.92757	0.04464
2625.96321	0.04454
2624.99885	0.04445
2624.03448	0.04439
2623.07012	0.04434
2622.10575	0.04432
2621.14139	0.0443
2620.17703	0.04431
2619.21266	0.04432
2618.2483	0.04432
2617.28393	0.04432
2616.31957	0.04432
2615.35521	0.04431
2614.39084	0.04431
2613.42648	0.04429
2612.46211	0.04427
2611.49775	0.04423
2610.53339	0.04418
2609.56902	0.04412
2608.60466	0.04404
2607.64029	0.04395
2606.67593	0.04383
2605.71156	0.04371
2604.7472	0.04357
2603.78284	0.04344
2602.81847	0.0433
2601.85411	0.04313
2600.88974	0.04293
2599.92538	0.04272
2598.96102	0.04248
2597.99665	0.04222
2597.03229	0.04195
2596.06792	0.04167
2595.10356	0.04139
2594.1392	0.0411
2593.17483	0.04081
2592.21047	0.04053
2591.2461	0.04025
2590.28174	0.03998
2589.31738	0.03972
2588.35301	0.03946
2587.38865	0.03921
2586.42428	0.03896
2585.45992	0.03871
2584.49556	0.03846
2583.53119	0.03822
2582.56683	0.03798
2581.60246	0.03774
2580.6381	0.0375
2579.67374	0.03725
2578.70937	0.03698
2577.74501	0.03671
2576.78064	0.03642
2575.81628	0.03614
2574.85192	0.03586
2573.88755	0.03558
2572.92319	0.03531
2571.95882	0.03504
2570.99446	0.03476
2570.0301	0.03449
2569.06573	0.03423
2568.10137	0.03397
2567.137	0.03372
2566.17264	0.03348
2565.20828	0.03325
2564.24391	0.03304
2563.27955	0.03284
2562.31518	0.03265
2561.35082	0.03245
2560.38646	0.03224
2559.42209	0.03204
2558.45773	0.03183
2557.49336	0.03164
2556.529	0.03144
2555.56464	0.03124
2554.60027	0.03104
2553.63591	0.03084
2552.67154	0.03066
2551.70718	0.03047
2550.74282	0.03029
2549.77845	0.03009
2548.81409	0.02989
2547.84972	0.02968
2546.88536	0.02947
2545.921	0.02928
2544.95663	0.02909
2543.99227	0.02891
2543.0279	0.02874
2542.06354	0.02857
2541.09918	0.02841
2540.13481	0.02826
2539.17045	0.0281
2538.20608	0.02793
2537.24172	0.02778
2536.27736	0.02763
2535.31299	0.0275
2534.34863	0.02737
2533.38426	0.02723
2532.4199	0.02709
2531.45554	0.02694
2530.49117	0.02679
2529.52681	0.02664
2528.56244	0.02649
2527.59808	0.02634
2526.63372	0.02618
2525.66935	0.02603
2524.70499	0.02589
2523.74062	0.02576
2522.77626	0.02563
2521.8119	0.0255
2520.84753	0.02537
2519.88317	0.02524
2518.9188	0.02512
2517.95444	0.02502
2516.99008	0.02491
2516.02571	0.02481
2515.06135	0.02471
2514.09698	0.02461
2513.13262	0.02452
2512.16826	0.02443
2511.20389	0.02433
2510.23953	0.02422
2509.27516	0.0241
2508.3108	0.02399
2507.34644	0.02389
2506.38207	0.02381
2505.41771	0.02373
2504.45334	0.02365
2503.48898	0.02357
2502.52462	0.02349
2501.56025	0.02341
2500.59589	0.02332
2499.63152	0.02324
2498.66716	0.02317
2497.7028	0.0231
2496.73843	0.02304
2495.77407	0.02299
2494.8097	0.02293
2493.84534	0.02287
2492.88098	0.02279
2491.91661	0.0227
2490.95225	0.02261
2489.98788	0.02252
2489.02352	0.02243
2488.05916	0.02234
2487.09479	0.02225
2486.13043	0.02217
2485.16606	0.02209
2484.2017	0.02202
2483.23734	0.02195
2482.27297	0.02187
2481.30861	0.02179
2480.34424	0.02171
2479.37988	0.02163
2478.41552	0.02154
2477.45115	0.02145
2476.48679	0.02136
2475.52242	0.02129
2474.55806	0.02122
2473.5937	0.02115
2472.62933	0.02106
2471.66497	0.02097
2470.7006	0.02089
2469.73624	0.02081
2468.77187	0.02072
2467.80751	0.02064
2466.84315	0.02056
2465.87878	0.02049
2464.91442	0.02042
2463.95005	0.02033
2462.98569	0.02023
2462.02133	0.02014
2461.05696	0.02006
2460.0926	0.01999
2459.12823	0.01992
2458.16387	0.01985
2457.19951	0.01979
2456.23514	0.01973
2455.27078	0.01965
2454.30641	0.01957
2453.34205	0.0195
2452.37769	0.01943
2451.41332	0.01938
2450.44896	0.01933
2449.48459	0.01929
2448.52023	0.01925
2447.55587	0.01922
2446.5915	0.01919
2445.62714	0.01916
2444.66277	0.01911
2443.69841	0.01906
2442.73405	0.019
2441.76968	0.01895
2440.80532	0.01888
2439.84095	0.01881
2438.87659	0.01875
2437.91223	0.01868
2436.94786	0.01862
2435.9835	0.01854
2435.01913	0.01845
2434.05477	0.01836
2433.09041	0.01826
2432.12604	0.01818
2431.16168	0.0181
2430.19731	0.01803
2429.23295	0.01797
2428.26859	0.01791
2427.30422	0.01787
2426.33986	0.01782
2425.37549	0.01778
2424.41113	0.01773
2423.44677	0.01769
2422.4824	0.01765
2421.51804	0.01761
2420.55367	0.01757
2419.58931	0.01753
2418.62495	0.01749
2417.66058	0.01746
2416.69622	0.01743
2415.73185	0.01739
2414.76749	0.01735
2413.80313	0.01731
2412.83876	0.01728
2411.8744	0.01725
2410.91003	0.01722
2409.94567	0.01719
2408.98131	0.01717
2408.01694	0.01715
2407.05258	0.01712
2406.08821	0.0171
2405.12385	0.01708
2404.15949	0.01706
2403.19512	0.01704
2402.23076	0.01704
2401.26639	0.01703
2400.30203	0.01701
2399.33767	0.01697
2398.3733	0.01692
2397.40894	0.01685
2396.44457	0.01679
2395.48021	0.01672
2394.51585	0.01668
2393.55148	0.01667
2392.58712	0.01673
2391.62275	0.01687
2390.65839	0.0171
2389.69403	0.01743
2388.72966	0.01786
2387.7653	0.01838
2386.80093	0.01896
2385.83657	0.01956
2384.87221	0.02015
2383.90784	0.02071
2382.94348	0.02124
2381.97911	0.02169
2381.01475	0.02205
2380.05039	0.02227
2379.08602	0.02232
2378.12166	0.02217
2377.15729	0.02179
2376.19293	0.02118
2375.22857	0.02038
2374.2642	0.0194
2373.29984	0.01823
2372.33547	0.01685
2371.37111	0.01529
2370.40675	0.01364
2369.44238	0.012
2368.47802	0.01041
2367.51365	0.00885
2366.54929	0.00736
2365.58493	0.006
2364.62056	0.00482
2363.6562	0.00379
2362.69183	0.00295
2361.72747	0.00239
2360.76311	0.00226
2359.79874	0.00262
2358.83438	0.00342
2357.87001	0.00447
2356.90565	0.00567
2355.94129	0.007
2354.97692	0.00842
2354.01256	0.00981
2353.04819	0.01104
2352.08383	0.01205
2351.11947	0.01281
2350.1551	0.01326
2349.19074	0.01336
2348.22637	0.01313
2347.26201	0.01264
2346.29765	0.0119
2345.33328	0.01089
2344.36892	0.00965
2343.40455	0.00828
2342.44019	0.00692
2341.47583	0.00564
2340.51146	0.00452
2339.5471	0.00369
2338.58273	0.00324
2337.61837	0.0032
2336.65401	0.00347
2335.68964	0.00393
2334.72528	0.00451
2333.76091	0.00527
2332.79655	0.00623
2331.83219	0.00731
2330.86782	0.00844
2329.90346	0.00959
2328.93909	0.01077
2327.97473	0.01195
2327.01036	0.01308
2326.046	0.01408
2325.08164	0.01495
2324.11727	0.01573
2323.15291	0.0164
2322.18854	0.017
2321.22418	0.01756
2320.25982	0.01813
2319.29545	0.0187
2318.33109	0.01924
2317.36672	0.01973
2316.40236	0.02014
2315.438	0.02046
2314.47363	0.02066
2313.50927	0.02073
2312.5449	0.02071
2311.58054	0.02066
2310.61618	0.02059
2309.65181	0.02048
2308.68745	0.02032
2307.72308	0.02011
2306.75872	0.01985
2305.79436	0.01954
2304.82999	0.01913
2303.86563	0.01862
2302.90126	0.01802
2301.9369	0.0174
2300.97254	0.01678
2300.00817	0.01618
2299.04381	0.01562
2298.07944	0.01507
2297.11508	0.01456
2296.15072	0.01406
2295.18635	0.0136
2294.22199	0.01316
2293.25762	0.01273
2292.29326	0.01232
2291.3289	0.01192
2290.36453	0.01156
2289.40017	0.01123
2288.4358	0.01093
2287.47144	0.01066
2286.50708	0.01042
2285.54271	0.0102
2284.57835	0.01
2283.61398	0.00981
2282.64962	0.00963
2281.68526	0.00947
2280.72089	0.00931
2279.75653	0.00916
2278.79216	0.00901
2277.8278	0.00888
2276.86344	0.00877
2275.89907	0.00868
2274.93471	0.00859
2273.97034	0.00852
2273.00598	0.00846
2272.04162	0.00841
2271.07725	0.00836
2270.11289	0.00833
2269.14852	0.00831
2268.18416	0.0083
2267.2198	0.00832
2266.25543	0.00833
2265.29107	0.00833
2264.3267	0.00833
2263.36234	0.00834
2262.39798	0.00835
2261.43361	0.00835
2260.46925	0.00835
2259.50488	0.00834
2258.54052	0.00834
2257.57616	0.00834
2256.61179	0.00833
2255.64743	0.00832
2254.68306	0.0083
2253.7187	0.0083
2252.75434	0.00829
2251.78997	0.00827
2250.82561	0.00825
2249.86124	0.00823
2248.89688	0.00821
2247.93252	0.00819
2246.96815	0.00819
2246.00379	0.00819
2245.03942	0.00818
2244.07506	0.00817
2243.1107	0.00817
2242.14633	0.00817
2241.18197	0.00816
2240.2176	0.00816
2239.25324	0.00815
2238.28888	0.00815
2237.32451	0.00815
2236.36015	0.00817
2235.39578	0.00818
2234.43142	0.00819
2233.46706	0.00822
2232.50269	0.00824
2231.53833	0.00826
2230.57396	0.00828
2229.6096	0.00829
2228.64524	0.00831
2227.68087	0.00834
2226.71651	0.00837
2225.75214	0.00839
2224.78778	0.00841
2223.82342	0.00843
2222.85905	0.00845
2221.89469	0.00847
2220.93032	0.00846
2219.96596	0.00846
2219.0016	0.00846
2218.03723	0.00846
2217.07287	0.00846
2216.1085	0.00847
2215.14414	0.00847
2214.17978	0.00848
2213.21541	0.00849
2212.25105	0.00849
2211.28668	0.00848
2210.32232	0.00848
2209.35796	0.00848
2208.39359	0.00849
2207.42923	0.0085
2206.46486	0.00851
2205.5005	0.00852
2204.53614	0.00854
2203.57177	0.00858
2202.60741	0.00862
2201.64304	0.00866
2200.67868	0.00869
2199.71432	0.00873
2198.74995	0.00878
2197.78559	0.00883
2196.82122	0.00887
2195.85686	0.00892
2194.8925	0.00899
2193.92813	0.00906
2192.96377	0.00913
2191.9994	0.00918
2191.03504	0.00923
2190.07068	0.00927
2189.10631	0.00932
2188.14195	0.00937
2187.17758	0.0094
2186.21322	0.00942
2185.24885	0.00944
2184.28449	0.00946
2183.32013	0.00948
2182.35576	0.00949
2181.3914	0.0095
2180.42703	0.00952
2179.46267	0.00956
2178.49831	0.00958
2177.53394	0.0096
2176.56958	0.0096
2175.60521	0.00962
2174.64085	0.00965
2173.67649	0.00967
2172.71212	0.00969
2171.74776	0.00973
2170.78339	0.00978
2169.81903	0.00984
2168.85467	0.0099
2167.8903	0.00995
2166.92594	0.00998
2165.96157	0.01002
2164.99721	0.01006
2164.03285	0.01008
2163.06848	0.01009
2162.10412	0.01009
2161.13975	0.01008
2160.17539	0.01008
2159.21103	0.01008
2158.24666	0.01007
2157.2823	0.01005
2156.31793	0.01004
2155.35357	0.01004
2154.38921	0.01004
2153.42484	0.01002
2152.46048	0.00999
2151.49611	0.00996
2150.53175	0.00996
2149.56739	0.00998
2148.60302	0.00998
2147.63866	0.00998
2146.67429	0.01003
2145.70993	0.01013
2144.74557	0.01023
2143.7812	0.01031
2142.81684	0.01036
2141.85247	0.01041
2140.88811	0.01045
2139.92375	0.01047
2138.95938	0.01046
2137.99502	0.01043
2137.03065	0.0104
2136.06629	0.01037
2135.10193	0.01033
2134.13756	0.01028
2133.1732	0.01023
2132.20883	0.01018
2131.24447	0.01012
2130.28011	0.01005
2129.31574	0.00995
2128.35138	0.00982
2127.38701	0.00969
2126.42265	0.00958
2125.45829	0.00954
2124.49392	0.00956
2123.52956	0.00964
2122.56519	0.00971
2121.60083	0.00975
2120.63647	0.00977
2119.6721	0.00977
2118.70774	0.00976
2117.74337	0.00975
2116.77901	0.00975
2115.81465	0.00973
2114.85028	0.0097
2113.88592	0.00966
2112.92155	0.00962
2111.95719	0.00959
2110.99283	0.00956
2110.02846	0.00952
2109.0641	0.00947
2108.09973	0.00942
2107.13537	0.00937
2106.17101	0.00931
2105.20664	0.00924
2104.24228	0.00918
2103.27791	0.00916
2102.31355	0.00913
2101.34919	0.00912
2100.38482	0.00918
2099.42046	0.00929
2098.45609	0.00943
2097.49173	0.0096
2096.52737	0.00976
2095.563	0.0099
2094.59864	0.01002
2093.63427	0.01013
2092.66991	0.01022
2091.70555	0.01028
2090.74118	0.0103
2089.77682	0.01031
2088.81245	0.01032
2087.84809	0.01033
2086.88373	0.01032
2085.91936	0.01027
2084.955	0.01022
2083.99063	0.01016
2083.02627	0.0101
2082.06191	0.01002
2081.09754	0.00991
2080.13318	0.00976
2079.16881	0.00961
2078.20445	0.00949
2077.24009	0.00934
2076.27572	0.00928
2075.31136	0.00947
2074.34699	0.00982
2073.38263	0.01015
2072.41827	0.01041
2071.4539	0.01064
2070.48954	0.01088
2069.52517	0.01109
2068.56081	0.01126
2067.59645	0.01138
2066.63208	0.01146
2065.66772	0.01149
2064.70335	0.01148
2063.73899	0.01143
2062.77463	0.01135
2061.81026	0.01123
2060.8459	0.01106
2059.88153	0.01085
2058.91717	0.01058
2057.95281	0.01025
2056.98844	0.00987
2056.02408	0.00944
2055.05971	0.00902
2054.09535	0.00868
2053.13099	0.00857
2052.16662	0.00878
2051.20226	0.00913
2050.23789	0.00946
2049.27353	0.00975
2048.30917	0.01005
2047.3448	0.01033
2046.38044	0.01053
2045.41607	0.01069
2044.45171	0.0108
2043.48734	0.01087
2042.52298	0.01089
2041.55862	0.01086
2040.59425	0.01078
2039.62989	0.01065
2038.66552	0.01045
2037.70116	0.01021
2036.7368	0.00995
2035.77243	0.00964
2034.80807	0.0093
2033.8437	0.00896
2032.87934	0.00864
2031.91498	0.00828
2030.95061	0.00785
2029.98625	0.00749
2029.02188	0.00736
2028.05752	0.00755
2027.09316	0.00805
2026.12879	0.00871
2025.16443	0.00936
2024.20006	0.00991
2023.2357	0.01037
2022.27134	0.01072
2021.30697	0.01097
2020.34261	0.01111
2019.37824	0.01116
2018.41388	0.01117
2017.44952	0.01113
2016.48515	0.01102
2015.52079	0.01082
2014.55642	0.01054
2013.59206	0.01017
2012.6277	0.00969
2011.66333	0.00913
2010.69897	0.00851
2009.7346	0.00785
2008.77024	0.00716
2007.80588	0.0065
2006.84151	0.00597
2005.87715	0.00561
2004.91278	0.00531
2003.94842	0.00501
2002.98406	0.0051
2002.01969	0.00569
2001.05533	0.00634
2000.09096	0.00692
1999.1266	0.00764
1998.16224	0.00855
1997.19787	0.00947
1996.23351	0.01031
1995.26914	0.01103
1994.30478	0.01159
1993.34042	0.01196
1992.37605	0.01216
1991.41169	0.0122
1990.44732	0.01208
1989.48296	0.01178
1988.5186	0.01134
1987.55423	0.01079
1986.58987	0.01015
1985.6255	0.00938
1984.66114	0.00842
1983.69678	0.00731
1982.73241	0.00606
1981.76805	0.00486
1980.80368	0.00403
1979.83932	0.00362
1978.87496	0.00326
1977.91059	0.00314
1976.94623	0.00367
1975.98186	0.00475
1975.0175	0.00584
1974.05314	0.00667
1973.08877	0.00728
1972.12441	0.00782
1971.16004	0.00832
1970.19568	0.00874
1969.23132	0.00903
1968.26695	0.00917
1967.30259	0.00912
1966.33822	0.00901
1965.37386	0.00896
1964.4095	0.00892
1963.44513	0.00877
1962.48077	0.00848
1961.5164	0.00805
1960.55204	0.00747
1959.58768	0.0067
1958.62331	0.00566
1957.65895	0.00445
1956.69458	0.0035
1955.73022	0.00304
1954.76586	0.00291
1953.80149	0.00318
1952.83713	0.00418
1951.87276	0.00558
1950.9084	0.00693
1949.94404	0.00815
1948.97967	0.00922
1948.01531	0.01008
1947.05094	0.01067
1946.08658	0.011
1945.12222	0.0111
1944.15785	0.0111
1943.19349	0.01113
1942.22912	0.01109
1941.26476	0.01082
1940.3004	0.01026
1939.33603	0.00948
1938.37167	0.00847
1937.4073	0.00724
1936.44294	0.0056
1935.47858	0.00341
1934.51421	0.00123
1933.54985	1.11901E-4
1932.58548	0
1931.62112	3.91898E-4
1930.65676	0.00131
1929.69239	0.00266
1928.72803	0.00435
1927.76366	0.00625
1926.7993	0.0081
1925.83494	0.00974
1924.87057	0.01111
1923.90621	0.01213
1922.94184	0.01263
1921.97748	0.01268
1921.01312	0.01267
1920.04875	0.01285
1919.08439	0.01317
1918.12002	0.01351
1917.15566	0.01365
1916.1913	0.0134
1915.22693	0.01278
1914.26257	0.01179
1913.2982	0.01048
1912.33384	0.00917
1911.36948	0.0085
1910.40511	0.00857
1909.44075	0.00843
1908.47638	0.00749
1907.51202	0.00608
1906.54766	0.0053
1905.58329	0.00576
1904.61893	0.00654
1903.65456	0.00684
1902.6902	0.00649
1901.72583	0.00555
1900.76147	0.00472
1899.79711	0.00469
1898.83274	0.00537
1897.86838	0.00653
1896.90401	0.00784
1895.93965	0.00915
1894.97529	0.01041
1894.01092	0.01142
1893.04656	0.01212
1892.08219	0.01259
1891.11783	0.01278
1890.15347	0.01276
1889.1891	0.01255
1888.22474	0.01211
1887.26037	0.01138
1886.29601	0.0104
1885.33165	0.00921
1884.36728	0.00797
1883.40292	0.00688
1882.43855	0.00564
1881.47419	0.00364
1880.50983	0.00133
1879.54546	1.66695E-4
1878.5811	0.00101
1877.61673	0.00397
1876.65237	0.00802
1875.68801	0.01174
1874.72364	0.01478
1873.75928	0.01733
1872.79491	0.01966
1871.83055	0.02174
1870.86619	0.02334
1869.90182	0.02448
1868.93746	0.02534
1867.97309	0.02591
1867.00873	0.02608
1866.04437	0.02574
1865.08	0.02484
1864.11564	0.02342
1863.15127	0.02148
1862.18691	0.019
1861.22255	0.01581
1860.25818	0.01192
1859.29382	0.008
1858.32945	0.00507
1857.36509	0.00362
1856.40073	0.00358
1855.43636	0.00502
1854.472	0.00804
1853.50763	0.01174
1852.54327	0.01539
1851.57891	0.01869
1850.61454	0.02149
1849.65018	0.02375
1848.68581	0.02573
1847.72145	0.02781
1846.75709	0.02994
1845.79272	0.03175
1844.82836	0.03299
1843.86399	0.03358
1842.89963	0.03315
1841.93527	0.03143
1840.9709	0.02981
1840.00654	0.02975
1839.04217	0.03026
1838.07781	0.03011
1837.11345	0.02925
1836.14908	0.02908
1835.18472	0.02999
1834.22035	0.03123
1833.25599	0.03301
1832.29163	0.03606
1831.32726	0.03968
1830.3629	0.04245
1829.39853	0.04415
1828.43417	0.04511
1827.46981	0.04564
1826.50544	0.04589
1825.54108	0.04603
1824.57671	0.04586
1823.61235	0.04493
1822.64799	0.0435
1821.68362	0.04252
1820.71926	0.04227
1819.75489	0.04248
1818.79053	0.04388
1817.82617	0.04772
1816.8618	0.05316
1815.89744	0.05806
1814.93307	0.06207
1813.96871	0.06603
1813.00435	0.07103
1812.03998	0.07655
1811.07562	0.08202
1810.11125	0.08758
1809.14689	0.09252
1808.18253	0.09617
1807.21816	0.09901
1806.2538	0.10167
1805.28943	0.1036
1804.32507	0.10407
1803.36071	0.10402
1802.39634	0.10483
1801.43198	0.1065
1800.46761	0.10859
1799.50325	0.11089
1798.53889	0.11322
1797.57452	0.11487
1796.61016	0.11576
1795.64579	0.11677
1794.68143	0.11789
1793.71707	0.11828
1792.7527	0.11766
1791.78834	0.11682
1790.82397	0.11678
1789.85961	0.11769
1788.89525	0.11879
1787.93088	0.11946
1786.96652	0.11958
1786.00215	0.11897
1785.03779	0.1175
1784.07343	0.11563
1783.10906	0.11566
1782.1447	0.11812
1781.18033	0.12205
1780.21597	0.12757
1779.25161	0.13447
1778.28724	0.14149
1777.32288	0.14729
1776.35851	0.15129
1775.39415	0.15335
1774.42979	0.1534
1773.46542	0.15232
1772.50106	0.1518
1771.53669	0.15122
1770.57233	0.1494
1769.60797	0.14643
1768.6436	0.14326
1767.67924	0.14059
1766.71487	0.13779
1765.75051	0.13392
1764.78615	0.12884
1763.82178	0.12311
1762.85742	0.11756
1761.89305	0.1135
1760.92869	0.11222
1759.96432	0.11528
1758.99996	0.12143
1758.0356	0.12847
1757.07123	0.13577
1756.10687	0.1429
1755.1425	0.14929
1754.17814	0.15503
1753.21378	0.15962
1752.24941	0.16207
1751.28505	0.16291
1750.32068	0.1642
1749.35632	0.16604
1748.39196	0.16622
1747.42759	0.16349
1746.46323	0.1576
1745.49886	0.15039
1744.5345	0.14627
1743.57014	0.14315
1742.60577	0.13875
1741.64141	0.1334
1740.67704	0.12882
1739.71268	0.1257
1738.74832	0.12376
1737.78395	0.12202
1736.81959	0.12023
1735.85522	0.11817
1734.89086	0.11521
1733.9265	0.11123
1732.96213	0.10641
1731.99777	0.1011
1731.0334	0.09495
1730.06904	0.08619
1729.10468	0.07679
1728.14031	0.07053
1727.17595	0.06683
1726.21158	0.06429
1725.24722	0.06306
1724.28286	0.0628
1723.31849	0.0633
1722.35413	0.066
1721.38976	0.07191
1720.4254	0.07725
1719.46104	0.08125
1718.49667	0.08451
1717.53231	0.0879
1716.56794	0.0914
1715.60358	0.09484
1714.63922	0.09803
1713.67485	0.10029
1712.71049	0.10095
1711.74612	0.10016
1710.78176	0.10086
1709.8174	0.10204
1708.85303	0.10245
1707.88867	0.10241
1706.9243	0.10515
1705.95994	0.11299
1704.99558	0.12412
1704.03121	0.13507
1703.06685	0.14546
1702.10248	0.15472
1701.13812	0.16185
1700.17376	0.16722
1699.20939	0.17162
1698.24503	0.17506
1697.28066	0.1763
1696.3163	0.17359
1695.35194	0.17169
1694.38757	0.17432
1693.42321	0.17809
1692.45884	0.1804
1691.49448	0.18092
1690.53012	0.18027
1689.56575	0.1782
1688.60139	0.17512
1687.63702	0.17222
1686.67266	0.16816
1685.7083	0.16441
1684.74393	0.16135
1683.77957	0.15891
1682.8152	0.15513
1681.85084	0.14935
1680.88648	0.14251
1679.92211	0.13667
1678.95775	0.13234
1677.99338	0.12882
1677.02902	0.12537
1676.06466	0.12095
1675.10029	0.11473
1674.13593	0.10778
1673.17156	0.10323
1672.2072	0.10431
1671.24284	0.10747
1670.27847	0.10787
1669.31411	0.10661
1668.34974	0.10486
1667.38538	0.10214
1666.42102	0.09682
1665.45665	0.08841
1664.49229	0.08225
1663.52792	0.08284
1662.56356	0.08633
1661.5992	0.08941
1660.63483	0.09104
1659.67047	0.09136
1658.7061	0.09217
1657.74174	0.09712
1656.77738	0.10658
1655.81301	0.11643
1654.84865	0.12415
1653.88428	0.12948
1652.91992	0.13289
1651.95556	0.13505
1650.99119	0.13669
1650.02683	0.13741
1649.06246	0.1355
1648.0981	0.13093
1647.13374	0.12556
1646.16937	0.12167
1645.20501	0.11824
1644.24064	0.11439
1643.27628	0.11026
1642.31192	0.10723
1641.34755	0.10805
1640.38319	0.10972
1639.41882	0.10777
1638.45446	0.10456
1637.4901	0.10074
1636.52573	0.0968
1635.56137	0.09437
1634.597	0.09533
1633.63264	0.09815
1632.66828	0.10006
1631.70391	0.10048
1630.73955	0.09938
1629.77518	0.09668
1628.81082	0.09235
1627.84646	0.08829
1626.88209	0.08602
1625.91773	0.08529
1624.95336	0.08646
1623.989	0.08987
1623.02464	0.09427
1622.06027	0.09662
1621.09591	0.09695
1620.13154	0.09615
1619.16718	0.0946
1618.20281	0.09257
1617.23845	0.09043
1616.27409	0.0884
1615.30972	0.08632
1614.34536	0.0835
1613.38099	0.08015
1612.41663	0.07716
1611.45227	0.07572
1610.4879	0.07522
1609.52354	0.07365
1608.55917	0.07071
1607.59481	0.06684
1606.63045	0.06283
1605.66608	0.06002
1604.70172	0.05973
1603.73735	0.06046
1602.77299	0.06012
1601.80863	0.05881
1600.84426	0.05701
1599.8799	0.05498
1598.91553	0.05286
1597.95117	0.05098
1596.98681	0.04954
1596.02244	0.04829
1595.05808	0.04719
1594.09371	0.04605
1593.12935	0.04462
1592.16499	0.04315
1591.20062	0.04198
1590.23626	0.04077
1589.27189	0.03891
1588.30753	0.0363
1587.34317	0.03513
1586.3788	0.03666
1585.41444	0.03972
1584.45007	0.0434
1583.48571	0.04715
1582.52135	0.05036
1581.55698	0.0524
1580.59262	0.05506
1579.62825	0.0598
1578.66389	0.06532
1577.69953	0.07036
1576.73516	0.07456
1575.7708	0.0787
1574.80643	0.08297
1573.84207	0.08653
1572.87771	0.08866
1571.91334	0.08834
1570.94898	0.08366
1569.98461	0.0828
1569.02025	0.08889
1568.05589	0.09661
1567.09152	0.10391
1566.12716	0.11098
1565.16279	0.11989
1564.19843	0.13116
1563.23407	0.14167
1562.2697	0.14847
1561.30534	0.15263
1560.34097	0.15597
1559.37661	0.15802
1558.41225	0.15842
1557.44788	0.15776
1556.48352	0.15507
1555.51915	0.15004
1554.55479	0.14367
1553.59043	0.13666
1552.62606	0.12968
1551.6617	0.12218
1550.69733	0.11751
1549.73297	0.11641
1548.76861	0.11651
1547.80424	0.11855
1546.83988	0.12725
1545.87551	0.1362
1544.91115	0.14073
1543.94679	0.14497
1542.98242	0.15001
1542.01806	0.15508
1541.05369	0.15744
1540.08933	0.15594
1539.12497	0.15221
1538.1606	0.14842
1537.19624	0.14427
1536.23187	0.13834
1535.26751	0.13036
1534.30315	0.12031
1533.33878	0.10954
1532.37442	0.10308
1531.41005	0.10149
1530.44569	0.10192
1529.48133	0.10318
1528.51696	0.10611
1527.5526	0.11469
1526.58823	0.12489
1525.62387	0.13228
1524.65951	0.1367
1523.69514	0.13877
1522.73078	0.13994
1521.76641	0.14123
1520.80205	0.14193
1519.83769	0.1401
1518.87332	0.13564
1517.90896	0.13385
1516.94459	0.13775
1515.98023	0.14401
1515.01587	0.1504
1514.0515	0.15549
1513.08714	0.1592
1512.12277	0.16119
1511.15841	0.16132
1510.19405	0.16145
1509.22968	0.16438
1508.26532	0.1673
1507.30095	0.16836
1506.33659	0.16916
1505.37223	0.17094
1504.40786	0.17411
1503.4435	0.17522
1502.47913	0.17209
1501.51477	0.16628
1500.55041	0.16139
1499.58604	0.15764
1498.62168	0.15427
1497.65731	0.1519
1496.69295	0.1516
1495.72859	0.15448
1494.76422	0.16191
1493.79986	0.1692
1492.83549	0.17185
1491.87113	0.17196
1490.90677	0.17049
1489.9424	0.16763
1488.97804	0.16315
1488.01367	0.1572
1487.04931	0.15144
1486.08495	0.14665
1485.12058	0.14197
1484.15622	0.13854
1483.19185	0.13862
1482.22749	0.14042
1481.26312	0.14223
1480.29876	0.14361
1479.3344	0.14527
1478.37003	0.1488
1477.40567	0.1541
1476.4413	0.15913
1475.47694	0.16493
1474.51258	0.17134
1473.54821	0.17681
1472.58385	0.18043
1471.61948	0.18193
1470.65512	0.18134
1469.69076	0.17975
1468.72639	0.17968
1467.76203	0.18265
1466.79766	0.18754
1465.8333	0.19328
1464.86894	0.1991
1463.90457	0.20471
1462.94021	0.2097
1461.97584	0.21425
1461.01148	0.21949
1460.04712	0.22544
1459.08275	0.2296
1458.11839	0.23163
1457.15402	0.23156
1456.18966	0.22946
1455.2253	0.22553
1454.26093	0.22013
1453.29657	0.21414
1452.3322	0.20789
1451.36784	0.19993
1450.40348	0.18957
1449.43911	0.17695
1448.47475	0.16289
1447.51038	0.15085
1446.54602	0.14355
1445.58166	0.14151
1444.61729	0.14291
1443.65293	0.14482
1442.68856	0.146
1441.7242	0.14623
1440.75984	0.14666
1439.79547	0.14801
1438.83111	0.14958
1437.86674	0.15075
1436.90238	0.15162
1435.93802	0.1528
1434.97365	0.15485
1434.00929	0.15741
1433.04492	0.15953
1432.08056	0.16036
1431.1162	0.15967
1430.15183	0.15909
1429.18747	0.15975
1428.2231	0.16133
1427.25874	0.16345
1426.29438	0.16583
1425.33001	0.16876
1424.36565	0.17282
1423.40128	0.17651
1422.43692	0.17892
1421.47256	0.18057
1420.50819	0.1817
1419.54383	0.18217
1418.57946	0.18207
1417.6151	0.18145
1416.65074	0.18002
1415.68637	0.17814
1414.72201	0.17586
1413.75764	0.17286
1412.79328	0.16941
1411.82892	0.16589
1410.86455	0.16157
1409.90019	0.15667
1408.93582	0.1524
1407.97146	0.14947
1407.0071	0.1488
1406.04273	0.15064
1405.07837	0.15449
1404.114	0.15902
1403.14964	0.16299
1402.18528	0.16606
1401.22091	0.16836
1400.25655	0.16997
1399.29218	0.17098
1398.32782	0.17235
1397.36346	0.17458
1396.39909	0.17682
1395.43473	0.17831
1394.47036	0.17907
1393.506	0.17975
1392.54164	0.18046
1391.57727	0.18019
1390.61291	0.17856
1389.64854	0.17612
1388.68418	0.17347
1387.71982	0.17103
1386.75545	0.16928
1385.79109	0.16843
1384.82672	0.16915
1383.86236	0.17197
1382.898	0.17684
1381.93363	0.18227
1380.96927	0.18659
1380.0049	0.19018
1379.04054	0.19389
1378.07618	0.19759
1377.11181	0.20085
1376.14745	0.2038
1375.18308	0.20691
1374.21872	0.21021
1373.25436	0.21353
1372.28999	0.21659
1371.32563	0.2191
1370.36126	0.22067
1369.3969	0.22109
1368.43254	0.22039
1367.46817	0.21865
1366.50381	0.21609
1365.53944	0.21298
1364.57508	0.20937
1363.61072	0.20568
1362.64635	0.20274
1361.68199	0.20055
1360.71762	0.19808
1359.75326	0.19498
1358.7889	0.19147
1357.82453	0.18796
1356.86017	0.18493
1355.8958	0.18223
1354.93144	0.17926
1353.96708	0.17576
1353.00271	0.17166
1352.03835	0.16763
1351.07398	0.16572
1350.10962	0.16685
1349.14526	0.16959
1348.18089	0.17278
1347.21653	0.17613
1346.25216	0.17956
1345.2878	0.18285
1344.32344	0.18583
1343.35907	0.18867
1342.39471	0.19144
1341.43034	0.19383
1340.46598	0.19565
1339.50161	0.19694
1338.53725	0.19781
1337.57289	0.19839
1336.60852	0.19861
1335.64416	0.19821
1334.67979	0.19714
1333.71543	0.19545
1332.75107	0.1931
1331.7867	0.19006
1330.82234	0.18655
1329.85797	0.18315
1328.89361	0.18079
1327.92925	0.18042
1326.96488	0.18159
1326.00052	0.18284
1325.03615	0.18369
1324.07179	0.18444
1323.10743	0.18516
1322.14306	0.18562
1321.1787	0.18562
1320.21433	0.18512
1319.24997	0.1843
1318.28561	0.18333
1317.32124	0.1822
1316.35688	0.18079
1315.39251	0.17905
1314.42815	0.17705
1313.46379	0.17483
1312.49942	0.17246
1311.53506	0.16996
1310.57069	0.16733
1309.60633	0.16464
1308.64197	0.1622
1307.6776	0.16041
1306.71324	0.15933
1305.74887	0.15861
1304.78451	0.15806
1303.82015	0.15762
1302.85578	0.1573
1301.89142	0.1573
1300.92705	0.15769
1299.96269	0.15827
1298.99833	0.15885
1298.03396	0.15949
1297.0696	0.16023
1296.10523	0.161
1295.14087	0.16171
1294.17651	0.16225
1293.21214	0.16255
1292.24778	0.1626
1291.28341	0.1624
1290.31905	0.162
1289.35469	0.16141
1288.39032	0.16057
1287.42596	0.15942
1286.46159	0.15795
1285.49723	0.15624
1284.53287	0.15431
1283.5685	0.15214
1282.60414	0.14978
1281.63977	0.14731
1280.67541	0.14482
1279.71105	0.14239
1278.74668	0.14003
1277.78232	0.13774
1276.81795	0.13559
1275.85359	0.13376
1274.88923	0.13219
1273.92486	0.13067
1272.9605	0.12909
1271.99613	0.12761
1271.03177	0.12648
1270.06741	0.12582
1269.10304	0.12551
1268.13868	0.12545
1267.17431	0.12561
1266.20995	0.12599
1265.24559	0.12665
1264.28122	0.12759
1263.31686	0.12876
1262.35249	0.13019
1261.38813	0.13199
1260.42377	0.13432
1259.4594	0.13717
1258.49504	0.14035
1257.53067	0.14368
1256.56631	0.14709
1255.60195	0.15054
1254.63758	0.15398
1253.67322	0.15726
1252.70885	0.16027
1251.74449	0.16296
1250.78013	0.16533
1249.81576	0.16731
1248.8514	0.1689
1247.88703	0.17004
1246.92267	0.17061
1245.95831	0.17052
1244.99394	0.16977
1244.02958	0.16834
1243.06521	0.16633
1242.10085	0.16388
1241.13649	0.16112
1240.17212	0.15806
1239.20776	0.1547
1238.24339	0.15109
1237.27903	0.14733
1236.31467	0.14354
1235.3503	0.13971
1234.38594	0.13576
1233.42157	0.13173
1232.45721	0.12781
1231.49285	0.1241
1230.52848	0.12054
1229.56412	0.11714
1228.59975	0.11397
1227.63539	0.11114
1226.67103	0.10867
1225.70666	0.10648
1224.7423	0.1045
1223.77793	0.10282
1222.81357	0.10161
1221.84921	0.10094
1220.88484	0.10073
1219.92048	0.1009
1218.95611	0.10148
1217.99175	0.10257
1217.02739	0.10417
1216.06302	0.10616
1215.09866	0.10844
1214.13429	0.11104
1213.16993	0.11408
1212.20557	0.11755
1211.2412	0.12128
1210.27684	0.12515
1209.31247	0.12915
1208.34811	0.13324
1207.38375	0.13729
1206.41938	0.14103
1205.45502	0.14421
1204.49065	0.14671
1203.52629	0.14857
1202.56193	0.14978
1201.59756	0.15027
1200.6332	0.15003
1199.66883	0.14913
1198.70447	0.14774
1197.7401	0.14598
1196.77574	0.14392
1195.81138	0.14163
1194.84701	0.13929
1193.88265	0.13717
1192.91828	0.13542
1191.95392	0.13411
1190.98956	0.13332
1190.02519	0.13327
1189.06083	0.13416
1188.09646	0.13605
1187.1321	0.13882
1186.16774	0.14237
1185.20337	0.14676
1184.23901	0.15207
1183.27464	0.15825
1182.31028	0.16519
1181.34592	0.17287
1180.38155	0.18143
1179.41719	0.19104
1178.45282	0.20173
1177.48846	0.2134
1176.5241	0.22605
1175.55973	0.23981
1174.59537	0.2548
1173.631	0.27093
1172.66664	0.28801
1171.70228	0.30594
1170.73791	0.32472
1169.77355	0.34429
1168.80918	0.36439
1167.84482	0.38466
1166.88046	0.40478
1165.91609	0.42455
1164.95173	0.44374
1163.98736	0.46207
1163.023	0.47922
1162.05864	0.49495
1161.09427	0.50908
1160.12991	0.52148
1159.16554	0.53197
1158.20118	0.54037
1157.23682	0.54661
1156.27245	0.55077
1155.30809	0.55299
1154.34372	0.55334
1153.37936	0.55183
1152.415	0.54858
1151.45063	0.54385
1150.48627	0.53792
1149.5219	0.531
1148.55754	0.52324
1147.59318	0.5149
1146.62881	0.50631
1145.66445	0.49782
1144.70008	0.48968
1143.73572	0.48203
1142.77136	0.47505
1141.80699	0.46896
1140.84263	0.46396
1139.87826	0.46008
1138.9139	0.45729
1137.94954	0.4556
1136.98517	0.45507
1136.02081	0.45571
1135.05644	0.45737
1134.09208	0.45984
1133.12772	0.46294
1132.16335	0.4666
1131.19899	0.47069
1130.23462	0.47499
1129.27026	0.47932
1128.3059	0.48362
1127.34153	0.48799
1126.37717	0.49259
1125.4128	0.49747
1124.44844	0.50266
1123.48408	0.50824
1122.51971	0.51433
1121.55535	0.52089
1120.59098	0.52773
1119.62662	0.53457
1118.66226	0.54122
1117.69789	0.54763
1116.73353	0.55376
1115.76916	0.55943
1114.8048	0.56444
1113.84044	0.56864
1112.87607	0.572
1111.91171	0.57447
1110.94734	0.57596
1109.98298	0.57636
1109.01862	0.57572
1108.05425	0.57423
1107.08989	0.57212
1106.12552	0.56962
1105.16116	0.56696
1104.1968	0.56446
1103.23243	0.5625
1102.26807	0.56138
1101.3037	0.56127
1100.33934	0.56228
1099.37498	0.56453
1098.41061	0.56817
1097.44625	0.57325
1096.48188	0.57975
1095.51752	0.58759
1094.55316	0.59675
1093.58879	0.60717
1092.62443	0.61869
1091.66006	0.63097
1090.6957	0.64365
1089.73134	0.65636
1088.76697	0.66867
1087.80261	0.68008
1086.83824	0.68997
1085.87388	0.69782
1084.90952	0.70324
1083.94515	0.70598
1082.98079	0.70584
1082.01642	0.70272
1081.05206	0.69671
1080.0877	0.68815
1079.12333	0.6775
1078.15897	0.66528
1077.1946	0.65206
1076.23024	0.63846
1075.26588	0.62513
1074.30151	0.61275
1073.33715	0.60192
1072.37278	0.59309
1071.40842	0.58664
1070.44406	0.58289
1069.47969	0.58208
1068.51533	0.58423
1067.55096	0.58918
1066.5866	0.59663
1065.62224	0.60629
1064.65787	0.6178
1063.69351	0.63074
1062.72914	0.64463
1061.76478	0.65907
1060.80042	0.67375
1059.83605	0.68848
1058.87169	0.70306
1057.90732	0.71733
1056.94296	0.73117
1055.97859	0.74458
1055.01423	0.75756
1054.04987	0.77011
1053.0855	0.78218
1052.12114	0.79379
1051.15677	0.805
1050.19241	0.8159
1049.22805	0.82647
1048.26368	0.83671
1047.29932	0.84665
1046.33495	0.85641
1045.37059	0.86606
1044.40623	0.87565
1043.44186	0.88523
1042.4775	0.89489
1041.51313	0.90472
1040.54877	0.91473
1039.58441	0.92488
1038.62004	0.93509
1037.65568	0.94526
1036.69131	0.95529
1035.72695	0.96494
1034.76259	0.97395
1033.79822	0.98206
1032.83386	0.98902
1031.86949	0.99455
1030.90513	0.99832
1029.94077	1
1028.9764	0.99931
1028.01204	0.99607
1027.04767	0.99013
1026.08331	0.98139
1025.11895	0.96986
1024.15458	0.95572
1023.19022	0.93928
1022.22585	0.92093
1021.26149	0.90104
1020.29713	0.87997
1019.33276	0.85813
1018.3684	0.83601
1017.40403	0.81404
1016.43967	0.79252
1015.47531	0.77167
1014.51094	0.7517
1013.54658	0.73284
1012.58221	0.71514
1011.61785	0.69855
1010.65349	0.68293
1009.68912	0.66818
1008.72476	0.65413
1007.76039	0.64058
1006.79603	0.62723
1005.83167	0.61386
1004.8673	0.60034
1003.90294	0.5866
1002.93857	0.5726
1001.97421	0.55825
1001.00985	0.54355
1000.04548	0.5286
999.08112	0.51351
998.11675	0.49833
997.15239	0.48308
996.18803	0.46785
995.22366	0.45281
994.2593	0.43816
993.29493	0.42404
992.33057	0.41052
991.36621	0.39773
990.40184	0.38577
989.43748	0.37465
988.47311	0.36429
987.50875	0.35452
986.54439	0.34518
985.58002	0.33613
984.61566	0.32726
983.65129	0.31845
982.68693	0.30956
981.72257	0.30052
980.7582	0.29132
979.79384	0.28199
978.82947	0.27249
977.86511	0.26278
976.90075	0.25279
975.93638	0.24253
974.97202	0.23205
974.00765	0.2214
973.04329	0.21059
972.07893	0.19974
971.11456	0.18906
970.1502	0.17879
969.18583	0.16907
968.22147	0.15997
967.25711	0.15148
966.29274	0.14366
965.32838	0.13657
964.36401	0.13024
963.39965	0.12459
962.43529	0.11966
961.47092	0.11558
960.50656	0.11247
959.54219	0.11036
958.57783	0.10919
957.61347	0.10891
956.6491	0.10953
955.68474	0.11104
954.72037	0.1133
953.75601	0.11608
952.79165	0.11919
951.82728	0.12252
950.86292	0.12601
949.89855	0.12951
948.93419	0.1328
947.96983	0.13569
947.00546	0.13813
946.0411	0.14013
945.07673	0.14164
944.11237	0.14254
943.14801	0.14278
942.18364	0.1425
941.21928	0.14185
940.25491	0.14091
939.29055	0.13969
938.32619	0.13824
937.36182	0.1367
936.39746	0.13521
935.43309	0.13374
934.46873	0.1322
933.50437	0.13056
932.54	0.12888
931.57564	0.12722
930.61127	0.12551
929.64691	0.12358
928.68255	0.12137
927.71818	0.11891
926.75382	0.11626
925.78945	0.11335
924.82509	0.11006
923.86073	0.1064
922.89636	0.10252
921.932	0.09855
920.96763	0.0945
920.00327	0.09032
919.03891	0.08604
918.07454	0.08185
917.11018	0.07788
916.14581	0.07415
915.18145	0.07058
914.21708	0.06715
913.25272	0.06393
912.28836	0.061
911.32399	0.05831
910.35963	0.05575
909.39526	0.05328
908.4309	0.05101
907.46654	0.04904
906.50217	0.04733
905.53781	0.04572
904.57344	0.04419
903.60908	0.04285
902.64472	0.04182
901.68035	0.04103
900.71599	0.04033
899.75162	0.03965
898.78726	0.03912
897.8229	0.03881
896.85853	0.0386
895.89417	0.0383
894.9298	0.03783
893.96544	0.03732
893.00108	0.03686
892.03671	0.03632
891.07235	0.03553
890.10798	0.03447
889.14362	0.03333
888.17926	0.03224
887.21489	0.03117
886.25053	0.03
885.28616	0.02877
884.3218	0.02767
883.35744	0.02685
882.39307	0.02626
881.42871	0.02576
880.46434	0.02539
879.49998	0.02537
878.53562	0.02588
877.57125	0.02686
876.60689	0.02823
875.64252	0.03002
874.67816	0.03241
873.7138	0.03542
872.74943	0.03884
871.78507	0.04242
870.8207	0.04614
869.85634	0.05009
868.89198	0.05428
867.92761	0.05853
866.96325	0.06266
865.99888	0.06664
865.03452	0.07056
864.07016	0.07439
863.10579	0.07793
862.14143	0.08095
861.17706	0.08348
860.2127	0.08564
859.24834	0.08747
858.28397	0.08881
857.31961	0.08955
856.35524	0.08981
855.39088	0.08984
854.42652	0.08977
853.46215	0.08953
852.49779	0.08896
851.53342	0.08812
850.56906	0.08716
849.6047	0.0861
848.64033	0.0848
847.67597	0.08314
846.7116	0.08121
845.74724	0.07921
844.78288	0.07719
843.81851	0.07498
842.85415	0.0724
841.88978	0.06948
840.92542	0.06644
839.96106	0.06335
838.99669	0.0601
838.03233	0.05661
837.06796	0.05296
836.1036	0.04937
835.13924	0.04591
834.17487	0.04247
833.21051	0.03899
832.24614	0.03565
831.28178	0.03269
830.31742	0.03016
829.35305	0.02786
828.38869	0.02566
827.42432	0.0237
826.45996	0.02215
825.4956	0.02096
824.53123	0.0199
823.56687	0.01882
822.6025	0.01785
821.63814	0.01714
820.67378	0.01664
819.70941	0.01615
818.74505	0.01557
817.78068	0.01507
816.81632	0.01485
815.85196	0.01487
814.88759	0.01488
813.92323	0.01478
812.95886	0.01474
811.9945	0.01493
811.03014	0.01535
810.06577	0.01581
809.10141	0.01625
808.13704	0.0168
807.17268	0.01759
806.20832	0.01851
805.24395	0.01937
804.27959	0.02008
803.31522	0.02078
802.35086	0.02161
801.3865	0.0225
800.42213	0.02328
799.45777	0.02391
798.4934	0.02457
797.52904	0.0254
796.56468	0.02633
795.60031	0.02712
794.63595	0.02777
793.67158	0.02842
792.70722	0.02912
791.74286	0.02971
790.77849	0.03004
789.81413	0.03014
788.84976	0.03026
787.8854	0.03056
786.92104	0.03097
785.95667	0.03131
784.99231	0.03158
784.02794	0.03198
783.06358	0.03269
782.09922	0.03359
781.13485	0.03461
780.17049	0.03584
779.20612	0.03752
778.24176	0.03965
777.2774	0.04204
776.31303	0.04448
775.34867	0.04699
774.3843	0.04976
773.41994	0.05281
772.45557	0.05597
771.49121	0.05908
770.52685	0.06216
769.56248	0.06533
768.59812	0.06858
767.63375	0.07173
766.66939	0.07463
765.70503	0.07734
764.74066	0.07999
763.7763	0.08253
762.81193	0.08468
761.84757	0.08623
760.88321	0.08728
759.91884	0.08802
758.95448	0.08848
757.99011	0.08845
757.02575	0.08776
756.06139	0.08651
755.09702	0.08491
754.13266	0.08304
753.16829	0.08079
752.20393	0.0782
751.23957	0.07553
750.2752	0.07308
749.31084	0.07091
748.34647	0.06893
747.38211	0.06706
746.41775	0.06544
745.45338	0.06427
744.48902	0.06357
743.52465	0.06321
742.56029	0.06311
741.59593	0.06334
740.63156	0.06395
739.6672	0.0648
738.70283	0.06566
737.73847	0.06651
736.77411	0.06754
735.80974	0.06886
734.84538	0.07034
733.88101	0.07177
732.91665	0.07306
731.95229	0.07434
730.98792	0.07566
730.02356	0.07688
729.05919	0.07785
728.09483	0.0786
727.13047	0.07937
726.1661	0.08026
725.20174	0.08119
724.23737	0.08203
723.27301	0.08287
722.30865	0.08398
721.34428	0.0854
720.37992	0.08695
719.41555	0.08844
718.45119	0.08995
717.48683	0.09167
716.52246	0.0937
715.5581	0.09592
714.59373	0.0982
713.62937	0.1005
712.66501	0.10285
711.70064	0.10515
710.73628	0.10705
709.77191	0.10834
708.80755	0.10917
707.84319	0.10983
706.87882	0.11039
705.91446	0.11083
704.95009	0.11129
703.98573	0.11195
703.02137	0.11285
702.057	0.11375
701.09264	0.1143
700.12827	0.11438
699.16391	0.11418
698.19955	0.11389
697.23518	0.11341
696.27082	0.11253
695.30645	0.11123
694.34209	0.10971
693.37773	0.10821
692.41336	0.10662
691.449	0.10465
690.48463	0.10223
689.52027	0.09961
688.55591	0.09706
687.59154	0.09455
686.62718	0.09198
685.66281	0.08948
684.69845	0.08737
683.73409	0.08595
682.76972	0.08519
681.80536	0.08486
680.84099	0.08476
679.87663	0.08501
678.91227	0.08587
677.9479	0.08678
676.98354	0.08757
676.01917	0.08832
675.05481	0.08916
674.09045	0.09013
673.12608	0.09106
672.16172	0.09175
671.19735	0.09223
670.23299	0.09283
669.26863	0.09367
668.30426	0.09451
667.3399	0.09512
666.37553	0.09557
665.41117	0.09608
664.44681	0.09663
663.48244	0.09697
662.51808	0.09704
661.55371	0.09702
660.58935	0.09715
659.62499	0.09746
658.66062	0.09776
657.69626	0.09793
656.73189	0.09813
655.76753	0.09851
654.80317	0.09871
653.8388	0.09875
652.87444	0.09849
651.91007	0.09808
650.94571	0.09785
649.98135	0.09774
649.01698	0.09747
648.05262	0.09698
647.08825	0.0966
646.12389	0.0966
645.15953	0.09681
644.19516	0.09694
643.2308	0.09699
642.26643	0.09711
641.30207	0.09743
640.33771	0.09792
639.37334	0.09832
638.40898	0.09846
637.44461	0.09854
636.48025	0.09897
635.51589	0.09978
634.55152	0.1006
633.58716	0.10132
632.62279	0.10218
631.65843	0.10335
630.69406	0.10465
629.7297	0.10576
628.76534	0.10675
627.80097	0.10812
626.83661	0.11014
625.87224	0.11246
624.90788	0.11468
623.94352	0.11693
622.97915	0.11955
622.01479	0.12249
621.05042	0.12543
620.08606	0.12806
619.1217	0.13038
618.15733	0.13267
617.19297	0.135
616.2286	0.13707
615.26424	0.13871
614.29988	0.14011
613.33551	0.14157
612.37115	0.14294
611.40678	0.144
610.44242	0.14469
609.47806	0.14512
608.51369	0.14549
607.54933	0.14582
606.58496	0.14592
605.6206	0.14578
604.65624	0.14557
603.69187	0.14546
602.72751	0.14576
601.76314	0.14642
600.79878	0.14712
599.83442	0.14784
598.87005	0.14872
597.90569	0.14973
596.94132	0.15064
595.97696	0.15151
595.0126	0.15263
594.04823	0.15399
593.08387	0.15531
592.1195	0.15651
591.15514	0.15772
590.19078	0.15899
589.22641	0.16029
588.26205	0.16155
587.29768	0.16266
586.33332	0.16355
585.36896	0.16418
584.40459	0.16454
583.44023	0.16453
582.47586	0.16386
581.5115	0.16247
580.54714	0.16092
579.58277	0.15976
578.61841	0.15861
577.65404	0.15689
576.68968	0.15453
575.72532	0.15182
574.76095	0.14902
573.79659	0.14616
572.83222	0.14309
571.86786	0.13971
570.9035	0.13621
569.93913	0.13293
568.97477	0.13009
568.0104	0.12746
567.04604	0.1247
566.08168	0.12205
565.11731	0.11997
564.15295	0.11851
563.18858	0.11711
562.22422	0.11537
561.25986	0.11368
560.29549	0.11242
559.33113	0.11144
558.36676	0.11048
557.4024	0.10977
556.43804	0.10973
555.47367	0.11031
554.50931	0.11094
553.54494	0.11112
552.58058	0.11097
551.61622	0.11093
550.65185	0.11107
549.68749	0.11105
548.72312	0.11068
547.75876	0.11017
546.7944	0.10985
545.83003	0.10977
544.86567	0.10968
543.9013	0.10938
542.93694	0.1089
541.97258	0.1084
541.00821	0.1078
540.04385	0.1069
539.07948	0.10563
538.11512	0.10424
537.15076	0.10343
536.18639	0.10357
535.22203	0.10416
534.25766	0.10481
533.2933	0.10545
532.32894	0.10587
531.36457	0.10592
530.40021	0.10575
529.43584	0.10549
528.47148	0.10563
527.50712	0.10672
526.54275	0.10828
525.57839	0.10964
524.61402	0.11059
523.64966	0.11108
522.6853	0.11108
521.72093	0.1107
520.75657	0.10978
519.7922	0.10799
518.82784	0.10557
517.86348	0.10329
516.89911	0.10126
515.93475	0.09886
514.97038	0.09593
514.00602	0.09329
513.04166	0.09175
512.07729	0.09075
511.11293	0.08938
510.14856	0.0874
509.1842	0.0852
508.21984	0.08341
507.25547	0.08218
506.29111	0.08122
505.32674	0.08063
504.36238	0.08035
503.39802	0.0801
502.43365	0.07997
501.46929	0.07972
500.50492	0.07908
499.54056	0.07832
498.5762	0.0777
497.61183	0.07694
496.64747	0.07575
495.6831	0.07458
494.71874	0.07429
493.75437	0.07466
492.79001	0.07482
491.82565	0.07461
490.86128	0.07457
489.89692	0.07506
488.93255	0.07531
487.96819	0.07472
487.00383	0.07355
486.03946	0.07193
485.0751	0.06955
484.11073	0.06701
483.14637	0.06567
482.18201	0.06514
481.21764	0.06471
480.25328	0.06463
479.28891	0.06523
478.32455	0.06603
477.36019	0.0663
476.39582	0.066
475.43146	0.06549
474.46709	0.06488
473.50273	0.06404
472.53837	0.0632
471.574	0.06267
470.60964	0.06176
469.64527	0.05975
468.68091	0.0579
467.71655	0.05704
466.75218	0.05658
465.78782	0.05588
464.82345	0.05471
463.85909	0.05355
462.89473	0.05263
461.93036	0.05201
460.966	0.05246
460.00163	0.05371
459.03727	0.05367
458.07291	0.05249
457.10854	0.05168
456.14418	0.05148
455.17981	0.05095
454.21545	0.04978
453.25109	0.04876
452.28672	0.04847
451.32236	0.04855
450.35799	0.04834
449.39363	0.04735
448.42927	0.04541
447.4649	0.04329
446.50054	0.04251
445.53617	0.04376
444.57181	0.04526
443.60745	0.04542
442.64308	0.04482
441.67872	0.04469
440.71435	0.04536
439.74999	0.04581
438.78563	0.04502
437.82126	0.04311
436.8569	0.04074
435.89253	0.03833
434.92817	0.03627
433.96381	0.03511
432.99944	0.03453
432.03508	0.03369
431.07071	0.03183
430.10635	0.03115
429.14199	0.03501
428.17762	0.04131
427.21326	0.04769
426.24889	0.05299
425.28453	0.05739
424.32017	0.06178
423.3558	0.06609
422.39144	0.06911
421.42707	0.0701
420.46271	0.06964
419.49835	0.06884
418.53398	0.06788
417.56962	0.06593
416.60525	0.06242
415.64089	0.05755
414.67653	0.05197
413.71216	0.04611
412.7478	0.03916
411.78343	0.03026
410.81907	0.02759
409.85471	0.02536
408.89034	0.02358
407.92598	0.02224
406.96161	0.02134
405.99725	0.02089
405.03289	0.02088
404.06852	0.02131
403.10416	0.02218
402.13979	0.0235
401.17543	0.02526
400.21107	0.02746