3996.41167	0.00715
3994.4829	0.00727
3992.55413	0.00737
3990.62536	0.00747
3988.69659	0.00757
3986.76782	0.00765
3984.83905	0.00773
3982.91028	0.00781
3980.98151	0.00787
3979.05274	0.00794
3977.12397	0.00799
3975.1952	0.00804
3973.26643	0.00808
3971.33766	0.00816
3969.40889	0.00819
3967.48012	0.00822
3965.55135	0.00821
3963.62258	0.00817
3961.69381	0.00813
3959.76504	0.00811
3957.83627	0.00809
3955.9075	0.00817
3953.97873	0.00837
3952.04996	0.00862
3950.12119	0.00882
3948.19242	0.00899
3946.26365	0.0091
3944.33488	0.00912
3942.40611	0.00906
3940.47734	0.00898
3938.54857	0.00891
3936.6198	0.00886
3934.69103	0.00881
3932.76226	0.00875
3930.83349	0.00874
3928.90472	0.00874
3926.97595	0.00864
3925.04718	0.00842
3923.11841	0.0082
3921.18964	0.00801
3919.26087	0.00785
3917.3321	0.00767
3915.40333	0.00741
3913.47456	0.00714
3911.54579	0.00699
3909.61702	0.00702
3907.68825	0.00711
3905.75948	0.0072
3903.83071	0.00727
3901.90194	0.00735
3899.97317	0.00752
3898.0444	0.00783
3896.11563	0.00827
3894.18686	0.00872
3892.25809	0.00905
3890.32932	0.00926
3888.40055	0.00941
3886.47178	0.00951
3884.54301	0.00958
3882.61424	0.00962
3880.68547	0.00963
3878.7567	0.00965
3876.82792	0.00968
3874.89915	0.00968
3872.97038	0.00967
3871.04161	0.00964
3869.11284	0.0096
3867.18407	0.00962
3865.2553	0.00976
3863.32653	0.00997
3861.39776	0.01019
3859.46899	0.01032
3857.54022	0.01037
3855.61145	0.01041
3853.68268	0.01048
3851.75391	0.01053
3849.82514	0.0105
3847.89637	0.01035
3845.9676	0.01006
3844.03883	0.00965
3842.11006	0.00914
3840.18129	0.00856
3838.25252	0.008
3836.32375	0.00758
3834.39498	0.0073
3832.46621	0.00713
3830.53744	0.00704
3828.60867	0.00708
3826.6799	0.00725
3824.75113	0.00754
3822.82236	0.00789
3820.89359	0.00822
3818.96482	0.00847
3817.03605	0.00863
3815.10728	0.00868
3813.17851	0.00866
3811.24974	0.00872
3809.32097	0.00891
3807.3922	0.0092
3805.46343	0.00952
3803.53466	0.00981
3801.60589	0.00997
3799.67712	0.00992
3797.74835	0.0097
3795.81958	0.0095
3793.89081	0.00937
3791.96204	0.00929
3790.03327	0.00928
3788.1045	0.00935
3786.17573	0.00951
3784.24696	0.00974
3782.31819	0.00996
3780.38942	0.01011
3778.46065	0.01022
3776.53188	0.01029
3774.60311	0.01021
3772.67434	0.00998
3770.74557	0.00977
3768.8168	0.00955
3766.88803	0.00938
3764.95926	0.00948
3763.03049	0.00966
3761.10172	0.0098
3759.17295	0.00996
3757.24418	0.0099
3755.31541	0.00975
3753.38664	0.00974
3751.45787	0.00983
3749.5291	0.00989
3747.60033	0.00954
3745.67156	0.00896
3743.74279	0.00811
3741.81402	0.00725
3739.88525	0.00625
3737.95648	0.00525
3736.02771	0.00498
3734.09894	0.00499
3732.17017	0.0052
3730.2414	0.00518
3728.31263	0.005
3726.38386	0.00472
3724.45509	0.00437
3722.52632	0.00404
3720.59755	0.00392
3718.66878	0.00403
3716.74001	0.00437
3714.81124	0.00458
3712.88247	0.00466
3710.9537	0.00447
3709.02493	0.00465
3707.09616	0.00508
3705.16739	0.00554
3703.23861	0.00592
3701.30984	0.00611
3699.38107	0.00614
3697.4523	0.00589
3695.52353	0.00577
3693.59476	0.00579
3691.66599	0.00616
3689.73722	0.00704
3687.80845	0.00771
3685.87968	0.00837
3683.95091	0.00888
3682.02214	0.00945
3680.09337	0.00997
3678.1646	0.01047
3676.23583	0.01123
3674.30706	0.01231
3672.37829	0.01352
3670.44952	0.01465
3668.52075	0.01545
3666.59198	0.0164
3664.66321	0.01765
3662.73444	0.0194
3660.80567	0.02136
3658.8769	0.02348
3656.94813	0.02575
3655.01936	0.02797
3653.09059	0.02981
3651.16182	0.03145
3649.23305	0.03318
3647.30428	0.0346
3645.37551	0.03591
3643.44674	0.03755
3641.51797	0.03925
3639.5892	0.04103
3637.66043	0.04269
3635.73166	0.04426
3633.80289	0.04627
3631.87412	0.04862
3629.94535	0.05108
3628.01658	0.05368
3626.08781	0.05617
3624.15904	0.05849
3622.23027	0.06087
3620.3015	0.06362
3618.37273	0.0664
3616.44396	0.06939
3614.51519	0.07233
3612.58642	0.07554
3610.65765	0.07884
3608.72888	0.08194
3606.80011	0.08489
3604.87134	0.08791
3602.94257	0.09099
3601.0138	0.09396
3599.08503	0.0971
3597.15626	0.10034
3595.22749	0.10343
3593.29872	0.10672
3591.36995	0.11019
3589.44118	0.11388
3587.51241	0.11779
3585.58364	0.12148
3583.65487	0.12505
3581.7261	0.12877
3579.79733	0.1325
3577.86856	0.13619
3575.93979	0.13995
3574.01102	0.14392
3572.08225	0.14787
3570.15348	0.15194
3568.22471	0.1559
3566.29594	0.16011
3564.36717	0.16435
3562.4384	0.16879
3560.50963	0.17344
3558.58086	0.17823
3556.65209	0.1831
3554.72332	0.18806
3552.79455	0.1931
3550.86578	0.19821
3548.93701	0.20341
3547.00824	0.20867
3545.07947	0.21389
3543.1507	0.219
3541.22193	0.22406
3539.29316	0.22918
3537.36439	0.23445
3535.43562	0.23988
3533.50685	0.24544
3531.57807	0.2511
3529.6493	0.25688
3527.72053	0.26281
3525.79176	0.26886
3523.86299	0.275
3521.93422	0.28126
3520.00545	0.28772
3518.07668	0.29439
3516.14791	0.30121
3514.21914	0.30812
3512.29037	0.31508
3510.3616	0.32205
3508.43283	0.32901
3506.50406	0.33596
3504.57529	0.3429
3502.64652	0.34979
3500.71775	0.35662
3498.78898	0.36336
3496.86021	0.37002
3494.93144	0.37662
3493.00267	0.38323
3491.0739	0.38987
3489.14513	0.39652
3487.21636	0.40306
3485.28759	0.40943
3483.35882	0.4157
3481.43005	0.42195
3479.50128	0.42821
3477.57251	0.43445
3475.64374	0.44062
3473.71497	0.44677
3471.7862	0.45293
3469.85743	0.45906
3467.92866	0.46512
3465.99989	0.47107
3464.07112	0.47694
3462.14235	0.48284
3460.21358	0.48887
3458.28481	0.49499
3456.35604	0.50119
3454.42727	0.50746
3452.4985	0.51386
3450.56973	0.5204
3448.64096	0.52703
3446.71219	0.5337
3444.78342	0.54034
3442.85465	0.54689
3440.92588	0.55323
3438.99711	0.55935
3437.06834	0.56529
3435.13957	0.57103
3433.2108	0.57645
3431.28203	0.58147
3429.35326	0.5861
3427.42449	0.59034
3425.49572	0.59415
3423.56695	0.59754
3421.63818	0.6006
3419.70941	0.60337
3417.78064	0.60591
3415.85187	0.60833
3413.9231	0.61068
3411.99433	0.61296
3410.06556	0.61515
3408.13679	0.61726
3406.20802	0.61933
3404.27925	0.6213
3402.35048	0.62315
3400.42171	0.62495
3398.49294	0.62675
3396.56417	0.62851
3394.6354	0.63019
3392.70663	0.63181
3390.77786	0.63342
3388.84909	0.63502
3386.92032	0.63658
3384.99155	0.63809
3383.06278	0.63949
3381.13401	0.64071
3379.20524	0.64171
3377.27647	0.64253
3375.3477	0.64321
3373.41893	0.64384
3371.49016	0.64445
3369.56139	0.645
3367.63262	0.64544
3365.70385	0.6458
3363.77508	0.6461
3361.84631	0.64641
3359.91753	0.6467
3357.98876	0.64692
3356.05999	0.64706
3354.13122	0.64713
3352.20245	0.64709
3350.27368	0.64683
3348.34491	0.64629
3346.41614	0.6455
3344.48737	0.64449
3342.5586	0.64319
3340.62983	0.64155
3338.70106	0.63949
3336.77229	0.637
3334.84352	0.63409
3332.91475	0.63078
3330.98598	0.62715
3329.05721	0.62339
3327.12844	0.61966
3325.19967	0.61599
3323.2709	0.6123
3321.34213	0.60861
3319.41336	0.60504
3317.48459	0.60166
3315.55582	0.59857
3313.62705	0.59583
3311.69828	0.59344
3309.76951	0.59137
3307.84074	0.58965
3305.91197	0.5882
3303.9832	0.58693
3302.05443	0.58576
3300.12566	0.58467
3298.19689	0.58359
3296.26812	0.58244
3294.33935	0.58117
3292.41058	0.57978
3290.48181	0.57827
3288.55304	0.57654
3286.62427	0.5746
3284.6955	0.5725
3282.76673	0.57027
3280.83796	0.5679
3278.90919	0.56534
3276.98042	0.56258
3275.05165	0.55958
3273.12288	0.55638
3271.19411	0.55308
3269.26534	0.54977
3267.33657	0.54643
3265.4078	0.54298
3263.47903	0.53944
3261.55026	0.53582
3259.62149	0.53205
3257.69272	0.52802
3255.76395	0.52368
3253.83518	0.51903
3251.90641	0.51409
3249.97764	0.50886
3248.04887	0.50338
3246.1201	0.49764
3244.19133	0.49161
3242.26256	0.48532
3240.33379	0.47888
3238.40502	0.47232
3236.47625	0.46571
3234.54748	0.45912
3232.61871	0.45257
3230.68994	0.44604
3228.76117	0.43953
3226.8324	0.43312
3224.90363	0.42686
3222.97486	0.42076
3221.04609	0.41485
3219.11732	0.40913
3217.18855	0.40364
3215.25978	0.39835
3213.33101	0.39328
3211.40224	0.38842
3209.47347	0.38376
3207.5447	0.37929
3205.61593	0.37499
3203.68716	0.3708
3201.75839	0.36661
3199.82962	0.36232
3197.90085	0.35788
3195.97208	0.35333
3194.04331	0.3487
3192.11454	0.34394
3190.18577	0.33896
3188.257	0.33372
3186.32822	0.32821
3184.39945	0.32248
3182.47068	0.31663
3180.54191	0.3107
3178.61314	0.30468
3176.68437	0.29861
3174.7556	0.29256
3172.82683	0.28661
3170.89806	0.28088
3168.96929	0.27537
3167.04052	0.27004
3165.11175	0.26483
3163.18298	0.25978
3161.25421	0.25492
3159.32544	0.25026
3157.39667	0.24572
3155.4679	0.24125
3153.53913	0.23686
3151.61036	0.2326
3149.68159	0.22848
3147.75282	0.22441
3145.82405	0.22032
3143.89528	0.21621
3141.96651	0.21212
3140.03774	0.20811
3138.10897	0.20419
3136.1802	0.20044
3134.25143	0.19689
3132.32266	0.19351
3130.39389	0.19026
3128.46512	0.18713
3126.53635	0.18409
3124.60758	0.18105
3122.67881	0.17795
3120.75004	0.17479
3118.82127	0.17164
3116.8925	0.16852
3114.96373	0.16543
3113.03496	0.16237
3111.10619	0.15932
3109.17742	0.15633
3107.24865	0.15347
3105.31988	0.15074
3103.39111	0.14814
3101.46234	0.14564
3099.53357	0.1433
3097.6048	0.14112
3095.67603	0.13911
3093.74726	0.13726
3091.81849	0.13557
3089.88972	0.13407
3087.96095	0.13278
3086.03218	0.13164
3084.10341	0.13059
3082.17464	0.12958
3080.24587	0.12855
3078.3171	0.12751
3076.38833	0.12649
3074.45956	0.12555
3072.53079	0.1247
3070.60202	0.12389
3068.67325	0.12312
3066.74448	0.12246
3064.81571	0.12196
3062.88694	0.12163
3060.95817	0.12146
3059.0294	0.12138
3057.10063	0.12133
3055.17186	0.12132
3053.24309	0.12133
3051.31432	0.12132
3049.38555	0.12123
3047.45678	0.12104
3045.52801	0.12073
3043.59924	0.12032
3041.67047	0.11984
3039.7417	0.11926
3037.81293	0.11854
3035.88416	0.11767
3033.95539	0.11673
3032.02662	0.11576
3030.09785	0.11483
3028.16908	0.11394
3026.24031	0.11307
3024.31154	0.11222
3022.38277	0.11144
3020.454	0.11077
3018.52523	0.11026
3016.59646	0.11001
3014.66768	0.11014
3012.73891	0.11066
3010.81014	0.1115
3008.88137	0.11268
3006.9526	0.11427
3005.02383	0.11636
3003.09506	0.11908
3001.16629	0.12261
2999.23752	0.12705
2997.30875	0.13248
2995.37998	0.13895
2993.45121	0.1465
2991.52244	0.15513
2989.59367	0.16474
2987.6649	0.175
2985.73613	0.18545
2983.80736	0.19563
2981.87859	0.20512
2979.94982	0.21354
2978.02105	0.22063
2976.09228	0.22619
2974.16351	0.23021
2972.23474	0.23285
2970.30597	0.23438
2968.3772	0.23505
2966.44843	0.23506
2964.51966	0.23467
2962.59089	0.2343
2960.66212	0.23435
2958.73335	0.23515
2956.80458	0.237
2954.87581	0.2401
2952.94704	0.24453
2951.01827	0.25032
2949.0895	0.25741
2947.16073	0.26562
2945.23196	0.27455
2943.30319	0.28366
2941.37442	0.29237
2939.44565	0.30027
2937.51688	0.30705
2935.58811	0.31248
2933.65934	0.31636
2931.73057	0.31863
2929.8018	0.31937
2927.87303	0.31877
2925.94426	0.31708
2924.01549	0.31452
2922.08672	0.31127
2920.15795	0.30758
2918.22918	0.30374
2916.30041	0.29999
2914.37164	0.29642
2912.44287	0.2931
2910.5141	0.29009
2908.58533	0.28739
2906.65656	0.28501
2904.72779	0.28296
2902.79902	0.28114
2900.87025	0.27948
2898.94148	0.2779
2897.01271	0.27642
2895.08394	0.27513
2893.15517	0.27402
2891.2264	0.27297
2889.29763	0.27186
2887.36886	0.27056
2885.44009	0.2689
2883.51132	0.26676
2881.58255	0.26408
2879.65378	0.2608
2877.72501	0.25686
2875.79624	0.25226
2873.86747	0.24709
2871.9387	0.24143
2870.00993	0.23527
2868.08116	0.22861
2866.15239	0.22153
2864.22362	0.21414
2862.29485	0.20661
2860.36608	0.19912
2858.43731	0.19182
2856.50854	0.18487
2854.57977	0.17837
2852.651	0.17245
2850.72223	0.1672
2848.79346	0.16261
2846.86469	0.15859
2844.93592	0.15509
2843.00714	0.15212
2841.07837	0.14962
2839.1496	0.14748
2837.22083	0.14559
2835.29206	0.14385
2833.36329	0.14222
2831.43452	0.14066
2829.50575	0.1391
2827.57698	0.13747
2825.64821	0.13575
2823.71944	0.1339
2821.79067	0.13194
2819.8619	0.12993
2817.93313	0.12793
2816.00436	0.12591
2814.07559	0.12384
2812.14682	0.12185
2810.21805	0.11999
2808.28928	0.11821
2806.36051	0.11648
2804.43174	0.1148
2802.50297	0.11321
2800.5742	0.1117
2798.64543	0.11031
2796.71666	0.10908
2794.78789	0.10802
2792.85912	0.10702
2790.93035	0.106
2789.00158	0.105
2787.07281	0.10406
2785.14404	0.10317
2783.21527	0.10223
2781.2865	0.10123
2779.35773	0.10023
2777.42896	0.09923
2775.50019	0.09824
2773.57142	0.09728
2771.64265	0.09635
2769.71388	0.09545
2767.78511	0.09462
2765.85634	0.09392
2763.92757	0.09327
2761.9988	0.09257
2760.07003	0.09184
2758.14126	0.09116
2756.21249	0.09053
2754.28372	0.08991
2752.35495	0.08929
2750.42618	0.08872
2748.49741	0.08822
2746.56864	0.08778
2744.63987	0.0874
2742.7111	0.08706
2740.78233	0.08674
2738.85356	0.08638
2736.92479	0.08599
2734.99602	0.0856
2733.06725	0.08521
2731.13848	0.08484
2729.20971	0.08446
2727.28094	0.08411
2725.35217	0.08381
2723.4234	0.08353
2721.49463	0.08319
2719.56586	0.0828
2717.63709	0.08236
2715.70832	0.08189
2713.77955	0.08142
2711.85078	0.08093
2709.92201	0.08041
2707.99324	0.07984
2706.06447	0.07926
2704.1357	0.07872
2702.20693	0.07829
2700.27816	0.07795
2698.34939	0.07767
2696.42062	0.07742
2694.49185	0.07719
2692.56308	0.07696
2690.63431	0.07673
2688.70554	0.07648
2686.77677	0.07627
2684.848	0.07611
2682.91923	0.07592
2680.99046	0.07568
2679.06169	0.07538
2677.13292	0.07504
2675.20415	0.07466
2673.27538	0.07424
2671.34661	0.07377
2669.41783	0.07323
2667.48906	0.07262
2665.56029	0.07194
2663.63152	0.07122
2661.70275	0.07047
2659.77398	0.06973
2657.84521	0.06903
2655.91644	0.06838
2653.98767	0.06779
2652.0589	0.06717
2650.13013	0.06653
2648.20136	0.06589
2646.27259	0.06524
2644.34382	0.06458
2642.41505	0.06392
2640.48628	0.0633
2638.55751	0.06268
2636.62874	0.06207
2634.69997	0.06147
2632.7712	0.06087
2630.84243	0.06025
2628.91366	0.05961
2626.98489	0.05898
2625.05612	0.05836
2623.12735	0.05773
2621.19858	0.05708
2619.26981	0.05644
2617.34104	0.05584
2615.41227	0.05529
2613.4835	0.05478
2611.55473	0.05425
2609.62596	0.05369
2607.69719	0.05313
2605.76842	0.0526
2603.83965	0.05214
2601.91088	0.05175
2599.98211	0.05139
2598.05334	0.05106
2596.12457	0.05078
2594.1958	0.05055
2592.26703	0.05039
2590.33826	0.05027
2588.40949	0.05017
2586.48072	0.05006
2584.55195	0.04995
2582.62318	0.04989
2580.69441	0.04984
2578.76564	0.04977
2576.83687	0.04964
2574.9081	0.04948
2572.97933	0.04931
2571.05056	0.04916
2569.12179	0.04903
2567.19302	0.04887
2565.26425	0.04865
2563.33548	0.0484
2561.40671	0.04814
2559.47794	0.04789
2557.54917	0.04766
2555.6204	0.04745
2553.69163	0.04724
2551.76286	0.04702
2549.83409	0.0468
2547.90532	0.0466
2545.97655	0.04646
2544.04778	0.04635
2542.11901	0.04621
2540.19024	0.04608
2538.26147	0.04598
2536.3327	0.04589
2534.40393	0.04577
2532.47516	0.04562
2530.54639	0.04547
2528.61762	0.04533
2526.68885	0.04521
2524.76008	0.04514
2522.83131	0.04507
2520.90254	0.04498
2518.97377	0.04485
2517.045	0.04469
2515.11623	0.04455
2513.18746	0.04443
2511.25869	0.04434
2509.32992	0.04425
2507.40115	0.04414
2505.47238	0.044
2503.54361	0.04389
2501.61484	0.04384
2499.68607	0.04384
2497.75729	0.04384
2495.82852	0.04384
2493.89975	0.04386
2491.97098	0.04389
2490.04221	0.0439
2488.11344	0.04389
2486.18467	0.04387
2484.2559	0.04386
2482.32713	0.04386
2480.39836	0.04386
2478.46959	0.04388
2476.54082	0.04388
2474.61205	0.04388
2472.68328	0.04388
2470.75451	0.04388
2468.82574	0.04388
2466.89697	0.04388
2464.9682	0.04388
2463.03943	0.04388
2461.11066	0.04388
2459.18189	0.04388
2457.25312	0.04388
2455.32435	0.04388
2453.39558	0.04388
2451.46681	0.04388
2449.53804	0.04388
2447.60927	0.04388
2445.6805	0.04388
2443.75173	0.04388
2441.82296	0.04388
2439.89419	0.04388
2437.96542	0.04388
2436.03665	0.04388
2434.10788	0.04388
2432.17911	0.04388
2430.25034	0.04388
2428.32157	0.04388
2426.3928	0.04388
2424.46403	0.04388
2422.53526	0.04388
2420.60649	0.04388
2418.67772	0.04388
2416.74895	0.04388
2414.82018	0.04388
2412.89141	0.04388
2410.96264	0.04388
2409.03387	0.04388
2407.1051	0.04388
2405.17633	0.04388
2403.24756	0.04388
2401.31879	0.04388
2399.39002	0.04388
2397.46125	0.04388
2395.53248	0.04388
2393.60371	0.04388
2391.67494	0.04388
2389.74617	0.04388
2387.8174	0.04388
2385.88863	0.04388
2383.95986	0.04388
2382.03109	0.04388
2380.10232	0.04388
2378.17355	0.04388
2376.24478	0.04388
2374.31601	0.04388
2372.38724	0.04388
2370.45847	0.04388
2368.5297	0.04388
2366.60093	0.04388
2364.67216	0.04388
2362.74339	0.04388
2360.81462	0.04388
2358.88585	0.04388
2356.95708	0.04388
2355.02831	0.04388
2353.09954	0.04388
2351.17077	0.04388
2349.242	0.04388
2347.31323	0.04388
2345.38446	0.04388
2343.45569	0.04388
2341.52692	0.04388
2339.59815	0.04388
2337.66938	0.04388
2335.74061	0.04388
2333.81184	0.04388
2331.88307	0.04388
2329.9543	0.04388
2328.02553	0.04388
2326.09675	0.04388
2324.16798	0.04388
2322.23921	0.04388
2320.31044	0.04388
2318.38167	0.04388
2316.4529	0.04388
2314.52413	0.04388
2312.59536	0.04388
2310.66659	0.04388
2308.73782	0.04388
2306.80905	0.04388
2304.88028	0.04388
2302.95151	0.04388
2301.02274	0.04388
2299.09397	0.04388
2297.1652	0.04388
2295.23643	0.04388
2293.30766	0.04388
2291.37889	0.04388
2289.45012	0.04388
2287.52135	0.04388
2285.59258	0.04388
2283.66381	0.04388
2281.73504	0.04388
2279.80627	0.04388
2277.8775	0.04388
2275.94873	0.04388
2274.01996	0.04388
2272.09119	0.04388
2270.16242	0.04388
2268.23365	0.04388
2266.30488	0.04388
2264.37611	0.04388
2262.44734	0.04388
2260.51857	0.04388
2258.5898	0.04388
2256.66103	0.04388
2254.73226	0.04388
2252.80349	0.04388
2250.87472	0.04388
2248.94595	0.04388
2247.01718	0.04388
2245.08841	0.04388
2243.15964	0.04388
2241.23087	0.04388
2239.3021	0.04388
2237.37333	0.04388
2235.44456	0.04388
2233.51579	0.04388
2231.58702	0.04388
2229.65825	0.04388
2227.72948	0.04388
2225.80071	0.04388
2223.87194	0.04388
2221.94317	0.04388
2220.0144	0.04388
2218.08563	0.04388
2216.15686	0.04388
2214.22809	0.04388
2212.29932	0.04388
2210.37055	0.04388
2208.44178	0.04388
2206.51301	0.04388
2204.58424	0.04388
2202.65547	0.04388
2200.7267	0.04388
2198.79793	0.04388
2196.86916	0.04388
2194.94039	0.04388
2193.01162	0.04388
2191.08285	0.04388
2189.15408	0.04388
2187.22531	0.04388
2185.29654	0.04388
2183.36777	0.04388
2181.439	0.04388
2179.51023	0.04388
2177.58146	0.04388
2175.65269	0.04388
2173.72392	0.04388
2171.79515	0.04388
2169.86638	0.04388
2167.93761	0.04388
2166.00884	0.04388
2164.08007	0.04388
2162.1513	0.04388
2160.22253	0.04388
2158.29376	0.04388
2156.36499	0.04388
2154.43622	0.04388
2152.50744	0.04388
2150.57867	0.04388
2148.6499	0.04388
2146.72113	0.04388
2144.79236	0.04388
2142.86359	0.04388
2140.93482	0.04388
2139.00605	0.04388
2137.07728	0.04388
2135.14851	0.04388
2133.21974	0.04388
2131.29097	0.04388
2129.3622	0.04388
2127.43343	0.04388
2125.50466	0.04388
2123.57589	0.04388
2121.64712	0.04388
2119.71835	0.04388
2117.78958	0.04388
2115.86081	0.04388
2113.93204	0.04388
2112.00327	0.04388
2110.0745	0.04388
2108.14573	0.04388
2106.21696	0.04388
2104.28819	0.04388
2102.35942	0.04388
2100.43065	0.04388
2098.50188	0.04388
2096.57311	0.04388
2094.64434	0.04388
2092.71557	0.04388
2090.7868	0.04388
2088.85803	0.04388
2086.92926	0.04388
2085.00049	0.04388
2083.07172	0.04388
2081.14295	0.04388
2079.21418	0.04388
2077.28541	0.04388
2075.35664	0.04388
2073.42787	0.04388
2071.4991	0.04388
2069.57033	0.04388
2067.64156	0.04388
2065.71279	0.04388
2063.78402	0.04388
2061.85525	0.04388
2059.92648	0.04388
2057.99771	0.04388
2056.06894	0.04388
2054.14017	0.04388
2052.2114	0.04388
2050.28263	0.04388
2048.35386	0.04388
2046.42509	0.04388
2044.49632	0.04388
2042.56755	0.04388
2040.63878	0.04388
2038.71001	0.04388
2036.78124	0.04388
2034.85247	0.04388
2032.9237	0.04388
2030.99493	0.04388
2029.06616	0.04388
2027.13739	0.04388
2025.20862	0.04388
2023.27985	0.04388
2021.35108	0.04388
2019.42231	0.04388
2017.49354	0.04388
2015.56477	0.04388
2013.636	0.04388
2011.70723	0.04388
2009.77846	0.04388
2007.84969	0.04388
2005.92092	0.04388
2003.99215	0.04388
2002.06338	0.04388
2000.13461	0.04388
1998.20584	0.04388
1996.27707	0.04388
1994.3483	0.04388
1992.41953	0.04388
1990.49076	0.04388
1988.56199	0.04388
1986.63322	0.04388
1984.70445	0.04388
1982.77568	0.04388
1980.8469	0.04388
1978.91813	0.04388
1976.98936	0.04388
1975.06059	0.04388
1973.13182	0.04388
1971.20305	0.04388
1969.27428	0.04388
1967.34551	0.04388
1965.41674	0.04388
1963.48797	0.04388
1961.5592	0.04388
1959.63043	0.04388
1957.70166	0.04388
1955.77289	0.04388
1953.84412	0.04388
1951.91535	0.04388
1949.98658	0.04388
1948.05781	0.04388
1946.12904	0.04388
1944.20027	0.04388
1942.2715	0.04388
1940.34273	0.04388
1938.41396	0.04388
1936.48519	0.04388
1934.55642	0.04388
1932.62765	0.04388
1930.69888	0.04388
1928.77011	0.04388
1926.84134	0.04388
1924.91257	0.04388
1922.9838	0.04388
1921.05503	0.04388
1919.12626	0.04388
1917.19749	0.04388
1915.26872	0.04388
1913.33995	0.04388
1911.41118	0.04388
1909.48241	0.04388
1907.55364	0.04388
1905.62487	0.04388
1903.6961	0.04388
1901.76733	0.04388
1899.83856	0.04388
1897.90979	0.04388
1895.98102	0.04388
1894.05225	0.04388
1892.12348	0.04388
1890.19471	0.04388
1888.26594	0.04388
1886.33717	0.04388
1884.4084	0.04388
1882.47963	0.04388
1880.55086	0.04388
1878.62209	0.04388
1876.69332	0.04388
1874.76455	0.04388
1872.83578	0.04388
1870.90701	0.04388
1868.97824	0.04388
1867.04947	0.04388
1865.1207	0.04388
1863.19193	0.04388
1861.26316	0.04388
1859.33439	0.04388
1857.40562	0.04388
1855.47685	0.04388
1853.54808	0.04388
1851.61931	0.04388
1849.69054	0.04388
1847.76177	0.04388
1845.833	0.04388
1843.90423	0.04388
1841.97546	0.04388
1840.04669	0.04388
1838.11792	0.04388
1836.18915	0.04388
1834.26038	0.04349
1832.33161	0.04271
1830.40284	0.0417
1828.47407	0.0407
1826.5453	0.03987
1824.61653	0.0393
1822.68776	0.03914
1820.75899	0.03971
1818.83022	0.04128
1816.90145	0.04385
1814.97268	0.04739
1813.04391	0.05233
1811.11514	0.05933
1809.18636	0.06878
1807.25759	0.08104
1805.32882	0.09651
1803.40005	0.11524
1801.47128	0.13662
1799.54251	0.15948
1797.61374	0.18232
1795.68497	0.20377
1793.7562	0.22364
1791.82743	0.24291
1789.89866	0.26194
1787.96989	0.27993
1786.04112	0.29638
1784.11235	0.31082
1782.18358	0.32282
1780.25481	0.33202
1778.32604	0.33821
1776.39727	0.34141
1774.4685	0.34185
1772.53973	0.33966
1770.61096	0.33494
1768.68219	0.32825
1766.75342	0.32056
1764.82465	0.31263
1762.89588	0.3049
1760.96711	0.29778
1759.03834	0.29142
1757.10957	0.28536
1755.1808	0.27888
1753.25203	0.27157
1751.32326	0.26353
1749.39449	0.25574
1747.46572	0.25006
1745.53695	0.24785
1743.60818	0.24891
1741.67941	0.25265
1739.75064	0.25911
1737.82187	0.26816
1735.8931	0.27887
1733.96433	0.29014
1732.03556	0.30103
1730.10679	0.3108
1728.17802	0.31883
1726.24925	0.32474
1724.32048	0.32846
1722.39171	0.33035
1720.46294	0.33088
1718.53417	0.33012
1716.6054	0.32773
1714.67663	0.32343
1712.74786	0.31716
1710.81909	0.30903
1708.89032	0.29933
1706.96155	0.2884
1705.03278	0.27681
1703.10401	0.26539
1701.17524	0.25509
1699.24647	0.24669
1697.3177	0.24059
1695.38893	0.23687
1693.46016	0.23523
1691.53139	0.23474
1689.60262	0.23436
1687.67385	0.2336
1685.74508	0.23225
1683.81631	0.23014
1681.88754	0.22738
1679.95877	0.22462
1678.03	0.22309
1676.10123	0.2241
1674.17246	0.22736
1672.24369	0.23142
1670.31492	0.23534
1668.38615	0.23847
1666.45738	0.24018
1664.52861	0.24024
1662.59984	0.23869
1660.67107	0.23567
1658.7423	0.23142
1656.81353	0.22617
1654.88476	0.22018
1652.95599	0.21365
1651.02722	0.20668
1649.09845	0.19927
1647.16968	0.19136
1645.24091	0.18291
1643.31214	0.17397
1641.38337	0.16468
1639.4546	0.15518
1637.52583	0.14587
1635.59705	0.13756
1633.66828	0.13123
1631.73951	0.12755
1629.81074	0.12629
1627.88197	0.126
1625.9532	0.12575
1624.02443	0.1254
1622.09566	0.12454
1620.16689	0.12302
1618.23812	0.12114
1616.30935	0.11907
1614.38058	0.11683
1612.45181	0.11441
1610.52304	0.11194
1608.59427	0.10957
1606.6655	0.10732
1604.73673	0.10505
1602.80796	0.10256
1600.87919	0.0997
1598.95042	0.09637
1597.02165	0.09259
1595.09288	0.0885
1593.16411	0.08426
1591.23534	0.08009
1589.30657	0.0763
1587.3778	0.07307
1585.44903	0.07042
1583.52026	0.06833
1581.59149	0.06669
1579.66272	0.06543
1577.73395	0.06467
1575.80518	0.06455
1573.87641	0.06515
1571.94764	0.06642
1570.01887	0.06817
1568.0901	0.07029
1566.16133	0.07264
1564.23256	0.07506
1562.30379	0.07732
1560.37502	0.07942
1558.44625	0.08127
1556.51748	0.08266
1554.58871	0.0836
1552.65994	0.08446
1550.73117	0.08569
1548.8024	0.08767
1546.87363	0.09056
1544.94486	0.09436
1543.01609	0.09872
1541.08732	0.1031
1539.15855	0.10709
1537.22978	0.11035
1535.30101	0.11269
1533.37224	0.11416
1531.44347	0.11493
1529.5147	0.11487
1527.58593	0.11369
1525.65716	0.11121
1523.72839	0.10751
1521.79962	0.10265
1519.87085	0.09664
1517.94208	0.08954
1516.01331	0.08161
1514.08454	0.07321
1512.15577	0.06446
1510.227	0.05564
1508.29823	0.04752
1506.36946	0.04085
1504.44069	0.03608
1502.51192	0.03353
1500.58315	0.03315
1498.65438	0.03447
1496.72561	0.03667
1494.79684	0.03922
1492.86807	0.04218
1490.9393	0.04569
1489.01053	0.04981
1487.08176	0.05451
1485.15299	0.05977
1483.22422	0.06544
1481.29545	0.07137
1479.36668	0.07755
1477.43791	0.08401
1475.50914	0.09063
1473.58037	0.09722
1471.6516	0.10357
1469.72283	0.1095
1467.79406	0.11486
1465.86529	0.11967
1463.93651	0.12412
1462.00774	0.12836
1460.07897	0.13234
1458.1502	0.13592
1456.22143	0.13898
1454.29266	0.14128
1452.36389	0.14249
1450.43512	0.14252
1448.50635	0.14162
1446.57758	0.14019
1444.64881	0.13844
1442.72004	0.13639
1440.79127	0.13415
1438.8625	0.13199
1436.93373	0.13011
1435.00496	0.12875
1433.07619	0.12839
1431.14742	0.12946
1429.21865	0.1319
1427.28988	0.13544
1425.36111	0.13996
1423.43234	0.14554
1421.50357	0.15229
1419.5748	0.16017
1417.64603	0.16884
1415.71726	0.17788
1413.78849	0.18696
1411.85972	0.19598
1409.93095	0.20495
1408.00218	0.21382
1406.07341	0.22235
1404.14464	0.23027
1402.21587	0.23731
1400.2871	0.24343
1398.35833	0.24881
1396.42956	0.2537
1394.50079	0.25817
1392.57202	0.26218
1390.64325	0.26558
1388.71448	0.26824
1386.78571	0.27011
1384.85694	0.27097
1382.92817	0.27051
1380.9994	0.26868
1379.07063	0.26566
1377.14186	0.26166
1375.21309	0.2569
1373.28432	0.2516
1371.35555	0.24595
1369.42678	0.24013
1367.49801	0.23428
1365.56924	0.22852
1363.64047	0.22285
1361.7117	0.21725
1359.78293	0.21191
1357.85416	0.20726
1355.92539	0.20396
1353.99662	0.20283
1352.06785	0.20463
1350.13908	0.20963
1348.21031	0.21752
1346.28154	0.22763
1344.35277	0.2392
1342.424	0.25154
1340.49523	0.26395
1338.56646	0.2757
1336.63769	0.28609
1334.70892	0.2946
1332.78015	0.30091
1330.85138	0.30495
1328.92261	0.30681
1326.99384	0.3066
1325.06507	0.30434
1323.1363	0.30006
1321.20753	0.29386
1319.27876	0.28596
1317.34999	0.27667
1315.42122	0.26636
1313.49245	0.25551
1311.56368	0.24458
1309.63491	0.23409
1307.70614	0.22455
1305.77737	0.2163
1303.8486	0.20934
1301.91983	0.20335
1299.99106	0.19794
1298.06229	0.19276
1296.13352	0.18756
1294.20475	0.18216
1292.27597	0.17655
1290.3472	0.17084
1288.41843	0.1652
1286.48966	0.15971
1284.56089	0.15449
1282.63212	0.14986
1280.70335	0.14628
1278.77458	0.14409
1276.84581	0.14328
1274.91704	0.14363
1272.98827	0.14506
1271.0595	0.14763
1269.13073	0.15134
1267.20196	0.15597
1265.27319	0.1611
1263.34442	0.16633
1261.41565	0.17129
1259.48688	0.17574
1257.55811	0.17953
1255.62934	0.18278
1253.70057	0.18574
1251.7718	0.18846
1249.84303	0.19068
1247.91426	0.19206
1245.98549	0.1923
1244.05672	0.19118
1242.12795	0.18858
1240.19918	0.18459
1238.27041	0.17964
1236.34164	0.17439
1234.41287	0.16944
1232.4841	0.1651
1230.55533	0.16159
1228.62656	0.15918
1226.69779	0.15809
1224.76902	0.15817
1222.84025	0.15885
1220.91148	0.1594
1218.98271	0.15923
1217.05394	0.15815
1215.12517	0.15625
1213.1964	0.15381
1211.26763	0.15111
1209.33886	0.14829
1207.41009	0.14515
1205.48132	0.14113
1203.55255	0.13572
1201.62378	0.12876
1199.69501	0.12047
1197.76624	0.11141
1195.83747	0.1024
1193.9087	0.09432
1191.97993	0.08794
1190.05116	0.08384
1188.12239	0.08251
1186.19362	0.08432
1184.26485	0.08947
1182.33608	0.098
1180.40731	0.10974
1178.47854	0.12441
1176.54977	0.14173
1174.621	0.1614
1172.69223	0.18297
1170.76346	0.20583
1168.83469	0.22931
1166.90592	0.25266
1164.97715	0.27503
1163.04838	0.29551
1161.11961	0.31336
1159.19084	0.32805
1157.26207	0.33941
1155.3333	0.34746
1153.40453	0.35248
1151.47576	0.35485
1149.54699	0.35497
1147.61822	0.35316
1145.68945	0.34969
1143.76068	0.34502
1141.83191	0.33981
1139.90314	0.3349
1137.97437	0.33118
1136.0456	0.32936
1134.11683	0.32981
1132.18806	0.33253
1130.25929	0.33725
1128.33052	0.34356
1126.40175	0.35117
1124.47298	0.35989
1122.54421	0.36948
1120.61544	0.37947
1118.68666	0.38925
1116.75789	0.39819
1114.82912	0.40595
1112.90035	0.41254
1110.97158	0.41825
1109.04281	0.4236
1107.11404	0.42936
1105.18527	0.43646
1103.2565	0.44584
1101.32773	0.45803
1099.39896	0.47282
1097.47019	0.48945
1095.54142	0.50692
1093.61265	0.52443
1091.68388	0.54156
1089.75511	0.55821
1087.82634	0.57442
1085.89757	0.59018
1083.9688	0.60534
1082.04003	0.61962
1080.11126	0.63258
1078.18249	0.64369
1076.25372	0.65234
1074.32495	0.65805
1072.39618	0.66068
1070.46741	0.66074
1068.53864	0.65941
1066.60987	0.65833
1064.6811	0.65914
1062.75233	0.66316
1060.82356	0.67141
1058.89479	0.68444
1056.96602	0.70222
1055.03725	0.72397
1053.10848	0.74842
1051.17971	0.7743
1049.25094	0.80071
1047.32217	0.82713
1045.3934	0.85324
1043.46463	0.87856
1041.53586	0.90232
1039.60709	0.92345
1037.67832	0.94099
1035.74955	0.95468
1033.82078	0.96498
1031.89201	0.97277
1029.96324	0.97892
1028.03447	0.9841
1026.1057	0.9887
1024.17693	0.99291
1022.24816	0.99665
1020.31939	0.99936
1018.39062	1
1016.46185	0.99736
1014.53308	0.99046
1012.60431	0.97867
1010.67554	0.9619
1008.74677	0.94065
1006.818	0.91551
1004.88923	0.88676
1002.96046	0.85439
1001.03169	0.81844
999.10292	0.77909
997.17415	0.73671
995.24538	0.69194
993.31661	0.64572
991.38784	0.59945
989.45907	0.55468
987.5303	0.51267
985.60153	0.4741
983.67276	0.43916
981.74399	0.40766
979.81522	0.37919
977.88645	0.35333
975.95768	0.32967
974.02891	0.30799
972.10014	0.2883
970.17137	0.27093
968.2426	0.25657
966.31383	0.24611
964.38506	0.24019
962.45629	0.2389
960.52752	0.24158
958.59875	0.24705
956.66998	0.25426
954.74121	0.26257
952.81244	0.27155
950.88367	0.28069
948.9549	0.28925
947.02612	0.29652
945.09735	0.30184
943.16858	0.30461
941.23981	0.30437
939.31104	0.30081
937.38227	0.2939
935.4535	0.28383
933.52473	0.27106
931.59596	0.25625
929.66719	0.24019
927.73842	0.22368
925.80965	0.20745
923.88088	0.19203
921.95211	0.17768
920.02334	0.16428
918.09457	0.15136
916.1658	0.13847
914.23703	0.12531
912.30826	0.1119
910.37949	0.09895
908.45072	0.08784
906.52195	0.07953
904.59318	0.07384
902.66441	0.07002
900.73564	0.06749
898.80687	0.06599
896.8781	0.06543
894.94933	0.06583
893.02056	0.06712
891.09179	0.06909
889.16302	0.07148
887.23425	0.07413
885.30548	0.07706
883.37671	0.08042
881.44794	0.08444
879.51917	0.08915
877.5904	0.09438
875.66163	0.09986
873.73286	0.10536
871.80409	0.11074
869.87532	0.11581
867.94655	0.12055
866.01778	0.12519
864.08901	0.13032
862.16024	0.13624
860.23147	0.14238
858.3027	0.14767
856.37393	0.15142
854.44516	0.15339
852.51639	0.15354
850.58762	0.15187
848.65885	0.14833
846.73008	0.14287
844.80131	0.13565
842.87254	0.12716
840.94377	0.11801
839.015	0.1088
837.08623	0.09992
835.15746	0.09151
833.22869	0.08349
831.29992	0.07567
829.37115	0.06794
827.44238	0.06028
825.51361	0.05281
823.58484	0.04569
821.65607	0.03911
819.7273	0.03325
817.79853	0.02827
815.86976	0.02421
813.94099	0.02094
812.01222	0.01823
810.08345	0.01582
808.15468	0.0135
806.22591	0.01122
804.29714	0.00902
802.36837	0.00711
800.4396	0.00586
798.51083	0.00572
796.58206	0.00683
794.65329	0.00895
792.72452	0.01167
790.79575	0.0147
788.86698	0.01793
786.93821	0.02133
785.00944	0.02495
783.08067	0.02891
781.1519	0.03338
779.22313	0.03859
777.29436	0.04473
775.36558	0.05172
773.43681	0.05927
771.50804	0.06696
769.57927	0.07452
767.6505	0.08194
765.72173	0.08925
763.79296	0.0962
761.86419	0.10233
759.93542	0.10725
758.00665	0.1108
756.07788	0.11297
754.14911	0.11391
752.22034	0.11358
750.29157	0.11184
748.3628	0.10857
746.43403	0.10381
744.50526	0.09798
742.57649	0.09127
740.64772	0.08406
738.71895	0.0769
736.79018	0.07013
734.86141	0.06417
732.93264	0.05943
731.00387	0.05617
729.0751	0.05435
727.14633	0.05385
725.21756	0.05462
723.28879	0.05671
721.36002	0.06006
719.43125	0.06425
717.50248	0.06858
715.57371	0.07258
713.64494	0.07609
711.71617	0.07906
709.7874	0.08154
707.85863	0.08356
705.92986	0.0852
704.00109	0.08648
702.07232	0.08745
700.14355	0.08815
698.21478	0.08861
696.28601	0.08787
694.35724	0.0855
692.42847	0.08632
690.4997	0.0914
688.57093	0.08943
686.64216	0.08831
684.71339	0.08907
682.78462	0.09016
680.85585	0.09128
678.92708	0.09259
676.99831	0.09384
675.06954	0.09506
673.14077	0.09617
671.212	0.09707
669.28323	0.09781
667.35446	0.09839
665.42569	0.09876
663.49692	0.09894
661.56815	0.09888
659.63938	0.0986
657.71061	0.09805
655.78184	0.09725
653.85307	0.0962
651.9243	0.09483
649.99553	0.09311
648.06676	0.0923
646.13799	0.09432
644.20922	0.09438
642.28045	0.08823
640.35168	0.08789
638.42291	0.08831
636.49414	0.08818
634.56537	0.08861
632.6366	0.08995
630.70783	0.09203
628.77906	0.09497
626.85029	0.09858
624.92152	0.1027
622.99275	0.10716
621.06398	0.11171
619.13521	0.11614
617.20644	0.12039
615.27767	0.12451
613.3489	0.12856
611.42013	0.13264
609.49136	0.1368
607.56259	0.14095
605.63382	0.14495
603.70505	0.14867
601.77627	0.15212
599.8475	0.15535
597.91873	0.15835
595.98996	0.16109
594.06119	0.16361
592.13242	0.16592
590.20365	0.16792
588.27488	0.16948
586.34611	0.17046
584.41734	0.1708
582.48857	0.17044
580.5598	0.16938
578.63103	0.16762
576.70226	0.16518
574.77349	0.16219
572.84472	0.15886
570.91595	0.15543
568.98718	0.15212
567.05841	0.14908
565.12964	0.14641
563.20087	0.14411
561.2721	0.14212
559.34333	0.14039
557.41456	0.13895
555.48579	0.1378
553.55702	0.13691
551.62825	0.13617
549.69948	0.13555
547.77071	0.13501
545.84194	0.13448
543.91317	0.13382
541.9844	0.13296
540.05563	0.13187
538.12686	0.13055
536.19809	0.12902
534.26932	0.12728
532.34055	0.12534
530.41178	0.12321
528.48301	0.12096
526.55424	0.11863
524.62547	0.11627
522.6967	0.11389
520.76793	0.11153
518.83916	0.10923
516.91039	0.10697
514.98162	0.1048
513.05285	0.10281
511.12408	0.10106
509.19531	0.09955
507.26654	0.09823
505.33777	0.09711
503.409	0.09623
501.48023	0.09564
499.55146	0.0953
497.62269	0.09512
495.69392	0.09503
493.76515	0.09495
491.83638	0.09481
489.90761	0.09452
487.97884	0.09402
486.05007	0.0933
484.1213	0.09235
482.19253	0.0911
480.26376	0.0895
478.33499	0.08751
476.40622	0.08518
474.47745	0.08258
472.54868	0.07978
470.61991	0.07685
468.69114	0.07385
466.76237	0.07086
464.8336	0.06786
462.90483	0.06484
460.97606	0.06183
459.04729	0.05892
457.11852	0.05624
455.18975	0.05388
453.26098	0.05189
451.33221	0.05029
449.40344	0.04909
447.47467	0.04825
445.5459	0.04778
443.61713	0.04766
441.68836	0.04788
439.75959	0.04822
437.83082	0.0485
435.90205	0.04864
433.97328	0.04856
432.04451	0.04819
430.11573	0.04746
428.18696	0.04632
426.25819	0.04473
424.32942	0.04273
422.40065	0.04035
420.47188	0.03826
418.54311	0.03595
416.61434	0.0334
414.68557	0.03062
412.7568	0.0276
410.82803	0.02436
408.89926	0.02088
406.97049	0.01717
405.04172	0.01322
403.11295	0.00905
401.18418	0.00464
399.25541	0