3996.41167	0.01464
3994.4829	0.01497
3992.55413	0.01528
3990.62536	0.01557
3988.69659	0.01584
3986.76782	0.01609
3984.83905	0.01632
3982.91028	0.01653
3980.98151	0.01673
3979.05274	0.0169
3977.12397	0.01705
3975.1952	0.01719
3973.26643	0.0173
3971.33766	0.0172
3969.40889	0.01719
3967.48012	0.01727
3965.55135	0.01747
3963.62258	0.01781
3961.69381	0.01821
3959.76504	0.01849
3957.83627	0.01849
3955.9075	0.01825
3953.97873	0.01808
3952.04996	0.01821
3950.12119	0.01849
3948.19242	0.01868
3946.26365	0.0188
3944.33488	0.01893
3942.40611	0.01897
3940.47734	0.01895
3938.54857	0.01912
3936.6198	0.01951
3934.69103	0.01991
3932.76226	0.02009
3930.83349	0.01985
3928.90472	0.01899
3926.97595	0.0177
3925.04718	0.01666
3923.11841	0.01641
3921.18964	0.01694
3919.26087	0.01796
3917.3321	0.01911
3915.40333	0.02003
3913.47456	0.02065
3911.54579	0.02111
3909.61702	0.02152
3907.68825	0.02196
3905.75948	0.02243
3903.83071	0.02277
3901.90194	0.02312
3899.97317	0.02365
3898.0444	0.02416
3896.11563	0.02435
3894.18686	0.02427
3892.25809	0.02416
3890.32932	0.02408
3888.40055	0.02379
3886.47178	0.02313
3884.54301	0.02224
3882.61424	0.02141
3880.68547	0.02104
3878.7567	0.0213
3876.82792	0.02175
3874.89915	0.02208
3872.97038	0.02245
3871.04161	0.02288
3869.11284	0.02327
3867.18407	0.02351
3865.2553	0.02348
3863.32653	0.02321
3861.39776	0.02292
3859.46899	0.02284
3857.54022	0.02293
3855.61145	0.02303
3853.68268	0.02289
3851.75391	0.02242
3849.82514	0.02174
3847.89637	0.02106
3845.9676	0.02047
3844.03883	0.0198
3842.11006	0.01912
3840.18129	0.01864
3838.25252	0.01838
3836.32375	0.01822
3834.39498	0.01796
3832.46621	0.0174
3830.53744	0.01656
3828.60867	0.01587
3826.6799	0.01553
3824.75113	0.0151
3822.82236	0.01432
3820.89359	0.01344
3818.96482	0.01273
3817.03605	0.01233
3815.10728	0.01216
3813.17851	0.01212
3811.24974	0.01208
3809.32097	0.01195
3807.3922	0.01177
3805.46343	0.01159
3803.53466	0.01136
3801.60589	0.01099
3799.67712	0.01058
3797.74835	0.01036
3795.81958	0.01051
3793.89081	0.01083
3791.96204	0.01107
3790.03327	0.0113
3788.1045	0.01161
3786.17573	0.01192
3784.24696	0.01209
3782.31819	0.01202
3780.38942	0.01181
3778.46065	0.01171
3776.53188	0.01182
3774.60311	0.01192
3772.67434	0.01179
3770.74557	0.01177
3768.8168	0.01191
3766.88803	0.01213
3764.95926	0.0127
3763.03049	0.01371
3761.10172	0.01482
3759.17295	0.01581
3757.24418	0.01692
3755.31541	0.01845
3753.38664	0.02025
3751.45787	0.02201
3749.5291	0.02361
3747.60033	0.02532
3745.67156	0.02745
3743.74279	0.02997
3741.81402	0.03264
3739.88525	0.03513
3737.95648	0.0372
3736.02771	0.03862
3734.09894	0.03929
3732.17017	0.03948
3730.2414	0.03939
3728.31263	0.039
3726.38386	0.0385
3724.45509	0.03801
3722.52632	0.03739
3720.59755	0.03681
3718.66878	0.03654
3716.74001	0.03642
3714.81124	0.0363
3712.88247	0.03645
3710.9537	0.03725
3709.02493	0.03867
3707.09616	0.04051
3705.16739	0.04276
3703.23861	0.04549
3701.30984	0.04858
3699.38107	0.05174
3697.4523	0.05493
3695.52353	0.05833
3693.59476	0.06178
3691.66599	0.06516
3689.73722	0.06846
3687.80845	0.07167
3685.87968	0.07508
3683.95091	0.07862
3682.02214	0.0819
3680.09337	0.0847
3678.1646	0.08713
3676.23583	0.08935
3674.30706	0.09113
3672.37829	0.09215
3670.44952	0.09296
3668.52075	0.09417
3666.59198	0.09567
3664.66321	0.09718
3662.73444	0.09857
3660.80567	0.0996
3658.8769	0.09996
3656.94813	0.09957
3655.01936	0.09856
3653.09059	0.09707
3651.16182	0.09561
3649.23305	0.09478
3647.30428	0.09455
3645.37551	0.09469
3643.44674	0.09492
3641.51797	0.09488
3639.5892	0.09467
3637.66043	0.0946
3635.73166	0.09479
3633.80289	0.0952
3631.87412	0.09566
3629.94535	0.09615
3628.01658	0.09682
3626.08781	0.09798
3624.15904	0.10001
3622.23027	0.10264
3620.3015	0.10524
3618.37273	0.10761
3616.44396	0.10995
3614.51519	0.11237
3612.58642	0.11466
3610.65765	0.11668
3608.72888	0.11872
3606.80011	0.12114
3604.87134	0.12417
3602.94257	0.1278
3601.0138	0.13139
3599.08503	0.13448
3597.15626	0.13703
3595.22749	0.13928
3593.29872	0.14149
3591.36995	0.14357
3589.44118	0.1456
3587.51241	0.14801
3585.58364	0.15103
3583.65487	0.15472
3581.7261	0.15889
3579.79733	0.16305
3577.86856	0.16691
3575.93979	0.17054
3574.01102	0.17417
3572.08225	0.17788
3570.15348	0.18165
3568.22471	0.18557
3566.29594	0.18987
3564.36717	0.19477
3562.4384	0.20022
3560.50963	0.20573
3558.58086	0.21095
3556.65209	0.21588
3554.72332	0.22057
3552.79455	0.2249
3550.86578	0.22886
3548.93701	0.23263
3547.00824	0.23646
3545.07947	0.24068
3543.1507	0.24562
3541.22193	0.25133
3539.29316	0.25735
3537.36439	0.26331
3535.43562	0.26911
3533.50685	0.27469
3531.57807	0.28014
3529.6493	0.28569
3527.72053	0.29147
3525.79176	0.29771
3523.86299	0.30506
3521.93422	0.31423
3520.00545	0.32515
3518.07668	0.33713
3516.14791	0.34952
3514.21914	0.36204
3512.29037	0.37453
3510.3616	0.38671
3508.43283	0.39829
3506.50406	0.40903
3504.57529	0.4189
3502.64652	0.42811
3500.71775	0.43678
3498.78898	0.44463
3496.86021	0.45131
3494.93144	0.45668
3493.00267	0.46084
3491.0739	0.46391
3489.14513	0.466
3487.21636	0.46732
3485.28759	0.46816
3483.35882	0.46885
3481.43005	0.4698
3479.50128	0.47152
3477.57251	0.47428
3475.64374	0.47791
3473.71497	0.48203
3471.7862	0.48628
3469.85743	0.49053
3467.92866	0.49481
3465.99989	0.49921
3464.07112	0.50371
3462.14235	0.50829
3460.21358	0.5129
3458.28481	0.51766
3456.35604	0.52274
3454.42727	0.52811
3452.4985	0.53362
3450.56973	0.53938
3448.64096	0.54555
3446.71219	0.55208
3444.78342	0.55884
3442.85465	0.56594
3440.92588	0.57355
3438.99711	0.58163
3437.06834	0.59006
3435.13957	0.59878
3433.2108	0.60765
3431.28203	0.61654
3429.35326	0.62537
3427.42449	0.63394
3425.49572	0.64205
3423.56695	0.64969
3421.63818	0.65684
3419.70941	0.66324
3417.78064	0.66861
3415.85187	0.67294
3413.9231	0.67642
3411.99433	0.67913
3410.06556	0.68097
3408.13679	0.68193
3406.20802	0.68216
3404.27925	0.68186
3402.35048	0.68116
3400.42171	0.68018
3398.49294	0.67915
3396.56417	0.6784
3394.6354	0.67805
3392.70663	0.67806
3390.77786	0.67863
3388.84909	0.68001
3386.92032	0.68224
3384.99155	0.68521
3383.06278	0.68887
3381.13401	0.69315
3379.20524	0.69798
3377.27647	0.70329
3375.3477	0.70896
3373.41893	0.71487
3371.49016	0.72088
3369.56139	0.72687
3367.63262	0.7327
3365.70385	0.73812
3363.77508	0.7429
3361.84631	0.74698
3359.91753	0.75041
3357.98876	0.75327
3356.05999	0.75557
3354.13122	0.75729
3352.20245	0.75837
3350.27368	0.75876
3348.34491	0.75846
3346.41614	0.75759
3344.48737	0.75632
3342.5586	0.75473
3340.62983	0.75288
3338.70106	0.7509
3336.77229	0.74898
3334.84352	0.74722
3332.91475	0.74578
3330.98598	0.74492
3329.05721	0.74485
3327.12844	0.74572
3325.19967	0.74752
3323.2709	0.75012
3321.34213	0.75331
3319.41336	0.75691
3317.48459	0.76073
3315.55582	0.76459
3313.62705	0.76849
3311.69828	0.77235
3309.76951	0.77594
3307.84074	0.77903
3305.91197	0.78152
3303.9832	0.78337
3302.05443	0.78463
3300.12566	0.78535
3298.19689	0.78558
3296.26812	0.78534
3294.33935	0.78468
3292.41058	0.78368
3290.48181	0.78241
3288.55304	0.78098
3286.62427	0.77957
3284.6955	0.7783
3282.76673	0.77714
3280.83796	0.77594
3278.90919	0.77451
3276.98042	0.77269
3275.05165	0.77028
3273.12288	0.76709
3271.19411	0.76297
3269.26534	0.75795
3267.33657	0.75209
3265.4078	0.7454
3263.47903	0.73785
3261.55026	0.72951
3259.62149	0.72051
3257.69272	0.71101
3255.76395	0.70119
3253.83518	0.69116
3251.90641	0.68102
3249.97764	0.67079
3248.04887	0.6605
3246.1201	0.65029
3244.19133	0.64029
3242.26256	0.6307
3240.33379	0.62176
3238.40502	0.61372
3236.47625	0.60667
3234.54748	0.60061
3232.61871	0.59543
3230.68994	0.59092
3228.76117	0.58681
3226.8324	0.58283
3224.90363	0.57888
3222.97486	0.57489
3221.04609	0.57079
3219.11732	0.5665
3217.18855	0.56197
3215.25978	0.5572
3213.33101	0.55212
3211.40224	0.5467
3209.47347	0.54082
3207.5447	0.53437
3205.61593	0.52729
3203.68716	0.51957
3201.75839	0.51134
3199.82962	0.50284
3197.90085	0.49428
3195.97208	0.48586
3194.04331	0.47776
3192.11454	0.47
3190.18577	0.4625
3188.257	0.4551
3186.32822	0.44768
3184.39945	0.44018
3182.47068	0.43263
3180.54191	0.42506
3178.61314	0.41752
3176.68437	0.41012
3174.7556	0.40302
3172.82683	0.39636
3170.89806	0.39014
3168.96929	0.3843
3167.04052	0.37877
3165.11175	0.37347
3163.18298	0.36832
3161.25421	0.36334
3159.32544	0.35856
3157.39667	0.35396
3155.4679	0.34944
3153.53913	0.34499
3151.61036	0.34058
3149.68159	0.33617
3147.75282	0.33169
3145.82405	0.3271
3143.89528	0.32249
3141.96651	0.31799
3140.03774	0.31367
3138.10897	0.3095
3136.1802	0.3054
3134.25143	0.30129
3132.32266	0.29715
3130.39389	0.29303
3128.46512	0.28893
3126.53635	0.28476
3124.60758	0.28042
3122.67881	0.27593
3120.75004	0.27144
3118.82127	0.26695
3116.8925	0.2625
3114.96373	0.25811
3113.03496	0.25382
3111.10619	0.24953
3109.17742	0.24522
3107.24865	0.24096
3105.31988	0.23679
3103.39111	0.23271
3101.46234	0.22879
3099.53357	0.22521
3097.6048	0.2221
3095.67603	0.21938
3093.74726	0.21689
3091.81849	0.21446
3089.88972	0.21209
3087.96095	0.2099
3086.03218	0.20793
3084.10341	0.20611
3082.17464	0.20428
3080.24587	0.20238
3078.3171	0.20056
3076.38833	0.19893
3074.45956	0.19752
3072.53079	0.19625
3070.60202	0.19513
3068.67325	0.19419
3066.74448	0.19341
3064.81571	0.19279
3062.88694	0.19234
3060.95817	0.19205
3059.0294	0.19187
3057.10063	0.19183
3055.17186	0.19194
3053.24309	0.19218
3051.31432	0.19242
3049.38555	0.19256
3047.45678	0.19264
3045.52801	0.19284
3043.59924	0.19328
3041.67047	0.19391
3039.7417	0.19468
3037.81293	0.19555
3035.88416	0.1966
3033.95539	0.198
3032.02662	0.19995
3030.09785	0.2025
3028.16908	0.20568
3026.24031	0.20953
3024.31154	0.2141
3022.38277	0.21946
3020.454	0.2257
3018.52523	0.23288
3016.59646	0.24075
3014.66768	0.24884
3012.73891	0.25716
3010.81014	0.26642
3008.88137	0.27706
3006.9526	0.28883
3005.02383	0.30125
3003.09506	0.31399
3001.16629	0.32692
2999.23752	0.33995
2997.30875	0.35294
2995.37998	0.36589
2993.45121	0.37896
2991.52244	0.39216
2989.59367	0.40528
2987.6649	0.41794
2985.73613	0.42961
2983.80736	0.43976
2981.87859	0.44801
2979.94982	0.45418
2978.02105	0.45821
2976.09228	0.46019
2974.16351	0.46024
2972.23474	0.45842
2970.30597	0.45479
2968.3772	0.44984
2966.44843	0.44474
2964.51966	0.44049
2962.59089	0.43722
2960.66212	0.43474
2958.73335	0.43315
2956.80458	0.43279
2954.87581	0.43383
2952.94704	0.43634
2951.01827	0.44034
2949.0895	0.44584
2947.16073	0.45264
2945.23196	0.4603
2943.30319	0.46821
2941.37442	0.47578
2939.44565	0.48248
2937.51688	0.48792
2935.58811	0.49196
2933.65934	0.49469
2931.73057	0.49618
2929.8018	0.49639
2927.87303	0.49526
2925.94426	0.49289
2924.01549	0.48989
2922.08672	0.4872
2920.15795	0.48516
2918.22918	0.48363
2916.30041	0.48245
2914.37164	0.48157
2912.44287	0.48079
2910.5141	0.47981
2908.58533	0.47841
2906.65656	0.47662
2904.72779	0.47458
2902.79902	0.47229
2900.87025	0.46971
2898.94148	0.46675
2897.01271	0.46331
2895.08394	0.4593
2893.15517	0.45466
2891.2264	0.44937
2889.29763	0.44354
2887.36886	0.43723
2885.44009	0.43026
2883.51132	0.42247
2881.58255	0.41397
2879.65378	0.40507
2877.72501	0.39611
2875.79624	0.38702
2873.86747	0.37729
2871.9387	0.36666
2870.00993	0.35534
2868.08116	0.34348
2866.15239	0.33108
2864.22362	0.31824
2862.29485	0.3053
2860.36608	0.29267
2858.43731	0.28056
2856.50854	0.26897
2854.57977	0.25793
2852.651	0.24749
2850.72223	0.23771
2848.79346	0.22868
2846.86469	0.22049
2844.93592	0.21321
2843.00714	0.20685
2841.07837	0.20129
2839.1496	0.19638
2837.22083	0.192
2835.29206	0.18805
2833.36329	0.18451
2831.43452	0.18135
2829.50575	0.17854
2827.57698	0.176
2825.64821	0.17361
2823.71944	0.17131
2821.79067	0.169
2819.8619	0.16664
2817.93313	0.16427
2816.00436	0.16193
2814.07559	0.15962
2812.14682	0.1573
2810.21805	0.15495
2808.28928	0.15259
2806.36051	0.15018
2804.43174	0.14773
2802.50297	0.14525
2800.5742	0.14281
2798.64543	0.14048
2796.71666	0.13834
2794.78789	0.13638
2792.85912	0.13457
2790.93035	0.13282
2789.00158	0.13115
2787.07281	0.12964
2785.14404	0.12827
2783.21527	0.12695
2781.2865	0.12559
2779.35773	0.12418
2777.42896	0.12273
2775.50019	0.12131
2773.57142	0.1199
2771.64265	0.11851
2769.71388	0.1172
2767.78511	0.11605
2765.85634	0.11503
2763.92757	0.11407
2761.9988	0.11309
2760.07003	0.1121
2758.14126	0.11115
2756.21249	0.11024
2754.28372	0.10936
2752.35495	0.10856
2750.42618	0.10788
2748.49741	0.10731
2746.56864	0.10679
2744.63987	0.10626
2742.7111	0.10575
2740.78233	0.10526
2738.85356	0.10477
2736.92479	0.10426
2734.99602	0.10371
2733.06725	0.10313
2731.13848	0.10251
2729.20971	0.10186
2727.28094	0.10118
2725.35217	0.10052
2723.4234	0.0999
2721.49463	0.09926
2719.56586	0.09852
2717.63709	0.09767
2715.70832	0.09676
2713.77955	0.09585
2711.85078	0.09495
2709.92201	0.09399
2707.99324	0.09296
2706.06447	0.09187
2704.1357	0.09082
2702.20693	0.0899
2700.27816	0.08909
2698.34939	0.08838
2696.42062	0.08773
2694.49185	0.08713
2692.56308	0.08655
2690.63431	0.08596
2688.70554	0.08534
2686.77677	0.08472
2684.848	0.08411
2682.91923	0.0835
2680.99046	0.08288
2679.06169	0.08226
2677.13292	0.08163
2675.20415	0.08096
2673.27538	0.08026
2671.34661	0.07953
2669.41783	0.07882
2667.48906	0.07813
2665.56029	0.07742
2663.63152	0.07664
2661.70275	0.07582
2659.77398	0.07503
2657.84521	0.07437
2655.91644	0.07383
2653.98767	0.07334
2652.0589	0.07284
2650.13013	0.07232
2648.20136	0.0718
2646.27259	0.07128
2644.34382	0.07075
2642.41505	0.07017
2640.48628	0.06956
2638.55751	0.06891
2636.62874	0.06825
2634.69997	0.06758
2632.7712	0.06684
2630.84243	0.06604
2628.91366	0.06518
2626.98489	0.06429
2625.05612	0.0634
2623.12735	0.06252
2621.19858	0.06163
2619.26981	0.06076
2617.34104	0.05993
2615.41227	0.05918
2613.4835	0.05853
2611.55473	0.05794
2609.62596	0.05736
2607.69719	0.05675
2605.76842	0.05616
2603.83965	0.05566
2601.91088	0.05529
2599.98211	0.055
2598.05334	0.05471
2596.12457	0.05443
2594.1958	0.05418
2592.26703	0.054
2590.33826	0.05387
2588.40949	0.05372
2586.48072	0.05358
2584.55195	0.05346
2582.62318	0.05336
2580.69441	0.05324
2578.76564	0.05313
2576.83687	0.05309
2574.9081	0.05311
2572.97933	0.05311
2571.05056	0.05304
2569.12179	0.0529
2567.19302	0.05273
2565.26425	0.05258
2563.33548	0.0524
2561.40671	0.05214
2559.47794	0.05182
2557.54917	0.05149
2555.6204	0.05115
2553.69163	0.05079
2551.76286	0.05041
2549.83409	0.05006
2547.90532	0.04972
2545.97655	0.0494
2544.04778	0.0491
2542.11901	0.04884
2540.19024	0.04866
2538.26147	0.04854
2536.3327	0.04844
2534.40393	0.04838
2532.47516	0.04838
2530.54639	0.04841
2528.61762	0.04842
2526.68885	0.04837
2524.76008	0.04827
2522.83131	0.04814
2520.90254	0.04802
2518.97377	0.0479
2517.045	0.04772
2515.11623	0.04744
2513.18746	0.04709
2511.25869	0.04674
2509.32992	0.04644
2507.40115	0.04618
2505.47238	0.04589
2503.54361	0.04554
2501.61484	0.04516
2499.68607	0.0448
2497.75729	0.04446
2495.82852	0.04416
2493.89975	0.0439
2491.97098	0.04367
2490.04221	0.04348
2488.11344	0.04335
2486.18467	0.04329
2484.2559	0.04325
2482.32713	0.04323
2480.39836	0.04322
2478.46959	0.0432
2476.54082	0.04314
2474.61205	0.04309
2472.68328	0.04306
2470.75451	0.04298
2468.82574	0.04285
2466.89697	0.0427
2464.9682	0.04258
2463.03943	0.04247
2461.11066	0.04229
2459.18189	0.04199
2457.25312	0.04162
2455.32435	0.04117
2453.39558	0.04068
2451.46681	0.04022
2449.53804	0.03981
2447.60927	0.03945
2445.6805	0.03914
2443.75173	0.03892
2441.82296	0.03878
2439.89419	0.0387
2437.96542	0.03864
2436.03665	0.03863
2434.10788	0.03867
2432.17911	0.03876
2430.25034	0.03887
2428.32157	0.039
2426.3928	0.03913
2424.46403	0.03926
2422.53526	0.03938
2420.60649	0.0395
2418.67772	0.03962
2416.74895	0.03972
2414.82018	0.03978
2412.89141	0.03978
2410.96264	0.03973
2409.03387	0.03967
2407.1051	0.03963
2405.17633	0.03963
2403.24756	0.03963
2401.31879	0.03963
2399.39002	0.03963
2397.46125	0.03963
2395.53248	0.03963
2393.60371	0.03963
2391.67494	0.03963
2389.74617	0.03963
2387.8174	0.03963
2385.88863	0.03963
2383.95986	0.03963
2382.03109	0.03963
2380.10232	0.03963
2378.17355	0.03963
2376.24478	0.03963
2374.31601	0.03963
2372.38724	0.03963
2370.45847	0.03963
2368.5297	0.03963
2366.60093	0.03963
2364.67216	0.03963
2362.74339	0.03963
2360.81462	0.03963
2358.88585	0.03963
2356.95708	0.03963
2355.02831	0.03963
2353.09954	0.03963
2351.17077	0.03963
2349.242	0.03963
2347.31323	0.03963
2345.38446	0.03963
2343.45569	0.03963
2341.52692	0.03963
2339.59815	0.03963
2337.66938	0.03963
2335.74061	0.03963
2333.81184	0.03963
2331.88307	0.03963
2329.9543	0.03963
2328.02553	0.03963
2326.09675	0.03963
2324.16798	0.03963
2322.23921	0.03963
2320.31044	0.03963
2318.38167	0.03963
2316.4529	0.03963
2314.52413	0.03963
2312.59536	0.03963
2310.66659	0.03963
2308.73782	0.03963
2306.80905	0.03963
2304.88028	0.03963
2302.95151	0.03963
2301.02274	0.03963
2299.09397	0.03963
2297.1652	0.03963
2295.23643	0.03963
2293.30766	0.03963
2291.37889	0.03963
2289.45012	0.03963
2287.52135	0.03963
2285.59258	0.03963
2283.66381	0.03963
2281.73504	0.03963
2279.80627	0.03963
2277.8775	0.03963
2275.94873	0.03963
2274.01996	0.03954
2272.09119	0.03968
2270.16242	0.03981
2268.23365	0.03992
2266.30488	0.04001
2264.37611	0.04004
2262.44734	0.03998
2260.51857	0.03981
2258.5898	0.03958
2256.66103	0.03937
2254.73226	0.03914
2252.80349	0.03882
2250.87472	0.03843
2248.94595	0.03801
2247.01718	0.03749
2245.08841	0.03684
2243.15964	0.03613
2241.23087	0.03535
2239.3021	0.0345
2237.37333	0.0336
2235.44456	0.03274
2233.51579	0.03198
2231.58702	0.0313
2229.65825	0.03066
2227.72948	0.03009
2225.80071	0.0298
2223.87194	0.02945
2221.94317	0.02914
2220.0144	0.02892
2218.08563	0.02882
2216.15686	0.02879
2214.22809	0.02876
2212.29932	0.02866
2210.37055	0.02848
2208.44178	0.02828
2206.51301	0.02819
2204.58424	0.02828
2202.65547	0.02842
2200.7267	0.0285
2198.79793	0.02858
2196.86916	0.02868
2194.94039	0.02871
2193.01162	0.02871
2191.08285	0.02877
2189.15408	0.02896
2187.22531	0.02921
2185.29654	0.02941
2183.36777	0.02952
2181.439	0.02961
2179.51023	0.0295
2177.58146	0.02896
2175.65269	0.02801
2173.72392	0.02683
2171.79515	0.02562
2169.86638	0.02438
2167.93761	0.02312
2166.00884	0.02188
2164.08007	0.02073
2162.1513	0.01973
2160.22253	0.019
2158.29376	0.01857
2156.36499	0.0184
2154.43622	0.01847
2152.50744	0.01877
2150.57867	0.01921
2148.6499	0.01977
2146.72113	0.02056
2144.79236	0.0216
2142.86359	0.02279
2140.93482	0.02411
2139.00605	0.02547
2137.07728	0.0268
2135.14851	0.02795
2133.21974	0.02873
2131.29097	0.02923
2129.3622	0.02968
2127.43343	0.03023
2125.50466	0.03091
2123.57589	0.0316
2121.64712	0.03218
2119.71835	0.03261
2117.78958	0.03286
2115.86081	0.033
2113.93204	0.03314
2112.00327	0.03331
2110.0745	0.03347
2108.14573	0.03357
2106.21696	0.03352
2104.28819	0.03329
2102.35942	0.03297
2100.43065	0.03267
2098.50188	0.03241
2096.57311	0.0322
2094.64434	0.03209
2092.71557	0.0321
2090.7868	0.03214
2088.85803	0.03213
2086.92926	0.03209
2085.00049	0.03208
2083.07172	0.03211
2081.14295	0.03216
2079.21418	0.0322
2077.28541	0.03211
2075.35664	0.03187
2073.42787	0.03156
2071.4991	0.03126
2069.57033	0.03096
2067.64156	0.03065
2065.71279	0.03032
2063.78402	0.02995
2061.85525	0.0295
2059.92648	0.029
2057.99771	0.02846
2056.06894	0.02784
2054.14017	0.02711
2052.2114	0.02625
2050.28263	0.02532
2048.35386	0.02436
2046.42509	0.02332
2044.49632	0.0221
2042.56755	0.02074
2040.63878	0.01937
2038.71001	0.01808
2036.78124	0.01689
2034.85247	0.01573
2032.9237	0.01453
2030.99493	0.01322
2029.06616	0.01186
2027.13739	0.01066
2025.20862	0.00976
2023.27985	0.00913
2021.35108	0.00863
2019.42231	0.00821
2017.49354	0.00793
2015.56477	0.0079
2013.636	0.0081
2011.70723	0.00842
2009.77846	0.00875
2007.84969	0.00912
2005.92092	0.00961
2003.99215	0.01027
2002.06338	0.01109
2000.13461	0.01191
1998.20584	0.01261
1996.27707	0.01315
1994.3483	0.01355
1992.41953	0.0138
1990.49076	0.01391
1988.56199	0.01386
1986.63322	0.01369
1984.70445	0.0134
1982.77568	0.01309
1980.8469	0.01287
1978.91813	0.0128
1976.98936	0.01277
1975.06059	0.01275
1973.13182	0.0128
1971.20305	0.013
1969.27428	0.01337
1967.34551	0.01387
1965.41674	0.01446
1963.48797	0.01519
1961.5592	0.0161
1959.63043	0.01716
1957.70166	0.01832
1955.77289	0.01947
1953.84412	0.02045
1951.91535	0.0212
1949.98658	0.02174
1948.05781	0.02212
1946.12904	0.02246
1944.20027	0.02288
1942.2715	0.02342
1940.34273	0.02396
1938.41396	0.02443
1936.48519	0.02483
1934.55642	0.02518
1932.62765	0.02551
1930.69888	0.02584
1928.77011	0.02621
1926.84134	0.02655
1924.91257	0.02678
1922.9838	0.02684
1921.05503	0.02677
1919.12626	0.02666
1917.19749	0.02656
1915.26872	0.02646
1913.33995	0.02628
1911.41118	0.02601
1909.48241	0.02568
1907.55364	0.02534
1905.62487	0.025
1903.6961	0.02469
1901.76733	0.02443
1899.83856	0.02428
1897.90979	0.02424
1895.98102	0.02422
1894.05225	0.02414
1892.12348	0.02405
1890.19471	0.02404
1888.26594	0.02418
1886.33717	0.02445
1884.4084	0.02476
1882.47963	0.02504
1880.55086	0.02524
1878.62209	0.02536
1876.69332	0.0254
1874.76455	0.02538
1872.83578	0.0253
1870.90701	0.0252
1868.97824	0.02506
1867.04947	0.02489
1865.1207	0.02476
1863.19193	0.02473
1861.26316	0.02476
1859.33439	0.02479
1857.40562	0.02481
1855.47685	0.02485
1853.54808	0.02491
1851.61931	0.02498
1849.69054	0.0251
1847.76177	0.02531
1845.833	0.02568
1843.90423	0.02624
1841.97546	0.02692
1840.04669	0.02766
1838.11792	0.02842
1836.18915	0.02923
1834.26038	0.03009
1832.33161	0.03105
1830.40284	0.03224
1828.47407	0.03382
1826.5453	0.03586
1824.61653	0.03841
1822.68776	0.04164
1820.75899	0.04587
1818.83022	0.0513
1816.90145	0.05772
1814.97268	0.0649
1813.04391	0.07322
1811.11514	0.08323
1809.18636	0.09486
1807.25759	0.10805
1805.32882	0.12332
1803.40005	0.14168
1801.47128	0.16433
1799.54251	0.19189
1797.61374	0.22369
1795.68497	0.25835
1793.7562	0.29494
1791.82743	0.33299
1789.89866	0.3714
1787.96989	0.40839
1786.04112	0.44222
1784.11235	0.47157
1782.18358	0.49533
1780.25481	0.51273
1778.32604	0.52349
1776.39727	0.52773
1774.4685	0.52584
1772.53973	0.51915
1770.61096	0.50989
1768.68219	0.49975
1766.75342	0.48946
1764.82465	0.47886
1762.89588	0.46767
1760.96711	0.45639
1759.03834	0.4461
1757.10957	0.43775
1755.1808	0.43185
1753.25203	0.42811
1751.32326	0.42553
1749.39449	0.42355
1747.46572	0.42225
1745.53695	0.42151
1743.60818	0.42027
1741.67941	0.41679
1739.75064	0.41044
1737.82187	0.40302
1735.8931	0.39692
1733.96433	0.39375
1732.03556	0.3948
1730.10679	0.40135
1728.17802	0.41403
1726.24925	0.43254
1724.32048	0.45554
1722.39171	0.48021
1720.46294	0.50309
1718.53417	0.52185
1716.6054	0.53531
1714.67663	0.54291
1712.74786	0.54456
1710.81909	0.54052
1708.89032	0.5312
1706.96155	0.51681
1705.03278	0.49785
1703.10401	0.47528
1701.17524	0.44996
1699.24647	0.42261
1697.3177	0.39385
1695.38893	0.3646
1693.46016	0.33693
1691.53139	0.31365
1689.60262	0.2962
1687.67385	0.28444
1685.74508	0.2779
1683.81631	0.27638
1681.88754	0.27936
1679.95877	0.28579
1678.03	0.29507
1676.10123	0.30679
1674.17246	0.32018
1672.24369	0.33488
1670.31492	0.35073
1668.38615	0.36652
1666.45738	0.38054
1664.52861	0.39183
1662.59984	0.39996
1660.67107	0.40473
1658.7423	0.40624
1656.81353	0.40454
1654.88476	0.39941
1652.95599	0.39068
1651.02722	0.37845
1649.09845	0.3633
1647.16968	0.34604
1645.24091	0.32747
1643.31214	0.30813
1641.38337	0.28803
1639.4546	0.26775
1637.52583	0.24926
1635.59705	0.23445
1633.66828	0.2241
1631.73951	0.21845
1629.81074	0.2172
1627.88197	0.2192
1625.9532	0.22297
1624.02443	0.22707
1622.09566	0.22985
1620.16689	0.23056
1618.23812	0.22953
1616.30935	0.22703
1614.38058	0.22307
1612.45181	0.21774
1610.52304	0.2113
1608.59427	0.20395
1606.6655	0.19583
1604.73673	0.18725
1602.80796	0.17861
1600.87919	0.16988
1598.95042	0.16061
1597.02165	0.15048
1595.09288	0.13971
1593.16411	0.12902
1591.23534	0.11949
1589.30657	0.11178
1587.3778	0.10584
1585.44903	0.10136
1583.52026	0.09775
1581.59149	0.09443
1579.66272	0.09156
1577.73395	0.08968
1575.80518	0.08897
1573.87641	0.08932
1571.94764	0.0906
1570.01887	0.09263
1568.0901	0.09522
1566.16133	0.09811
1564.23256	0.10087
1562.30379	0.10346
1560.37502	0.10672
1558.44625	0.11104
1556.51748	0.11615
1554.58871	0.12207
1552.65994	0.12909
1550.73117	0.13741
1548.8024	0.14702
1546.87363	0.15779
1544.94486	0.16953
1543.01609	0.18174
1541.08732	0.1937
1539.15855	0.2048
1537.22978	0.21442
1535.30101	0.22217
1533.37224	0.22819
1531.44347	0.23241
1529.5147	0.2344
1527.58593	0.23355
1525.65716	0.22955
1523.72839	0.22244
1521.79962	0.21238
1519.87085	0.19963
1517.94208	0.18476
1516.01331	0.16882
1514.08454	0.15274
1512.15577	0.1364
1510.227	0.12026
1508.29823	0.10575
1506.36946	0.09415
1504.44069	0.0861
1502.51192	0.0817
1500.58315	0.08043
1498.65438	0.0813
1496.72561	0.08323
1494.79684	0.08577
1492.86807	0.08913
1490.9393	0.09342
1489.01053	0.09856
1487.08176	0.10462
1485.15299	0.11173
1483.22422	0.11956
1481.29545	0.12726
1479.36668	0.13449
1477.43791	0.14154
1475.50914	0.14852
1473.58037	0.15525
1471.6516	0.16163
1469.72283	0.1675
1467.79406	0.17261
1465.86529	0.17705
1463.93651	0.18139
1462.00774	0.18603
1460.07897	0.19093
1458.1502	0.1957
1456.22143	0.19976
1454.29266	0.2024
1452.36389	0.20323
1450.43512	0.20238
1448.50635	0.20033
1446.57758	0.19764
1444.64881	0.19489
1442.72004	0.19276
1440.79127	0.19217
1438.8625	0.19382
1436.93373	0.19745
1435.00496	0.2025
1433.07619	0.20902
1431.14742	0.2175
1429.21865	0.22799
1427.28988	0.24028
1425.36111	0.25403
1423.43234	0.26857
1421.50357	0.28304
1419.5748	0.29691
1417.64603	0.31004
1415.71726	0.32243
1413.78849	0.33394
1411.85972	0.34432
1409.93095	0.3536
1408.00218	0.36203
1406.07341	0.36968
1404.14464	0.37631
1402.21587	0.3816
1400.2871	0.38552
1398.35833	0.38852
1396.42956	0.39132
1394.50079	0.39462
1392.57202	0.39831
1390.64325	0.40138
1388.71448	0.40289
1386.78571	0.40262
1384.85694	0.40072
1382.92817	0.39718
1380.9994	0.39178
1379.07063	0.38419
1377.14186	0.37422
1375.21309	0.36205
1373.28432	0.34831
1371.35555	0.33372
1369.42678	0.31884
1367.49801	0.304
1365.56924	0.2896
1363.64047	0.27629
1361.7117	0.26508
1359.78293	0.25719
1357.85416	0.2536
1355.92539	0.25485
1353.99662	0.26118
1352.06785	0.27264
1350.13908	0.28892
1348.21031	0.30897
1346.28154	0.33106
1344.35277	0.35335
1342.424	0.37446
1340.49523	0.39353
1338.56646	0.40975
1336.63769	0.42234
1334.70892	0.43063
1332.78015	0.43438
1330.85138	0.43378
1328.92261	0.4294
1326.99384	0.42202
1325.06507	0.41243
1323.1363	0.40127
1321.20753	0.38906
1319.27876	0.37635
1317.34999	0.36398
1315.42122	0.35319
1313.49245	0.34485
1311.56368	0.33883
1309.63491	0.33436
1307.70614	0.33064
1305.77737	0.3269
1303.8486	0.32246
1301.91983	0.3168
1299.99106	0.30951
1298.06229	0.30033
1296.13352	0.28928
1294.20475	0.27672
1292.27597	0.26338
1290.3472	0.25021
1288.41843	0.23815
1286.48966	0.22804
1284.56089	0.22066
1282.63212	0.21653
1280.70335	0.21568
1278.77458	0.2176
1276.84581	0.2216
1274.91704	0.22714
1272.98827	0.23389
1271.0595	0.24149
1269.13073	0.24941
1267.20196	0.25717
1265.27319	0.26453
1263.34442	0.2714
1261.41565	0.27744
1259.48688	0.28215
1257.55811	0.28523
1255.62934	0.2866
1253.70057	0.28636
1251.7718	0.28484
1249.84303	0.2826
1247.91426	0.28037
1245.98549	0.27918
1244.05672	0.28002
1242.12795	0.28333
1240.19918	0.28875
1238.27041	0.29535
1236.34164	0.30209
1234.41287	0.30813
1232.4841	0.31299
1230.55533	0.31659
1228.62656	0.31913
1226.69779	0.3208
1224.76902	0.32162
1222.84025	0.32141
1220.91148	0.31989
1218.98271	0.31683
1217.05394	0.31198
1215.12517	0.30512
1213.1964	0.29624
1211.26763	0.28553
1209.33886	0.27317
1207.41009	0.25937
1205.48132	0.2444
1203.55255	0.22867
1201.62378	0.21286
1199.69501	0.19796
1197.76624	0.18491
1195.83747	0.17422
1193.9087	0.16599
1191.97993	0.16005
1190.05116	0.15612
1188.12239	0.1539
1186.19362	0.15322
1184.26485	0.15424
1182.33608	0.15749
1180.40731	0.16375
1178.47854	0.17376
1176.54977	0.18787
1174.621	0.20593
1172.69223	0.22742
1170.76346	0.25158
1168.83469	0.27735
1166.90592	0.30346
1164.97715	0.32856
1163.04838	0.35142
1161.11961	0.37103
1159.19084	0.38665
1157.26207	0.39792
1155.3333	0.40485
1153.40453	0.4079
1151.47576	0.4078
1149.54699	0.40513
1147.61822	0.40006
1145.68945	0.39249
1143.76068	0.38247
1141.83191	0.37053
1139.90314	0.35764
1137.97437	0.345
1136.0456	0.33395
1134.11683	0.3258
1132.18806	0.32165
1130.25929	0.32216
1128.33052	0.32752
1126.40175	0.33761
1124.47298	0.35219
1122.54421	0.37068
1120.61544	0.39211
1118.68666	0.41512
1116.75789	0.43832
1114.82912	0.46046
1112.90035	0.4806
1110.97158	0.49823
1109.04281	0.51319
1107.11404	0.52561
1105.18527	0.53596
1103.2565	0.54516
1101.32773	0.55455
1099.39896	0.5654
1097.47019	0.57831
1095.54142	0.59285
1093.61265	0.60784
1091.68388	0.62201
1089.75511	0.63487
1087.82634	0.64688
1085.89757	0.65886
1083.9688	0.67152
1082.04003	0.68566
1080.11126	0.70214
1078.18249	0.72134
1076.25372	0.74251
1074.32495	0.76393
1072.39618	0.78356
1070.46741	0.79985
1068.53864	0.81265
1066.60987	0.82323
1064.6811	0.83342
1062.75233	0.8447
1060.82356	0.858
1058.89479	0.87383
1056.96602	0.89224
1055.03725	0.91267
1053.10848	0.93384
1051.17971	0.95409
1049.25094	0.97185
1047.32217	0.98576
1045.3934	0.995
1043.46463	0.99958
1041.53586	1
1039.60709	0.99677
1037.67832	0.99078
1035.74955	0.98361
1033.82078	0.97702
1031.89201	0.97192
1029.96324	0.96821
1028.03447	0.9653
1026.1057	0.96269
1024.17693	0.96048
1022.24816	0.95932
1020.31939	0.95956
1018.39062	0.96064
1016.46185	0.96108
1014.53308	0.95919
1012.60431	0.9537
1010.67554	0.94405
1008.74677	0.93024
1006.818	0.91253
1004.88923	0.89119
1002.96046	0.8662
1001.03169	0.83719
999.10292	0.80396
997.17415	0.76684
995.24538	0.72663
993.31661	0.68449
991.38784	0.64188
989.45907	0.60026
987.5303	0.56062
985.60153	0.5233
983.67276	0.48826
981.74399	0.45553
979.81522	0.42514
977.88645	0.39711
975.95768	0.37154
974.02891	0.34869
972.10014	0.32883
970.17137	0.31205
968.2426	0.29853
966.31383	0.28893
964.38506	0.28408
962.45629	0.28432
960.52752	0.28914
958.59875	0.29747
956.66998	0.30809
954.74121	0.31995
952.81244	0.33209
950.88367	0.34353
948.9549	0.35327
947.02612	0.36052
945.09735	0.36486
943.16858	0.36608
941.23981	0.36401
939.31104	0.35851
937.38227	0.34972
935.4535	0.33806
933.52473	0.32401
931.59596	0.30798
929.66719	0.29046
927.73842	0.27198
925.80965	0.25293
923.88088	0.23361
921.95211	0.21452
920.02334	0.19633
918.09457	0.17952
916.1658	0.16397
914.23703	0.14911
912.30826	0.13455
910.37949	0.12099
908.45072	0.11001
906.52195	0.10241
904.59318	0.09768
902.66441	0.09506
900.73564	0.09422
898.80687	0.09489
896.8781	0.09658
894.94933	0.09863
893.02056	0.10062
891.09179	0.10262
889.16302	0.10506
887.23425	0.10836
885.30548	0.11282
883.37671	0.11858
881.44794	0.12554
879.51917	0.13327
877.5904	0.1412
875.66163	0.14881
873.73286	0.15572
871.80409	0.1616
869.87532	0.16624
867.94655	0.16979
866.01778	0.17312
864.08901	0.17735
862.16024	0.18274
860.23147	0.18808
858.3027	0.19189
856.37393	0.19347
854.44516	0.1925
852.51639	0.1887
850.58762	0.18207
848.65885	0.17293
846.73008	0.16199
844.80131	0.15026
842.87254	0.13876
840.94377	0.12816
839.015	0.11866
837.08623	0.11014
835.15746	0.10224
833.22869	0.09459
831.29992	0.08696
829.37115	0.07933
827.44238	0.07172
825.51361	0.06421
823.58484	0.05704
821.65607	0.05053
819.7273	0.04492
817.79853	0.04014
815.86976	0.03602
813.94099	0.03234
812.01222	0.02884
810.08345	0.02529
808.15468	0.02164
806.22591	0.01798
804.29714	0.01447
802.36837	0.0115
800.4396	0.00976
798.51083	0.00992
796.58206	0.01211
794.65329	0.01578
792.72452	0.02026
790.79575	0.02517
788.86698	0.03037
786.93821	0.03578
785.00944	0.04132
783.08067	0.04703
781.1519	0.05312
779.22313	0.05985
777.29436	0.06729
775.36558	0.07535
773.43681	0.08403
771.50804	0.09336
769.57927	0.10323
767.6505	0.11327
765.72173	0.12303
763.79296	0.13212
761.86419	0.14022
759.93542	0.14705
758.00665	0.15243
756.07788	0.15638
754.14911	0.15897
752.22034	0.16
750.29157	0.15901
748.3628	0.15577
746.43403	0.15023
744.50526	0.14299
742.57649	0.13438
740.64772	0.12473
738.71895	0.11455
736.79018	0.10445
734.86141	0.09503
732.93264	0.08675
731.00387	0.07998
729.0751	0.07503
727.14633	0.07216
725.21756	0.07135
723.28879	0.07226
721.36002	0.07438
719.43125	0.07725
717.50248	0.08048
715.57371	0.0838
713.64494	0.08701
711.71617	0.08995
709.7874	0.09249
707.85863	0.09459
705.92986	0.09622
704.00109	0.09734
702.07232	0.09793
700.14355	0.09802
698.21478	0.09795
696.28601	0.09788
694.35724	0.09812
692.42847	0.09835
690.4997	0.09798
688.57093	0.09751
686.64216	0.09711
684.71339	0.09698
682.78462	0.09724
680.85585	0.0978
678.92708	0.09858
676.99831	0.09956
675.06954	0.10071
673.14077	0.102
671.212	0.10334
669.28323	0.10468
667.35446	0.106
665.42569	0.10722
663.49692	0.1083
661.56815	0.10923
659.63938	0.11002
657.71061	0.11068
655.78184	0.11127
653.85307	0.11189
651.9243	0.11265
649.99553	0.11358
648.06676	0.11434
646.13799	0.11431
644.20922	0.11355
642.28045	0.1128
640.35168	0.11206
638.42291	0.11166
636.49414	0.11163
634.56537	0.1119
632.6366	0.11259
630.70783	0.11388
628.77906	0.11583
626.85029	0.11839
624.92152	0.12142
622.99275	0.12483
621.06398	0.12851
619.13521	0.13228
617.20644	0.13607
615.27767	0.14001
613.3489	0.14441
611.42013	0.1494
609.49136	0.15486
607.56259	0.16046
605.63382	0.16586
603.70505	0.17083
601.77627	0.17521
599.8475	0.17898
597.91873	0.18215
595.98996	0.18483
594.06119	0.18717
592.13242	0.18916
590.20365	0.19063
588.27488	0.1915
586.34611	0.19175
584.41734	0.19131
582.48857	0.19005
580.5598	0.18786
578.63103	0.18475
576.70226	0.18086
574.77349	0.17639
572.84472	0.17157
570.91595	0.16672
568.98718	0.16222
567.05841	0.15833
565.12964	0.15494
563.20087	0.15179
561.2721	0.14869
559.34333	0.1457
557.41456	0.14301
555.48579	0.1408
553.55702	0.13907
551.62825	0.1378
549.69948	0.13697
547.77071	0.13657
545.84194	0.13651
543.91317	0.13661
541.9844	0.13667
540.05563	0.13659
538.12686	0.13624
536.19809	0.13557
534.26932	0.13456
532.34055	0.13327
530.41178	0.13171
528.48301	0.12983
526.55424	0.12762
524.62547	0.12512
522.6967	0.1224
520.76793	0.1195
518.83916	0.11641
516.91039	0.11317
514.98162	0.10993
513.05285	0.10701
511.12408	0.10464
509.19531	0.10287
507.26654	0.10163
505.33777	0.10084
503.409	0.1005
501.48023	0.10056
499.55146	0.10091
497.62269	0.10144
495.69392	0.10209
493.76515	0.10276
491.83638	0.10334
489.90761	0.10374
487.97884	0.10384
486.05007	0.10353
484.1213	0.10265
482.19253	0.10111
480.26376	0.09888
478.33499	0.09596
476.40622	0.09245
474.47745	0.08851
472.54868	0.08434
470.61991	0.08016
468.69114	0.07608
466.76237	0.07219
464.8336	0.06848
462.90483	0.06496
460.97606	0.06169
459.04729	0.05879
457.11852	0.05635
455.18975	0.05435
453.26098	0.05269
451.33221	0.05139
449.40344	0.0506
447.47467	0.05047
445.5459	0.051
443.61713	0.05197
441.68836	0.05313
439.75959	0.05424
437.83082	0.05507
435.90205	0.05547
433.97328	0.05539
432.04451	0.05485
430.11573	0.05389
428.18696	0.05247
426.25819	0.05052
424.32942	0.04799
422.40065	0.04485
420.47188	0.04252
418.54311	0.03994
416.61434	0.0371
414.68557	0.034
412.7568	0.03065
410.82803	0.02704
408.89926	0.02318
406.97049	0.01905
405.04172	0.01467
403.11295	0.01004
401.18418	0.00515
399.25541	0