3996.41167	0.031
3994.4829	0.03132
3992.55413	0.03163
3990.62536	0.03194
3988.69659	0.03224
3986.76782	0.03253
3984.83905	0.03282
3982.91028	0.0331
3980.98151	0.03338
3979.05274	0.03365
3977.12397	0.03391
3975.1952	0.03417
3973.26643	0.03442
3971.33766	0.03446
3969.40889	0.03467
3967.48012	0.03501
3965.55135	0.03537
3963.62258	0.03579
3961.69381	0.03632
3959.76504	0.03689
3957.83627	0.03731
3955.9075	0.03743
3953.97873	0.0374
3952.04996	0.03757
3950.12119	0.0379
3948.19242	0.03817
3946.26365	0.0384
3944.33488	0.03871
3942.40611	0.03893
3940.47734	0.03893
3938.54857	0.03896
3936.6198	0.03931
3934.69103	0.03989
3932.76226	0.04049
3930.83349	0.04089
3928.90472	0.04079
3926.97595	0.0401
3925.04718	0.03927
3923.11841	0.03877
3921.18964	0.03877
3919.26087	0.03936
3917.3321	0.04034
3915.40333	0.04119
3913.47456	0.04165
3911.54579	0.0419
3909.61702	0.04195
3907.68825	0.04187
3905.75948	0.0418
3903.83071	0.04157
3901.90194	0.04129
3899.97317	0.04145
3898.0444	0.04193
3896.11563	0.04209
3894.18686	0.04179
3892.25809	0.04149
3890.32932	0.04157
3888.40055	0.04171
3886.47178	0.04135
3884.54301	0.04055
3882.61424	0.03981
3880.68547	0.03961
3878.7567	0.03987
3876.82792	0.03958
3874.89915	0.03851
3872.97038	0.03768
3871.04161	0.0374
3869.11284	0.03735
3867.18407	0.03742
3865.2553	0.03748
3863.32653	0.03711
3861.39776	0.03616
3859.46899	0.03504
3857.54022	0.03415
3855.61145	0.03367
3853.68268	0.0335
3851.75391	0.03325
3849.82514	0.03282
3847.89637	0.03262
3845.9676	0.03281
3844.03883	0.0329
3842.11006	0.03252
3840.18129	0.03197
3838.25252	0.03175
3836.32375	0.03203
3834.39498	0.03248
3832.46621	0.03232
3830.53744	0.03125
3828.60867	0.0305
3826.6799	0.03102
3824.75113	0.03177
3822.82236	0.03183
3820.89359	0.03142
3818.96482	0.03079
3817.03605	0.02992
3815.10728	0.029
3813.17851	0.02858
3811.24974	0.02875
3809.32097	0.02923
3807.3922	0.0299
3805.46343	0.03078
3803.53466	0.03169
3801.60589	0.03239
3799.67712	0.03277
3797.74835	0.03299
3795.81958	0.0335
3793.89081	0.03425
3791.96204	0.03491
3790.03327	0.03571
3788.1045	0.03672
3786.17573	0.03765
3784.24696	0.03819
3782.31819	0.03816
3780.38942	0.03763
3778.46065	0.03687
3776.53188	0.03624
3774.60311	0.03551
3772.67434	0.03421
3770.74557	0.03271
3768.8168	0.03113
3766.88803	0.02917
3764.95926	0.02721
3763.03049	0.02578
3761.10172	0.02474
3759.17295	0.0236
3757.24418	0.02227
3755.31541	0.02128
3753.38664	0.02108
3751.45787	0.02146
3749.5291	0.02193
3747.60033	0.02237
3745.67156	0.02309
3743.74279	0.02443
3741.81402	0.02645
3739.88525	0.02903
3737.95648	0.03181
3736.02771	0.03423
3734.09894	0.03593
3732.17017	0.03711
3730.2414	0.03805
3728.31263	0.03865
3726.38386	0.03892
3724.45509	0.03898
3722.52632	0.0388
3720.59755	0.03878
3718.66878	0.03962
3716.74001	0.04118
3714.81124	0.04269
3712.88247	0.04367
3710.9537	0.04468
3709.02493	0.04663
3707.09616	0.04963
3705.16739	0.05337
3703.23861	0.05751
3701.30984	0.06173
3699.38107	0.06558
3697.4523	0.06918
3695.52353	0.07316
3693.59476	0.07729
3691.66599	0.08098
3689.73722	0.08422
3687.80845	0.08731
3685.87968	0.09078
3683.95091	0.09478
3682.02214	0.09877
3680.09337	0.10218
3678.1646	0.10515
3676.23583	0.10835
3674.30706	0.11153
3672.37829	0.11362
3670.44952	0.11462
3668.52075	0.11546
3666.59198	0.11659
3664.66321	0.11824
3662.73444	0.12039
3660.80567	0.12254
3658.8769	0.12404
3656.94813	0.1246
3655.01936	0.12408
3653.09059	0.12236
3651.16182	0.12003
3649.23305	0.11836
3647.30428	0.11756
3645.37551	0.11742
3643.44674	0.1177
3641.51797	0.11796
3639.5892	0.11833
3637.66043	0.11909
3635.73166	0.12017
3633.80289	0.12138
3631.87412	0.12256
3629.94535	0.12364
3628.01658	0.12457
3626.08781	0.12557
3624.15904	0.12746
3622.23027	0.13051
3620.3015	0.13387
3618.37273	0.13688
3616.44396	0.13959
3614.51519	0.14226
3612.58642	0.14465
3610.65765	0.14633
3608.72888	0.14765
3606.80011	0.14928
3604.87134	0.15178
3602.94257	0.15545
3601.0138	0.15955
3599.08503	0.16315
3597.15626	0.16614
3595.22749	0.16908
3593.29872	0.1723
3591.36995	0.17523
3589.44118	0.1776
3587.51241	0.18016
3585.58364	0.18345
3583.65487	0.18757
3581.7261	0.19246
3579.79733	0.19765
3577.86856	0.20259
3575.93979	0.20715
3574.01102	0.2116
3572.08225	0.21618
3570.15348	0.22083
3568.22471	0.2255
3566.29594	0.23047
3564.36717	0.23633
3562.4384	0.24356
3560.50963	0.25171
3558.58086	0.25999
3556.65209	0.26821
3554.72332	0.27631
3552.79455	0.28408
3550.86578	0.29131
3548.93701	0.29797
3547.00824	0.30408
3545.07947	0.30987
3543.1507	0.31594
3541.22193	0.32259
3539.29316	0.32929
3537.36439	0.33545
3535.43562	0.34093
3533.50685	0.34557
3531.57807	0.34933
3529.6493	0.35246
3527.72053	0.35516
3525.79176	0.35747
3523.86299	0.35973
3521.93422	0.36269
3520.00545	0.36669
3518.07668	0.37138
3516.14791	0.37638
3514.21914	0.3817
3512.29037	0.38753
3510.3616	0.39391
3508.43283	0.40066
3506.50406	0.40751
3504.57529	0.4144
3502.64652	0.42162
3500.71775	0.42944
3498.78898	0.43764
3496.86021	0.44578
3494.93144	0.45362
3493.00267	0.46111
3491.0739	0.46817
3489.14513	0.47464
3487.21636	0.48052
3485.28759	0.48591
3483.35882	0.49091
3481.43005	0.4956
3479.50128	0.5002
3477.57251	0.50501
3475.64374	0.50998
3473.71497	0.51493
3471.7862	0.51978
3469.85743	0.5246
3467.92866	0.52966
3465.99989	0.53514
3464.07112	0.54099
3462.14235	0.54716
3460.21358	0.55352
3458.28481	0.56006
3456.35604	0.5669
3454.42727	0.57387
3452.4985	0.58068
3450.56973	0.58728
3448.64096	0.59386
3446.71219	0.60034
3444.78342	0.60652
3442.85465	0.61244
3440.92588	0.61835
3438.99711	0.62434
3437.06834	0.63043
3435.13957	0.63661
3433.2108	0.64282
3431.28203	0.649
3429.35326	0.65516
3427.42449	0.66128
3425.49572	0.66737
3423.56695	0.6737
3421.63818	0.68052
3419.70941	0.68756
3417.78064	0.69452
3415.85187	0.70135
3413.9231	0.70812
3411.99433	0.71483
3410.06556	0.72127
3408.13679	0.72716
3406.20802	0.73241
3404.27925	0.73709
3402.35048	0.74125
3400.42171	0.74485
3398.49294	0.74792
3396.56417	0.75066
3394.6354	0.75313
3392.70663	0.75525
3390.77786	0.75706
3388.84909	0.7587
3386.92032	0.76019
3384.99155	0.76152
3383.06278	0.76275
3381.13401	0.76401
3379.20524	0.76538
3377.27647	0.7669
3375.3477	0.7685
3373.41893	0.77006
3371.49016	0.77163
3369.56139	0.77324
3367.63262	0.77494
3365.70385	0.77664
3363.77508	0.77813
3361.84631	0.77931
3359.91753	0.78024
3357.98876	0.78103
3356.05999	0.78174
3354.13122	0.78241
3352.20245	0.78301
3350.27368	0.78346
3348.34491	0.78368
3346.41614	0.78372
3344.48737	0.78367
3342.5586	0.78356
3340.62983	0.78332
3338.70106	0.78296
3336.77229	0.7825
3334.84352	0.7819
3332.91475	0.78117
3330.98598	0.78037
3329.05721	0.77956
3327.12844	0.77872
3325.19967	0.77779
3323.2709	0.77674
3321.34213	0.77561
3319.41336	0.77442
3317.48459	0.77313
3315.55582	0.77172
3313.62705	0.77024
3311.69828	0.76877
3309.76951	0.7673
3307.84074	0.76574
3305.91197	0.76406
3303.9832	0.7623
3302.05443	0.7605
3300.12566	0.75874
3298.19689	0.75706
3296.26812	0.75547
3294.33935	0.75398
3292.41058	0.75266
3290.48181	0.75154
3288.55304	0.75057
3286.62427	0.74979
3284.6955	0.74927
3282.76673	0.74901
3280.83796	0.74895
3278.90919	0.74907
3276.98042	0.74938
3275.05165	0.74984
3273.12288	0.75039
3271.19411	0.75102
3269.26534	0.75168
3267.33657	0.75229
3265.4078	0.75279
3263.47903	0.75319
3261.55026	0.75354
3259.62149	0.75386
3257.69272	0.75416
3255.76395	0.75439
3253.83518	0.75453
3251.90641	0.75461
3249.97764	0.75469
3248.04887	0.75482
3246.1201	0.75504
3244.19133	0.75528
3242.26256	0.75545
3240.33379	0.75562
3238.40502	0.75581
3236.47625	0.75593
3234.54748	0.75586
3232.61871	0.75555
3230.68994	0.75497
3228.76117	0.75409
3226.8324	0.75288
3224.90363	0.75129
3222.97486	0.74925
3221.04609	0.7467
3219.11732	0.74373
3217.18855	0.74045
3215.25978	0.73688
3213.33101	0.73299
3211.40224	0.72881
3209.47347	0.72434
3207.5447	0.71962
3205.61593	0.71476
3203.68716	0.70988
3201.75839	0.705
3199.82962	0.7001
3197.90085	0.69517
3195.97208	0.69028
3194.04331	0.68557
3192.11454	0.68102
3190.18577	0.67658
3188.257	0.67234
3186.32822	0.66846
3184.39945	0.66506
3182.47068	0.66213
3180.54191	0.6596
3178.61314	0.65744
3176.68437	0.65556
3174.7556	0.65383
3172.82683	0.65214
3170.89806	0.65029
3168.96929	0.64807
3167.04052	0.6453
3165.11175	0.64184
3163.18298	0.63759
3161.25421	0.63257
3159.32544	0.62684
3157.39667	0.62033
3155.4679	0.61292
3153.53913	0.60467
3151.61036	0.59582
3149.68159	0.58651
3147.75282	0.57679
3145.82405	0.56675
3143.89528	0.55665
3141.96651	0.54685
3140.03774	0.53761
3138.10897	0.52899
3136.1802	0.52105
3134.25143	0.51377
3132.32266	0.50713
3130.39389	0.5011
3128.46512	0.4956
3126.53635	0.49046
3124.60758	0.48555
3122.67881	0.48086
3120.75004	0.47639
3118.82127	0.4721
3116.8925	0.46793
3114.96373	0.46398
3113.03496	0.46024
3111.10619	0.45667
3109.17742	0.45324
3107.24865	0.45006
3105.31988	0.44714
3103.39111	0.44438
3101.46234	0.44174
3099.53357	0.43942
3097.6048	0.43761
3095.67603	0.43638
3093.74726	0.43569
3091.81849	0.43551
3089.88972	0.43583
3087.96095	0.43661
3086.03218	0.43787
3084.10341	0.43967
3082.17464	0.44199
3080.24587	0.44476
3078.3171	0.4479
3076.38833	0.45137
3074.45956	0.45508
3072.53079	0.45893
3070.60202	0.46293
3068.67325	0.46714
3066.74448	0.47151
3064.81571	0.4758
3062.88694	0.47982
3060.95817	0.48346
3059.0294	0.48661
3057.10063	0.48925
3055.17186	0.49144
3053.24309	0.49324
3051.31432	0.49469
3049.38555	0.49581
3047.45678	0.49664
3045.52801	0.49729
3043.59924	0.49787
3041.67047	0.4984
3039.7417	0.49895
3037.81293	0.49966
3035.88416	0.50068
3033.95539	0.50213
3032.02662	0.50415
3030.09785	0.50675
3028.16908	0.50991
3026.24031	0.51357
3024.31154	0.51777
3022.38277	0.52252
3020.454	0.52795
3018.52523	0.53409
3016.59646	0.54075
3014.66768	0.54759
3012.73891	0.55473
3010.81014	0.56296
3008.88137	0.57272
3006.9526	0.58378
3005.02383	0.59572
3003.09506	0.60828
3001.16629	0.62142
2999.23752	0.63509
2997.30875	0.64916
2995.37998	0.66365
2993.45121	0.67871
2991.52244	0.69428
2989.59367	0.70986
2987.6649	0.72474
2985.73613	0.73812
2983.80736	0.74946
2981.87859	0.75856
2979.94982	0.76553
2978.02105	0.77041
2976.09228	0.7732
2974.16351	0.77384
2972.23474	0.77216
2970.30597	0.76794
2968.3772	0.76145
2966.44843	0.75374
2964.51966	0.74591
2962.59089	0.73828
2960.66212	0.7308
2958.73335	0.72364
2956.80458	0.71719
2954.87581	0.71189
2952.94704	0.70839
2951.01827	0.70746
2949.0895	0.70952
2947.16073	0.71428
2945.23196	0.72094
2943.30319	0.72872
2941.37442	0.73707
2939.44565	0.74571
2937.51688	0.75444
2935.58811	0.76307
2933.65934	0.77127
2931.73057	0.77854
2929.8018	0.78425
2927.87303	0.78788
2925.94426	0.78925
2924.01549	0.7888
2922.08672	0.78729
2920.15795	0.785
2918.22918	0.78179
2916.30041	0.7776
2914.37164	0.7724
2912.44287	0.76615
2910.5141	0.75897
2908.58533	0.75132
2906.65656	0.74389
2904.72779	0.73699
2902.79902	0.73037
2900.87025	0.72367
2898.94148	0.71675
2897.01271	0.70969
2895.08394	0.70261
2893.15517	0.69548
2891.2264	0.68815
2889.29763	0.68057
2887.36886	0.67271
2885.44009	0.66435
2883.51132	0.65532
2881.58255	0.64569
2879.65378	0.63577
2877.72501	0.62586
2875.79624	0.61579
2873.86747	0.60496
2871.9387	0.59322
2870.00993	0.58089
2868.08116	0.56813
2866.15239	0.55492
2864.22362	0.54136
2862.29485	0.52775
2860.36608	0.51441
2858.43731	0.50141
2856.50854	0.48874
2854.57977	0.47654
2852.651	0.46496
2850.72223	0.45417
2848.79346	0.44422
2846.86469	0.43511
2844.93592	0.42684
2843.00714	0.41939
2841.07837	0.41262
2839.1496	0.40636
2837.22083	0.40048
2835.29206	0.39491
2833.36329	0.38966
2831.43452	0.38473
2829.50575	0.3801
2827.57698	0.37574
2825.64821	0.37159
2823.71944	0.36761
2821.79067	0.36372
2819.8619	0.35991
2817.93313	0.35624
2816.00436	0.35273
2814.07559	0.34935
2812.14682	0.34608
2810.21805	0.34291
2808.28928	0.33981
2806.36051	0.33665
2804.43174	0.33338
2802.50297	0.32996
2800.5742	0.32643
2798.64543	0.32283
2796.71666	0.31914
2794.78789	0.31533
2792.85912	0.31137
2790.93035	0.30727
2789.00158	0.30307
2787.07281	0.29884
2785.14404	0.29456
2783.21527	0.29019
2781.2865	0.28573
2779.35773	0.28128
2777.42896	0.27693
2775.50019	0.27273
2773.57142	0.26873
2771.64265	0.26499
2769.71388	0.26156
2767.78511	0.25851
2765.85634	0.25585
2763.92757	0.25349
2761.9988	0.25133
2760.07003	0.24933
2758.14126	0.24752
2756.21249	0.24586
2754.28372	0.24429
2752.35495	0.24273
2750.42618	0.24115
2748.49741	0.23956
2746.56864	0.23797
2744.63987	0.23635
2742.7111	0.2347
2740.78233	0.23302
2738.85356	0.2313
2736.92479	0.22953
2734.99602	0.22775
2733.06725	0.22602
2731.13848	0.22437
2729.20971	0.22276
2727.28094	0.22124
2725.35217	0.21984
2723.4234	0.21857
2721.49463	0.2174
2719.56586	0.21627
2717.63709	0.21516
2715.70832	0.21407
2713.77955	0.21304
2711.85078	0.21202
2709.92201	0.21088
2707.99324	0.20951
2706.06447	0.20793
2704.1357	0.2062
2702.20693	0.20441
2700.27816	0.2026
2698.34939	0.2007
2696.42062	0.1987
2694.49185	0.1966
2692.56308	0.19441
2690.63431	0.19211
2688.70554	0.18969
2686.77677	0.18718
2684.848	0.18463
2682.91923	0.18209
2680.99046	0.17961
2679.06169	0.17723
2677.13292	0.17502
2675.20415	0.17304
2673.27538	0.17135
2671.34661	0.17004
2669.41783	0.16916
2667.48906	0.16874
2665.56029	0.16872
2663.63152	0.16903
2661.70275	0.1696
2659.77398	0.17039
2657.84521	0.17134
2655.91644	0.17233
2653.98767	0.17324
2652.0589	0.17394
2650.13013	0.17434
2648.20136	0.17438
2646.27259	0.17399
2644.34382	0.17315
2642.41505	0.17187
2640.48628	0.17022
2638.55751	0.16828
2636.62874	0.16615
2634.69997	0.16384
2632.7712	0.16138
2630.84243	0.15884
2628.91366	0.15638
2626.98489	0.15411
2625.05612	0.15211
2623.12735	0.15042
2621.19858	0.14905
2619.26981	0.14799
2617.34104	0.14717
2615.41227	0.14652
2613.4835	0.14592
2611.55473	0.14529
2609.62596	0.14456
2607.69719	0.14366
2605.76842	0.14253
2603.83965	0.14116
2601.91088	0.13958
2599.98211	0.13785
2598.05334	0.13596
2596.12457	0.1339
2594.1958	0.13167
2592.26703	0.12935
2590.33826	0.1269
2588.40949	0.12429
2586.48072	0.12154
2584.55195	0.11878
2582.62318	0.11608
2580.69441	0.11344
2578.76564	0.11087
2576.83687	0.10841
2574.9081	0.10607
2572.97933	0.10384
2571.05056	0.10169
2569.12179	0.09964
2567.19302	0.0977
2565.26425	0.09589
2563.33548	0.09419
2561.40671	0.09254
2559.47794	0.09099
2557.54917	0.08958
2555.6204	0.08826
2553.69163	0.08701
2551.76286	0.08581
2549.83409	0.08463
2547.90532	0.08344
2545.97655	0.08226
2544.04778	0.0811
2542.11901	0.07995
2540.19024	0.07884
2538.26147	0.07777
2536.3327	0.07669
2534.40393	0.07557
2532.47516	0.07442
2530.54639	0.07322
2528.61762	0.07195
2526.68885	0.07061
2524.76008	0.06923
2522.83131	0.06784
2520.90254	0.06645
2518.97377	0.06504
2517.045	0.06356
2515.11623	0.06203
2513.18746	0.0605
2511.25869	0.05898
2509.32992	0.05748
2507.40115	0.05602
2505.47238	0.0546
2503.54361	0.05322
2501.61484	0.05194
2499.68607	0.05076
2497.75729	0.04963
2495.82852	0.04857
2493.89975	0.04764
2491.97098	0.04686
2490.04221	0.0462
2488.11344	0.04563
2486.18467	0.04516
2484.2559	0.04476
2482.32713	0.04438
2480.39836	0.04402
2478.46959	0.04368
2476.54082	0.0434
2474.61205	0.04315
2472.68328	0.04289
2470.75451	0.04261
2468.82574	0.0423
2466.89697	0.04198
2464.9682	0.04167
2463.03943	0.04135
2461.11066	0.041
2459.18189	0.04064
2457.25312	0.04024
2455.32435	0.03973
2453.39558	0.03912
2451.46681	0.03847
2449.53804	0.03788
2447.60927	0.03733
2445.6805	0.03677
2443.75173	0.03615
2441.82296	0.03551
2439.89419	0.03484
2437.96542	0.03415
2436.03665	0.03345
2434.10788	0.03274
2432.17911	0.03204
2430.25034	0.03131
2428.32157	0.03053
2426.3928	0.02988
2424.46403	0.02927
2422.53526	0.02869
2420.60649	0.02815
2418.67772	0.02761
2416.74895	0.02706
2414.82018	0.02651
2412.89141	0.02593
2410.96264	0.0253
2409.03387	0.02461
2407.1051	0.02398
2405.17633	0.02348
2403.24756	0.02313
2401.31879	0.02305
2399.39002	0.02334
2397.46125	0.02405
2395.53248	0.02513
2393.60371	0.02644
2391.67494	0.02783
2389.74617	0.02927
2387.8174	0.03065
2385.88863	0.03167
2383.95986	0.0319
2382.03109	0.03104
2380.10232	0.02911
2378.17355	0.02635
2376.24478	0.02318
2374.31601	0.02007
2372.38724	0.01753
2370.45847	0.01584
2368.5297	0.01498
2366.60093	0.01471
2364.67216	0.01473
2362.74339	0.01482
2360.81462	0.01493
2358.88585	0.01502
2356.95708	0.01514
2355.02831	0.0154
2353.09954	0.01585
2351.17077	0.01642
2349.242	0.01699
2347.31323	0.01765
2345.38446	0.01858
2343.45569	0.01979
2341.52692	0.02095
2339.59815	0.02167
2337.66938	0.02177
2335.74061	0.02145
2333.81184	0.02113
2331.88307	0.02126
2329.9543	0.02225
2328.02553	0.02436
2326.09675	0.02746
2324.16798	0.03107
2322.23921	0.03466
2320.31044	0.03782
2318.38167	0.04033
2316.4529	0.04206
2314.52413	0.04299
2312.59536	0.04312
2310.66659	0.04257
2308.73782	0.04154
2306.80905	0.04015
2304.88028	0.03849
2302.95151	0.03678
2301.02274	0.03525
2299.09397	0.03393
2297.1652	0.03263
2295.23643	0.03121
2293.30766	0.02971
2291.37889	0.02819
2289.45012	0.02669
2287.52135	0.02525
2285.59258	0.02388
2283.66381	0.02263
2281.73504	0.02157
2279.80627	0.02071
2277.8775	0.01998
2275.94873	0.01923
2274.01996	0.01847
2272.09119	0.01773
2270.16242	0.01704
2268.23365	0.0164
2266.30488	0.01586
2264.37611	0.01543
2262.44734	0.01513
2260.51857	0.01494
2258.5898	0.01486
2256.66103	0.01489
2254.73226	0.01491
2252.80349	0.01487
2250.87472	0.01474
2248.94595	0.01455
2247.01718	0.01431
2245.08841	0.01398
2243.15964	0.01353
2241.23087	0.01297
2239.3021	0.01232
2237.37333	0.0117
2235.44456	0.01123
2233.51579	0.01085
2231.58702	0.0104
2229.65825	0.00987
2227.72948	0.00945
2225.80071	0.00922
2223.87194	0.00909
2221.94317	0.00902
2220.0144	0.00903
2218.08563	0.00923
2216.15686	0.00969
2214.22809	0.01036
2212.29932	0.01107
2210.37055	0.01165
2208.44178	0.0121
2206.51301	0.0126
2204.58424	0.01327
2202.65547	0.01393
2200.7267	0.01446
2198.79793	0.01488
2196.86916	0.01516
2194.94039	0.01517
2193.01162	0.01489
2191.08285	0.01447
2189.15408	0.01409
2187.22531	0.01389
2185.29654	0.01394
2183.36777	0.01445
2181.439	0.01529
2179.51023	0.01583
2177.58146	0.01561
2175.65269	0.01474
2173.72392	0.01348
2171.79515	0.01207
2169.86638	0.01056
2167.93761	0.00887
2166.00884	0.007
2164.08007	0.00521
2162.1513	0.00376
2160.22253	0.00281
2158.29376	0.00225
2156.36499	0.00179
2154.43622	0.00133
2152.50744	8.9264E-4
2150.57867	4.63266E-4
2148.6499	9.97438E-5
2146.72113	0
2144.79236	3.75733E-4
2142.86359	0.00137
2140.93482	0.00299
2139.00605	0.00503
2137.07728	0.00723
2135.14851	0.00911
2133.21974	0.01029
2131.29097	0.01102
2129.3622	0.01169
2127.43343	0.01243
2125.50466	0.01324
2123.57589	0.01407
2121.64712	0.01484
2119.71835	0.01564
2117.78958	0.01656
2115.86081	0.01748
2113.93204	0.01827
2112.00327	0.01884
2110.0745	0.01912
2108.14573	0.01916
2106.21696	0.01909
2104.28819	0.01893
2102.35942	0.0187
2100.43065	0.01846
2098.50188	0.01827
2096.57311	0.01822
2094.64434	0.01831
2092.71557	0.0185
2090.7868	0.01872
2088.85803	0.01898
2086.92926	0.01932
2085.00049	0.01982
2083.07172	0.0204
2081.14295	0.02095
2079.21418	0.0214
2077.28541	0.02161
2075.35664	0.02151
2073.42787	0.0213
2071.4991	0.02116
2069.57033	0.02103
2067.64156	0.02082
2065.71279	0.02054
2063.78402	0.02021
2061.85525	0.01989
2059.92648	0.01961
2057.99771	0.01931
2056.06894	0.01893
2054.14017	0.01849
2052.2114	0.01807
2050.28263	0.01776
2048.35386	0.01755
2046.42509	0.01736
2044.49632	0.01703
2042.56755	0.01652
2040.63878	0.01592
2038.71001	0.01531
2036.78124	0.0146
2034.85247	0.0137
2032.9237	0.01268
2030.99493	0.01163
2029.06616	0.01073
2027.13739	0.01012
2025.20862	0.00985
2023.27985	0.00971
2021.35108	0.00955
2019.42231	0.0094
2017.49354	0.00933
2015.56477	0.00934
2013.636	0.00937
2011.70723	0.00942
2009.77846	0.00949
2007.84969	0.00966
2005.92092	0.00994
2003.99215	0.01032
2002.06338	0.01087
2000.13461	0.01163
1998.20584	0.01232
1996.27707	0.0127
1994.3483	0.0128
1992.41953	0.01273
1990.49076	0.01252
1988.56199	0.01225
1986.63322	0.01204
1984.70445	0.01188
1982.77568	0.0117
1980.8469	0.01142
1978.91813	0.011
1976.98936	0.01041
1975.06059	0.00978
1973.13182	0.00925
1971.20305	0.00882
1969.27428	0.00847
1967.34551	0.00828
1965.41674	0.00829
1963.48797	0.0085
1961.5592	0.00892
1959.63043	0.00951
1957.70166	0.01034
1955.77289	0.01148
1953.84412	0.01275
1951.91535	0.01382
1949.98658	0.01461
1948.05781	0.01529
1946.12904	0.016
1944.20027	0.01685
1942.2715	0.01785
1940.34273	0.01885
1938.41396	0.01982
1936.48519	0.02079
1934.55642	0.02167
1932.62765	0.02248
1930.69888	0.02333
1928.77011	0.02433
1926.84134	0.02538
1924.91257	0.02632
1922.9838	0.0271
1921.05503	0.02772
1919.12626	0.02822
1917.19749	0.0287
1915.26872	0.02917
1913.33995	0.02958
1911.41118	0.02995
1909.48241	0.03033
1907.55364	0.0304
1905.62487	0.03044
1903.6961	0.03043
1901.76733	0.03037
1899.83856	0.03031
1897.90979	0.03027
1895.98102	0.03019
1894.05225	0.03001
1892.12348	0.02975
1890.19471	0.02952
1888.26594	0.02938
1886.33717	0.02935
1884.4084	0.02933
1882.47963	0.02925
1880.55086	0.02905
1878.62209	0.02873
1876.69332	0.02833
1874.76455	0.02787
1872.83578	0.02739
1870.90701	0.02694
1868.97824	0.02648
1867.04947	0.02598
1865.1207	0.02563
1863.19193	0.02553
1861.26316	0.02562
1859.33439	0.02579
1857.40562	0.02609
1855.47685	0.0265
1853.54808	0.0269
1851.61931	0.02728
1849.69054	0.0277
1847.76177	0.02819
1845.833	0.02888
1843.90423	0.02989
1841.97546	0.03115
1840.04669	0.03238
1838.11792	0.03339
1836.18915	0.03391
1834.26038	0.03378
1832.33161	0.03384
1830.40284	0.03612
1828.47407	0.04275
1826.5453	0.05479
1824.61653	0.07207
1822.68776	0.09355
1820.75899	0.11798
1818.83022	0.14426
1816.90145	0.17111
1814.97268	0.19736
1813.04391	0.22268
1811.11514	0.24715
1809.18636	0.27046
1807.25759	0.29232
1805.32882	0.31277
1803.40005	0.33177
1801.47128	0.34913
1799.54251	0.36466
1797.61374	0.37792
1795.68497	0.38864
1793.7562	0.39766
1791.82743	0.40629
1789.89866	0.41496
1787.96989	0.42368
1786.04112	0.43301
1784.11235	0.44348
1782.18358	0.45446
1780.25481	0.46426
1778.32604	0.47119
1776.39727	0.47462
1774.4685	0.47522
1772.53973	0.47516
1770.61096	0.47648
1768.68219	0.47933
1766.75342	0.48296
1764.82465	0.48649
1762.89588	0.48912
1760.96711	0.49041
1759.03834	0.49001
1757.10957	0.48773
1755.1808	0.48399
1753.25203	0.4794
1751.32326	0.47408
1749.39449	0.46799
1747.46572	0.46113
1745.53695	0.45268
1743.60818	0.44079
1741.67941	0.42389
1739.75064	0.40154
1737.82187	0.37449
1735.8931	0.34405
1733.96433	0.31159
1732.03556	0.27889
1730.10679	0.24816
1728.17802	0.22172
1726.24925	0.20128
1724.32048	0.18575
1722.39171	0.17234
1720.46294	0.16047
1718.53417	0.15164
1716.6054	0.14853
1714.67663	0.15337
1712.74786	0.16725
1710.81909	0.19024
1708.89032	0.22127
1706.96155	0.25769
1705.03278	0.29525
1703.10401	0.33061
1701.17524	0.36214
1699.24647	0.38894
1697.3177	0.41022
1695.38893	0.42537
1693.46016	0.43421
1691.53139	0.43699
1689.60262	0.43395
1687.67385	0.42496
1685.74508	0.40997
1683.81631	0.3894
1681.88754	0.36406
1679.95877	0.33467
1678.03	0.30172
1676.10123	0.26686
1674.17246	0.23374
1672.24369	0.20572
1670.31492	0.18469
1668.38615	0.17096
1666.45738	0.1639
1664.52861	0.16207
1662.59984	0.16346
1660.67107	0.166
1658.7423	0.16807
1656.81353	0.16982
1654.88476	0.17192
1652.95599	0.17431
1651.02722	0.17668
1649.09845	0.1788
1647.16968	0.18052
1645.24091	0.1818
1643.31214	0.18265
1641.38337	0.18271
1639.4546	0.18163
1637.52583	0.17952
1635.59705	0.17659
1633.66828	0.17271
1631.73951	0.16781
1629.81074	0.1624
1627.88197	0.1574
1625.9532	0.15299
1624.02443	0.14902
1622.09566	0.14582
1620.16689	0.14362
1618.23812	0.14205
1616.30935	0.14067
1614.38058	0.13925
1612.45181	0.13772
1610.52304	0.13622
1608.59427	0.1348
1606.6655	0.13328
1604.73673	0.13151
1602.80796	0.12943
1600.87919	0.12683
1598.95042	0.12361
1597.02165	0.12018
1595.09288	0.11675
1593.16411	0.11301
1591.23534	0.10911
1589.30657	0.10604
1587.3778	0.10476
1585.44903	0.10618
1583.52026	0.11076
1581.59149	0.11831
1579.66272	0.12857
1577.73395	0.14119
1575.80518	0.15541
1573.87641	0.17034
1571.94764	0.18517
1570.01887	0.19923
1568.0901	0.21195
1566.16133	0.22294
1564.23256	0.23173
1562.30379	0.23785
1560.37502	0.24126
1558.44625	0.24185
1556.51748	0.23945
1554.58871	0.23413
1552.65994	0.2264
1550.73117	0.21686
1548.8024	0.20567
1546.87363	0.19298
1544.94486	0.1798
1543.01609	0.1674
1541.08732	0.15646
1539.15855	0.14716
1537.22978	0.13955
1535.30101	0.13364
1533.37224	0.12945
1531.44347	0.12622
1529.5147	0.12318
1527.58593	0.1213
1525.65716	0.12141
1523.72839	0.12291
1521.79962	0.1246
1519.87085	0.12618
1517.94208	0.12965
1516.01331	0.13771
1514.08454	0.15164
1512.15577	0.17032
1510.227	0.19108
1508.29823	0.21171
1506.36946	0.23118
1504.44069	0.24927
1502.51192	0.26612
1500.58315	0.28154
1498.65438	0.29474
1496.72561	0.30475
1494.79684	0.31102
1492.86807	0.31371
1490.9393	0.31296
1489.01053	0.3084
1487.08176	0.29989
1485.15299	0.28828
1483.22422	0.27522
1481.29545	0.26219
1479.36668	0.2493
1477.43791	0.23679
1475.50914	0.22569
1473.58037	0.21808
1471.6516	0.21613
1469.72283	0.21955
1467.79406	0.2258
1465.86529	0.2321
1463.93651	0.23665
1462.00774	0.2394
1460.07897	0.24106
1458.1502	0.24214
1456.22143	0.24259
1454.29266	0.24167
1452.36389	0.23856
1450.43512	0.23304
1448.50635	0.22562
1446.57758	0.21695
1444.64881	0.20713
1442.72004	0.19618
1440.79127	0.1849
1438.8625	0.17466
1436.93373	0.16609
1435.00496	0.15936
1433.07619	0.15516
1431.14742	0.15403
1429.21865	0.15554
1427.28988	0.15919
1425.36111	0.16469
1423.43234	0.17154
1421.50357	0.17906
1419.5748	0.18686
1417.64603	0.19506
1415.71726	0.20395
1413.78849	0.2133
1411.85972	0.22243
1409.93095	0.23076
1408.00218	0.2379
1406.07341	0.24363
1404.14464	0.24766
1402.21587	0.24968
1400.2871	0.24945
1398.35833	0.24684
1396.42956	0.24213
1394.50079	0.23634
1392.57202	0.2306
1390.64325	0.2256
1388.71448	0.22207
1386.78571	0.22079
1384.85694	0.22205
1382.92817	0.22527
1380.9994	0.22951
1379.07063	0.23392
1377.14186	0.23785
1375.21309	0.24107
1373.28432	0.24379
1371.35555	0.24627
1369.42678	0.24826
1367.49801	0.2491
1365.56924	0.24838
1363.64047	0.24636
1361.7117	0.24346
1359.78293	0.23983
1357.85416	0.23535
1355.92539	0.22996
1353.99662	0.22382
1352.06785	0.21738
1350.13908	0.21149
1348.21031	0.20709
1346.28154	0.20487
1344.35277	0.20527
1342.424	0.20838
1340.49523	0.21378
1338.56646	0.22059
1336.63769	0.22772
1334.70892	0.23442
1332.78015	0.24039
1330.85138	0.24562
1328.92261	0.25007
1326.99384	0.25368
1325.06507	0.25642
1323.1363	0.25831
1321.20753	0.2593
1319.27876	0.25939
1317.34999	0.25867
1315.42122	0.25722
1313.49245	0.25512
1311.56368	0.25249
1309.63491	0.24972
1307.70614	0.24728
1305.77737	0.24551
1303.8486	0.24468
1301.91983	0.24496
1299.99106	0.24629
1298.06229	0.24829
1296.13352	0.25038
1294.20475	0.25199
1292.27597	0.25258
1290.3472	0.25176
1288.41843	0.24927
1286.48966	0.24501
1284.56089	0.23892
1282.63212	0.23098
1280.70335	0.22128
1278.77458	0.20993
1276.84581	0.19726
1274.91704	0.18409
1272.98827	0.17181
1271.0595	0.1619
1269.13073	0.15532
1267.20196	0.15249
1265.27319	0.15381
1263.34442	0.15963
1261.41565	0.16971
1259.48688	0.183
1257.55811	0.19827
1255.62934	0.2144
1253.70057	0.23032
1251.7718	0.24501
1249.84303	0.25745
1247.91426	0.26677
1245.98549	0.27235
1244.05672	0.27387
1242.12795	0.27127
1240.19918	0.26462
1238.27041	0.25411
1236.34164	0.24009
1234.41287	0.22319
1232.4841	0.2043
1230.55533	0.18463
1228.62656	0.16557
1226.69779	0.14855
1224.76902	0.13488
1222.84025	0.12569
1220.91148	0.12175
1218.98271	0.12304
1217.05394	0.12847
1215.12517	0.13623
1213.1964	0.14462
1211.26763	0.15268
1209.33886	0.16
1207.41009	0.16642
1205.48132	0.17175
1203.55255	0.17574
1201.62378	0.17819
1199.69501	0.17889
1197.76624	0.17761
1195.83747	0.17409
1193.9087	0.16812
1191.97993	0.1597
1190.05116	0.14907
1188.12239	0.13664
1186.19362	0.12309
1184.26485	0.10981
1182.33608	0.09937
1180.40731	0.09546
1178.47854	0.10153
1176.54977	0.11918
1174.621	0.14769
1172.69223	0.18479
1170.76346	0.22787
1168.83469	0.27453
1166.90592	0.32272
1164.97715	0.37042
1163.04838	0.41563
1161.11961	0.45655
1159.19084	0.49174
1157.26207	0.52019
1155.3333	0.54125
1153.40453	0.55431
1151.47576	0.55892
1149.54699	0.55523
1147.61822	0.54392
1145.68945	0.52573
1143.76068	0.50129
1141.83191	0.47151
1139.90314	0.43856
1137.97437	0.4064
1136.0456	0.38018
1134.11683	0.36433
1132.18806	0.36064
1130.25929	0.36823
1128.33052	0.38453
1126.40175	0.40638
1124.47298	0.43069
1122.54421	0.45504
1120.61544	0.47778
1118.68666	0.49797
1116.75789	0.5153
1114.82912	0.52948
1112.90035	0.53991
1110.97158	0.54613
1109.04281	0.54811
1107.11404	0.54613
1105.18527	0.54076
1103.2565	0.53276
1101.32773	0.52303
1099.39896	0.51289
1097.47019	0.50406
1095.54142	0.49811
1093.61265	0.49587
1091.68388	0.49732
1089.75511	0.50176
1087.82634	0.5079
1085.89757	0.51391
1083.9688	0.51852
1082.04003	0.52228
1080.11126	0.52729
1078.18249	0.53542
1076.25372	0.54668
1074.32495	0.55952
1072.39618	0.57219
1070.46741	0.58321
1068.53864	0.59169
1066.60987	0.59819
1064.6811	0.60462
1062.75233	0.6126
1060.82356	0.62272
1058.89479	0.63524
1056.96602	0.65063
1055.03725	0.66946
1053.10848	0.69196
1051.17971	0.71739
1049.25094	0.74431
1047.32217	0.77148
1045.3934	0.79838
1043.46463	0.82515
1041.53586	0.85186
1039.60709	0.87841
1037.67832	0.90472
1035.74955	0.93077
1033.82078	0.95578
1031.89201	0.9776
1029.96324	0.99317
1028.03447	1
1026.1057	0.99735
1024.17693	0.98639
1022.24816	0.96989
1020.31939	0.95108
1018.39062	0.93171
1016.46185	0.9116
1014.53308	0.89033
1012.60431	0.8682
1010.67554	0.84573
1008.74677	0.82326
1006.818	0.80136
1004.88923	0.78171
1002.96046	0.76718
1001.03169	0.76015
999.10292	0.76051
997.17415	0.76553
995.24538	0.77144
993.31661	0.77508
991.38784	0.77478
989.45907	0.77022
987.5303	0.76153
985.60153	0.74825
983.67276	0.72923
981.74399	0.70357
979.81522	0.67156
977.88645	0.6349
975.95768	0.59636
974.02891	0.55849
972.10014	0.52227
970.17137	0.4872
968.2426	0.45242
966.31383	0.4176
964.38506	0.38314
962.45629	0.35029
960.52752	0.32091
958.59875	0.29678
956.66998	0.27877
954.74121	0.266
952.81244	0.25645
950.88367	0.24834
948.9549	0.24103
947.02612	0.23466
945.09735	0.22939
943.16858	0.22479
941.23981	0.21979
939.31104	0.21324
937.38227	0.20456
935.4535	0.19395
933.52473	0.18217
931.59596	0.1703
929.66719	0.1594
927.73842	0.14977
925.80965	0.14075
923.88088	0.13146
921.95211	0.12167
920.02334	0.1119
918.09457	0.10293
916.1658	0.09522
914.23703	0.08861
912.30826	0.08252
910.37949	0.07646
908.45072	0.07036
906.52195	0.06453
904.59318	0.0594
902.66441	0.05515
900.73564	0.05165
898.80687	0.04858
896.8781	0.04558
894.94933	0.04225
893.02056	0.03828
891.09179	0.03388
889.16302	0.03007
887.23425	0.028
885.30548	0.02805
883.37671	0.02987
881.44794	0.03301
879.51917	0.03725
877.5904	0.04241
875.66163	0.04815
873.73286	0.0539
871.80409	0.05921
869.87532	0.06395
867.94655	0.06832
866.01778	0.07262
864.08901	0.07708
862.16024	0.08159
860.23147	0.08577
858.3027	0.08917
856.37393	0.09144
854.44516	0.09233
852.51639	0.09164
850.58762	0.08938
848.65885	0.08575
846.73008	0.08116
844.80131	0.07639
842.87254	0.07231
840.94377	0.06914
839.015	0.06629
837.08623	0.06309
835.15746	0.05938
833.22869	0.05539
831.29992	0.05132
829.37115	0.04711
827.44238	0.04269
825.51361	0.03823
823.58484	0.03423
821.65607	0.03119
819.7273	0.0292
817.79853	0.02803
815.86976	0.02728
813.94099	0.0266
812.01222	0.0259
810.08345	0.02525
808.15468	0.02476
806.22591	0.02447
804.29714	0.02432
802.36837	0.02411
800.4396	0.02374
798.51083	0.02319
796.58206	0.02253
794.65329	0.02187
792.72452	0.02146
790.79575	0.02153
788.86698	0.02212
786.93821	0.02327
785.00944	0.02535
783.08067	0.029
781.1519	0.0346
779.22313	0.04181
777.29436	0.04983
775.36558	0.05787
773.43681	0.06534
771.50804	0.07199
769.57927	0.07782
767.6505	0.08293
765.72173	0.08738
763.79296	0.09117
761.86419	0.0942
759.93542	0.09633
758.00665	0.09754
756.07788	0.098
754.14911	0.09795
752.22034	0.09744
750.29157	0.09651
748.3628	0.09552
746.43403	0.09508
744.50526	0.0955
742.57649	0.09673
740.64772	0.09885
738.71895	0.10221
736.79018	0.10705
734.86141	0.11307
732.93264	0.1197
731.00387	0.12653
729.0751	0.1334
727.14633	0.14016
725.21756	0.14654
723.28879	0.15217
721.36002	0.1566
719.43125	0.15984
717.50248	0.16268
715.57371	0.16621
713.64494	0.17084
711.71617	0.1761
709.7874	0.18125
707.85863	0.18568
705.92986	0.189
704.00109	0.19114
702.07232	0.19224
700.14355	0.19238
698.21478	0.19142
696.28601	0.18925
694.35724	0.18608
692.42847	0.18227
690.4997	0.17827
688.57093	0.17446
686.64216	0.17086
684.71339	0.16715
682.78462	0.16297
680.85585	0.15817
678.92708	0.15278
676.99831	0.14706
675.06954	0.14158
673.14077	0.13726
671.212	0.135
669.28323	0.13471
667.35446	0.13525
665.42569	0.13548
663.49692	0.13498
661.56815	0.13383
659.63938	0.13218
657.71061	0.13007
655.78184	0.12752
653.85307	0.12457
651.9243	0.12132
649.99553	0.11786
648.06676	0.11426
646.13799	0.11059
644.20922	0.10689
642.28045	0.10309
640.35168	0.09922
638.42291	0.09559
636.49414	0.09247
634.56537	0.08991
632.6366	0.08792
630.70783	0.08662
628.77906	0.08632
626.85029	0.08739
624.92152	0.08999
622.99275	0.09395
621.06398	0.09889
619.13521	0.10439
617.20644	0.10999
615.27767	0.11532
613.3489	0.12012
611.42013	0.12426
609.49136	0.12759
607.56259	0.12992
605.63382	0.13112
603.70505	0.13153
601.77627	0.13182
599.8475	0.1324
597.91873	0.13317
595.98996	0.13413
594.06119	0.13584
592.13242	0.13911
590.20365	0.14438
588.27488	0.15162
586.34611	0.16048
584.41734	0.17048
582.48857	0.18106
580.5598	0.19162
578.63103	0.20145
576.70226	0.20985
574.77349	0.21619
572.84472	0.22
570.91595	0.221
568.98718	0.21907
567.05841	0.21421
565.12964	0.20647
563.20087	0.19589
561.2721	0.18274
559.34333	0.1678
557.41456	0.15232
555.48579	0.13732
553.55702	0.12314
551.62825	0.10988
549.69948	0.09812
547.77071	0.08894
545.84194	0.08326
543.91317	0.08126
541.9844	0.08238
540.05563	0.08569
538.12686	0.09019
536.19809	0.09513
534.26932	0.10012
532.34055	0.10497
530.41178	0.10945
528.48301	0.11329
526.55424	0.11633
524.62547	0.11841
522.6967	0.11934
520.76793	0.11891
518.83916	0.11708
516.91039	0.11405
514.98162	0.11028
513.05285	0.10632
511.12408	0.10256
509.19531	0.09909
507.26654	0.09593
505.33777	0.09321
503.409	0.09127
501.48023	0.09043
499.55146	0.09075
497.62269	0.09194
495.69392	0.09343
493.76515	0.09452
491.83638	0.09462
489.90761	0.09357
487.97884	0.09156
486.05007	0.08885
484.1213	0.08561
482.19253	0.08188
480.26376	0.07772
478.33499	0.07323
476.40622	0.06867
474.47745	0.06445
472.54868	0.06101
470.61991	0.05867
468.69114	0.05755
466.76237	0.05757
464.8336	0.05843
462.90483	0.05976
460.97606	0.06119
459.04729	0.06241
457.11852	0.06321
455.18975	0.0635
453.26098	0.06319
451.33221	0.06223
449.40344	0.06047
447.47467	0.05779
445.5459	0.05415
443.61713	0.04959
441.68836	0.04435
439.75959	0.03927
437.83082	0.03516
435.90205	0.03231
433.97328	0.03068
432.04451	0.03007
430.11573	0.03019
428.18696	0.03085
426.25819	0.03205
424.32942	0.03371
422.40065	0.03561
420.47188	0.03495
418.54311	0.03417
416.61434	0.03324
414.68557	0.03219
412.7568	0.031
410.82803	0.02968
408.89926	0.02823
406.97049	0.02664
405.04172	0.02492
403.11295	0.02307
401.18418	0.02109
399.25541	0.01897