3996.41167	0.01734
3994.4829	0.01759
3992.55413	0.01785
3990.62536	0.01811
3988.69659	0.01837
3986.76782	0.01864
3984.83905	0.0189
3982.91028	0.01917
3980.98151	0.01944
3979.05274	0.01971
3977.12397	0.01998
3975.1952	0.02025
3973.26643	0.02053
3971.33766	0.02072
3969.40889	0.02106
3967.48012	0.02145
3965.55135	0.02181
3963.62258	0.02219
3961.69381	0.02265
3959.76504	0.02313
3957.83627	0.02346
3955.9075	0.02354
3953.97873	0.02349
3952.04996	0.02362
3950.12119	0.02392
3948.19242	0.0242
3946.26365	0.02447
3944.33488	0.02482
3942.40611	0.02511
3940.47734	0.02527
3938.54857	0.02546
3936.6198	0.02582
3934.69103	0.02627
3932.76226	0.02665
3930.83349	0.02683
3928.90472	0.02666
3926.97595	0.02613
3925.04718	0.02551
3923.11841	0.02503
3921.18964	0.02481
3919.26087	0.02497
3917.3321	0.02539
3915.40333	0.02569
3913.47456	0.02571
3911.54579	0.0256
3909.61702	0.02538
3907.68825	0.02506
3905.75948	0.02478
3903.83071	0.02448
3901.90194	0.02423
3899.97317	0.0243
3898.0444	0.02452
3896.11563	0.02445
3894.18686	0.02401
3892.25809	0.02347
3890.32932	0.02304
3888.40055	0.02257
3886.47178	0.02182
3884.54301	0.02092
3882.61424	0.02017
3880.68547	0.01985
3878.7567	0.01991
3876.82792	0.01964
3874.89915	0.01881
3872.97038	0.01807
3871.04161	0.01765
3869.11284	0.01741
3867.18407	0.0173
3865.2553	0.0172
3863.32653	0.01685
3861.39776	0.01627
3859.46899	0.01581
3857.54022	0.01567
3855.61145	0.01577
3853.68268	0.01592
3851.75391	0.01587
3849.82514	0.01561
3847.89637	0.01545
3845.9676	0.01552
3844.03883	0.01558
3842.11006	0.01549
3840.18129	0.01543
3838.25252	0.01563
3836.32375	0.01611
3834.39498	0.01663
3832.46621	0.01673
3830.53744	0.01616
3828.60867	0.01565
3826.6799	0.01589
3824.75113	0.01626
3822.82236	0.01619
3820.89359	0.01583
3818.96482	0.01543
3817.03605	0.01515
3815.10728	0.01515
3813.17851	0.01554
3811.24974	0.01623
3809.32097	0.017
3807.3922	0.0178
3805.46343	0.01875
3803.53466	0.01977
3801.60589	0.02072
3799.67712	0.02157
3797.74835	0.02241
3795.81958	0.02348
3793.89081	0.02468
3791.96204	0.02583
3790.03327	0.02701
3788.1045	0.02825
3786.17573	0.02937
3784.24696	0.03017
3782.31819	0.03048
3780.38942	0.03041
3778.46065	0.03015
3776.53188	0.0299
3774.60311	0.02948
3772.67434	0.02867
3770.74557	0.0277
3768.8168	0.02659
3766.88803	0.02504
3764.95926	0.02323
3763.03049	0.02155
3761.10172	0.02006
3759.17295	0.01852
3757.24418	0.01689
3755.31541	0.01526
3753.38664	0.0142
3751.45787	0.01354
3749.5291	0.01292
3747.60033	0.01227
3745.67156	0.01183
3743.74279	0.01185
3741.81402	0.01248
3739.88525	0.01376
3737.95648	0.01541
3736.02771	0.01696
3734.09894	0.01828
3732.17017	0.01952
3730.2414	0.02072
3728.31263	0.0217
3726.38386	0.02245
3724.45509	0.02301
3722.52632	0.02346
3720.59755	0.02414
3718.66878	0.02542
3716.74001	0.02719
3714.81124	0.02885
3712.88247	0.03004
3710.9537	0.03128
3709.02493	0.03326
3707.09616	0.03598
3705.16739	0.03909
3703.23861	0.04233
3701.30984	0.04549
3699.38107	0.04834
3697.4523	0.05102
3695.52353	0.05397
3693.59476	0.05701
3691.66599	0.05971
3689.73722	0.06215
3687.80845	0.06466
3685.87968	0.06751
3683.95091	0.07064
3682.02214	0.07369
3680.09337	0.07644
3678.1646	0.07916
3676.23583	0.0823
3674.30706	0.08545
3672.37829	0.08774
3670.44952	0.08931
3668.52075	0.09093
3666.59198	0.09297
3664.66321	0.09557
3662.73444	0.09861
3660.80567	0.10164
3658.8769	0.10426
3656.94813	0.10619
3655.01936	0.10729
3653.09059	0.10752
3651.16182	0.10735
3649.23305	0.10759
3647.30428	0.10828
3645.37551	0.10926
3643.44674	0.11039
3641.51797	0.11149
3639.5892	0.11277
3637.66043	0.11443
3635.73166	0.11637
3633.80289	0.1184
3631.87412	0.12037
3629.94535	0.12216
3628.01658	0.12373
3626.08781	0.12542
3624.15904	0.12794
3622.23027	0.13134
3620.3015	0.13499
3618.37273	0.13854
3616.44396	0.14216
3614.51519	0.14608
3612.58642	0.14997
3610.65765	0.15343
3608.72888	0.15665
3606.80011	0.16015
3604.87134	0.16431
3602.94257	0.16921
3601.0138	0.17434
3599.08503	0.17917
3597.15626	0.18376
3595.22749	0.18858
3593.29872	0.19375
3591.36995	0.19875
3589.44118	0.20332
3587.51241	0.20794
3585.58364	0.21296
3583.65487	0.21841
3581.7261	0.22425
3579.79733	0.23021
3577.86856	0.23597
3575.93979	0.24146
3574.01102	0.2469
3572.08225	0.25242
3570.15348	0.25789
3568.22471	0.26319
3566.29594	0.26845
3564.36717	0.27404
3562.4384	0.28025
3560.50963	0.28676
3558.58086	0.29309
3556.65209	0.29916
3554.72332	0.30502
3552.79455	0.31069
3550.86578	0.31616
3548.93701	0.32146
3547.00824	0.32661
3545.07947	0.33181
3543.1507	0.33753
3541.22193	0.34401
3539.29316	0.35088
3537.36439	0.35775
3535.43562	0.3645
3533.50685	0.37107
3531.57807	0.37745
3529.6493	0.38374
3527.72053	0.38997
3525.79176	0.39609
3523.86299	0.40222
3521.93422	0.40871
3520.00545	0.41567
3518.07668	0.42278
3516.14791	0.42972
3514.21914	0.43643
3512.29037	0.44304
3510.3616	0.4496
3508.43283	0.45609
3506.50406	0.46245
3504.57529	0.46869
3502.64652	0.47507
3500.71775	0.48178
3498.78898	0.48882
3496.86021	0.49597
3494.93144	0.50314
3493.00267	0.51031
3491.0739	0.51746
3489.14513	0.52452
3487.21636	0.53152
3485.28759	0.53849
3483.35882	0.54544
3481.43005	0.5524
3479.50128	0.55945
3477.57251	0.56667
3475.64374	0.57398
3473.71497	0.58123
3471.7862	0.5883
3469.85743	0.59518
3467.92866	0.602
3465.99989	0.60883
3464.07112	0.61568
3462.14235	0.62253
3460.21358	0.62932
3458.28481	0.63605
3456.35604	0.64283
3454.42727	0.64958
3452.4985	0.65614
3450.56973	0.66254
3448.64096	0.66892
3446.71219	0.6752
3444.78342	0.68126
3442.85465	0.68714
3440.92588	0.69296
3438.99711	0.69878
3437.06834	0.70459
3435.13957	0.71034
3433.2108	0.71589
3431.28203	0.7212
3429.35326	0.72634
3427.42449	0.73136
3425.49572	0.73625
3423.56695	0.74112
3421.63818	0.74618
3419.70941	0.75123
3417.78064	0.75611
3415.85187	0.7608
3413.9231	0.76533
3411.99433	0.76975
3410.06556	0.77404
3408.13679	0.77813
3406.20802	0.78199
3404.27925	0.78569
3402.35048	0.78926
3400.42171	0.79266
3398.49294	0.7959
3396.56417	0.79911
3394.6354	0.80235
3392.70663	0.80558
3390.77786	0.80873
3388.84909	0.81174
3386.92032	0.81459
3384.99155	0.81731
3383.06278	0.81998
3381.13401	0.8226
3379.20524	0.82515
3377.27647	0.82767
3375.3477	0.83019
3373.41893	0.8326
3371.49016	0.83488
3369.56139	0.83706
3367.63262	0.83915
3365.70385	0.84113
3363.77508	0.84289
3361.84631	0.84438
3359.91753	0.84563
3357.98876	0.84673
3356.05999	0.84774
3354.13122	0.84867
3352.20245	0.84955
3350.27368	0.85038
3348.34491	0.85109
3346.41614	0.85158
3344.48737	0.85184
3342.5586	0.85193
3340.62983	0.85188
3338.70106	0.85175
3336.77229	0.85153
3334.84352	0.85122
3332.91475	0.85081
3330.98598	0.85032
3329.05721	0.84975
3327.12844	0.84907
3325.19967	0.8483
3323.2709	0.84746
3321.34213	0.84658
3319.41336	0.84565
3317.48459	0.84463
3315.55582	0.84351
3313.62705	0.84232
3311.69828	0.84114
3309.76951	0.83999
3307.84074	0.83886
3305.91197	0.83775
3303.9832	0.83662
3302.05443	0.83541
3300.12566	0.8342
3298.19689	0.83304
3296.26812	0.83193
3294.33935	0.83082
3292.41058	0.82969
3290.48181	0.82853
3288.55304	0.82728
3286.62427	0.82598
3284.6955	0.82471
3282.76673	0.8235
3280.83796	0.82235
3278.90919	0.82124
3276.98042	0.82019
3275.05165	0.81912
3273.12288	0.81798
3271.19411	0.81677
3269.26534	0.8155
3267.33657	0.81415
3265.4078	0.81273
3263.47903	0.8113
3261.55026	0.80991
3259.62149	0.80858
3257.69272	0.80727
3255.76395	0.80593
3253.83518	0.80456
3251.90641	0.80319
3249.97764	0.80177
3248.04887	0.80031
3246.1201	0.79885
3244.19133	0.79741
3242.26256	0.79596
3240.33379	0.79455
3238.40502	0.79318
3236.47625	0.79176
3234.54748	0.79018
3232.61871	0.78843
3230.68994	0.78645
3228.76117	0.78423
3226.8324	0.78178
3224.90363	0.7791
3222.97486	0.77619
3221.04609	0.77299
3219.11732	0.76952
3217.18855	0.7658
3215.25978	0.76185
3213.33101	0.75766
3211.40224	0.75324
3209.47347	0.74859
3207.5447	0.74375
3205.61593	0.73875
3203.68716	0.73362
3201.75839	0.72839
3199.82962	0.72312
3197.90085	0.71777
3195.97208	0.71237
3194.04331	0.70698
3192.11454	0.70162
3190.18577	0.69625
3188.257	0.69091
3186.32822	0.68568
3184.39945	0.6806
3182.47068	0.67571
3180.54191	0.67102
3178.61314	0.66656
3176.68437	0.66228
3174.7556	0.65807
3172.82683	0.65383
3170.89806	0.64952
3168.96929	0.64507
3167.04052	0.64043
3165.11175	0.63553
3163.18298	0.63028
3161.25421	0.62465
3159.32544	0.61865
3157.39667	0.6123
3155.4679	0.60554
3153.53913	0.59838
3151.61036	0.59091
3149.68159	0.58322
3147.75282	0.57532
3145.82405	0.56724
3143.89528	0.55912
3141.96651	0.5511
3140.03774	0.54328
3138.10897	0.53571
3136.1802	0.52848
3134.25143	0.5216
3132.32266	0.51509
3130.39389	0.50892
3128.46512	0.50303
3126.53635	0.49732
3124.60758	0.49172
3122.67881	0.48625
3120.75004	0.48094
3118.82127	0.47579
3116.8925	0.47077
3114.96373	0.4659
3113.03496	0.4612
3111.10619	0.45665
3109.17742	0.45224
3107.24865	0.44802
3105.31988	0.44403
3103.39111	0.44017
3101.46234	0.43641
3099.53357	0.43282
3097.6048	0.42952
3095.67603	0.42654
3093.74726	0.42386
3091.81849	0.4215
3089.88972	0.41946
3087.96095	0.41769
3086.03218	0.41622
3084.10341	0.41506
3082.17464	0.41418
3080.24587	0.41355
3078.3171	0.41313
3076.38833	0.41291
3074.45956	0.41287
3072.53079	0.41296
3070.60202	0.41316
3068.67325	0.41345
3066.74448	0.41383
3064.81571	0.41423
3062.88694	0.41454
3060.95817	0.41468
3059.0294	0.4146
3057.10063	0.41426
3055.17186	0.4137
3053.24309	0.41296
3051.31432	0.41206
3049.38555	0.41101
3047.45678	0.40981
3045.52801	0.40853
3043.59924	0.40722
3041.67047	0.40592
3039.7417	0.40473
3037.81293	0.40374
3035.88416	0.40302
3033.95539	0.40261
3032.02662	0.40258
3030.09785	0.40299
3028.16908	0.40389
3026.24031	0.40527
3024.31154	0.40713
3022.38277	0.40946
3020.454	0.4124
3018.52523	0.41597
3016.59646	0.42002
3014.66768	0.42431
3012.73891	0.42896
3010.81014	0.43453
3008.88137	0.44138
3006.9526	0.44942
3005.02383	0.45836
3003.09506	0.46802
3001.16629	0.47841
2999.23752	0.48951
2997.30875	0.50132
2995.37998	0.51384
2993.45121	0.52714
2991.52244	0.54109
2989.59367	0.5553
2987.6649	0.56923
2985.73613	0.58229
2983.80736	0.594
2981.87859	0.604
2979.94982	0.61204
2978.02105	0.61802
2976.09228	0.62192
2974.16351	0.62382
2972.23474	0.6237
2970.30597	0.62154
2968.3772	0.61765
2966.44843	0.61294
2964.51966	0.60824
2962.59089	0.60376
2960.66212	0.59952
2958.73335	0.59585
2956.80458	0.59328
2954.87581	0.59227
2952.94704	0.5931
2951.01827	0.59595
2949.0895	0.60081
2947.16073	0.60738
2945.23196	0.61513
2943.30319	0.62344
2941.37442	0.63176
2939.44565	0.6397
2937.51688	0.64694
2935.58811	0.65327
2933.65934	0.65855
2931.73057	0.66268
2929.8018	0.66543
2927.87303	0.6666
2925.94426	0.66614
2924.01549	0.66442
2922.08672	0.66202
2920.15795	0.65917
2918.22918	0.65573
2916.30041	0.65166
2914.37164	0.64714
2912.44287	0.64234
2910.5141	0.63732
2908.58533	0.63213
2906.65656	0.62693
2904.72779	0.62178
2902.79902	0.61662
2900.87025	0.61136
2898.94148	0.606
2897.01271	0.6005
2895.08394	0.59489
2893.15517	0.58919
2891.2264	0.58336
2889.29763	0.57742
2887.36886	0.57134
2885.44009	0.56496
2883.51132	0.55808
2881.58255	0.55068
2879.65378	0.54293
2877.72501	0.535
2875.79624	0.52672
2873.86747	0.51764
2871.9387	0.5076
2870.00993	0.49685
2868.08116	0.48563
2866.15239	0.47397
2864.22362	0.46199
2862.29485	0.44991
2860.36608	0.43801
2858.43731	0.42643
2856.50854	0.41521
2854.57977	0.40445
2852.651	0.39428
2850.72223	0.38479
2848.79346	0.37603
2846.86469	0.36801
2844.93592	0.36074
2843.00714	0.35415
2841.07837	0.34811
2839.1496	0.34251
2837.22083	0.33726
2835.29206	0.33234
2833.36329	0.32769
2831.43452	0.32328
2829.50575	0.31907
2827.57698	0.31504
2825.64821	0.31118
2823.71944	0.30747
2821.79067	0.30388
2819.8619	0.3004
2817.93313	0.29705
2816.00436	0.29383
2814.07559	0.29076
2812.14682	0.28781
2810.21805	0.28497
2808.28928	0.2822
2806.36051	0.27942
2804.43174	0.27657
2802.50297	0.27365
2800.5742	0.27069
2798.64543	0.26771
2796.71666	0.26473
2794.78789	0.26173
2792.85912	0.2587
2790.93035	0.25563
2789.00158	0.25253
2787.07281	0.24944
2785.14404	0.24634
2783.21527	0.24322
2781.2865	0.24006
2779.35773	0.23692
2777.42896	0.23384
2775.50019	0.23087
2773.57142	0.22805
2771.64265	0.22537
2769.71388	0.22288
2767.78511	0.22064
2765.85634	0.21862
2763.92757	0.21674
2761.9988	0.21496
2760.07003	0.21327
2758.14126	0.21168
2756.21249	0.21018
2754.28372	0.20874
2752.35495	0.20732
2750.42618	0.20593
2748.49741	0.20458
2746.56864	0.20326
2744.63987	0.20194
2742.7111	0.20061
2740.78233	0.19928
2738.85356	0.19795
2736.92479	0.19661
2734.99602	0.19526
2733.06725	0.19393
2731.13848	0.19261
2729.20971	0.19132
2727.28094	0.19008
2725.35217	0.18891
2723.4234	0.1878
2721.49463	0.18672
2719.56586	0.18565
2717.63709	0.18456
2715.70832	0.18346
2713.77955	0.18236
2711.85078	0.18127
2709.92201	0.18012
2707.99324	0.17888
2706.06447	0.17756
2704.1357	0.17624
2702.20693	0.17497
2700.27816	0.17375
2698.34939	0.17254
2696.42062	0.17133
2694.49185	0.1701
2692.56308	0.16885
2690.63431	0.16759
2688.70554	0.16627
2686.77677	0.16491
2684.848	0.16354
2682.91923	0.16216
2680.99046	0.16082
2679.06169	0.1595
2677.13292	0.15824
2675.20415	0.15706
2673.27538	0.156
2671.34661	0.15509
2669.41783	0.15436
2667.48906	0.15384
2665.56029	0.15352
2663.63152	0.15335
2661.70275	0.15329
2659.77398	0.15336
2657.84521	0.15355
2655.91644	0.15378
2653.98767	0.15395
2652.0589	0.15397
2650.13013	0.15381
2648.20136	0.15342
2646.27259	0.15281
2644.34382	0.15197
2642.41505	0.15086
2640.48628	0.14953
2638.55751	0.14801
2636.62874	0.14636
2634.69997	0.14458
2632.7712	0.14271
2630.84243	0.14079
2628.91366	0.1389
2626.98489	0.13709
2625.05612	0.13542
2623.12735	0.1339
2621.19858	0.1325
2619.26981	0.13124
2617.34104	0.13009
2615.41227	0.12903
2613.4835	0.12802
2611.55473	0.12703
2609.62596	0.12597
2607.69719	0.1248
2605.76842	0.12351
2603.83965	0.12212
2601.91088	0.12067
2599.98211	0.11918
2598.05334	0.11762
2596.12457	0.11598
2594.1958	0.11428
2592.26703	0.11253
2590.33826	0.11074
2588.40949	0.10891
2586.48072	0.10705
2584.55195	0.10521
2582.62318	0.10336
2580.69441	0.10151
2578.76564	0.0997
2576.83687	0.09795
2574.9081	0.0963
2572.97933	0.09472
2571.05056	0.09317
2569.12179	0.09165
2567.19302	0.09021
2565.26425	0.08886
2563.33548	0.08754
2561.40671	0.08621
2559.47794	0.08495
2557.54917	0.08377
2555.6204	0.08269
2553.69163	0.08166
2551.76286	0.08069
2549.83409	0.07975
2547.90532	0.07884
2545.97655	0.07793
2544.04778	0.07704
2542.11901	0.07618
2540.19024	0.07538
2538.26147	0.07457
2536.3327	0.07372
2534.40393	0.07288
2532.47516	0.07207
2530.54639	0.07131
2528.61762	0.07055
2526.68885	0.06973
2524.76008	0.06885
2522.83131	0.06794
2520.90254	0.06699
2518.97377	0.066
2517.045	0.06495
2515.11623	0.06385
2513.18746	0.06273
2511.25869	0.06166
2509.32992	0.06065
2507.40115	0.05967
2505.47238	0.05871
2503.54361	0.05775
2501.61484	0.05679
2499.68607	0.05587
2497.75729	0.055
2495.82852	0.05419
2493.89975	0.05342
2491.97098	0.05267
2490.04221	0.05195
2488.11344	0.05131
2486.18467	0.05077
2484.2559	0.05031
2482.32713	0.04986
2480.39836	0.04939
2478.46959	0.04893
2476.54082	0.04849
2474.61205	0.04805
2472.68328	0.04766
2470.75451	0.04729
2468.82574	0.04694
2466.89697	0.04661
2464.9682	0.04633
2463.03943	0.04605
2461.11066	0.04575
2459.18189	0.04541
2457.25312	0.04503
2455.32435	0.04459
2453.39558	0.04412
2451.46681	0.04361
2449.53804	0.04308
2447.60927	0.04253
2445.6805	0.04195
2443.75173	0.04133
2441.82296	0.04072
2439.89419	0.04012
2437.96542	0.03951
2436.03665	0.03888
2434.10788	0.03827
2432.17911	0.03769
2430.25034	0.03713
2428.32157	0.03656
2426.3928	0.03601
2424.46403	0.03547
2422.53526	0.03493
2420.60649	0.03439
2418.67772	0.03384
2416.74895	0.03331
2414.82018	0.03277
2412.89141	0.03222
2410.96264	0.03164
2409.03387	0.03105
2407.1051	0.03044
2405.17633	0.02983
2403.24756	0.0292
2401.31879	0.02855
2399.39002	0.02787
2397.46125	0.02717
2395.53248	0.02648
2393.60371	0.02582
2391.67494	0.02516
2389.74617	0.0245
2387.8174	0.02384
2385.88863	0.02318
2383.95986	0.02252
2382.03109	0.02186
2380.10232	0.0212
2378.17355	0.02054
2376.24478	0.01989
2374.31601	0.01923
2372.38724	0.01857
2370.45847	0.01791
2368.5297	0.01725
2366.60093	0.01664
2364.67216	0.01614
2362.74339	0.01564
2360.81462	0.01515
2358.88585	0.01465
2356.95708	0.01415
2355.02831	0.01365
2353.09954	0.01315
2351.17077	0.01266
2349.242	0.01216
2347.31323	0.01212
2345.38446	0.01124
2343.45569	0.01007
2341.52692	0.00907
2339.59815	0.00839
2337.66938	0.00789
2335.74061	0.00747
2333.81184	0.00721
2331.88307	0.00725
2329.9543	0.00761
2328.02553	0.00831
2326.09675	0.00925
2324.16798	0.01036
2322.23921	0.01159
2320.31044	0.01289
2318.38167	0.0142
2316.4529	0.01542
2314.52413	0.0165
2312.59536	0.01738
2310.66659	0.01807
2308.73782	0.0186
2306.80905	0.01897
2304.88028	0.01918
2302.95151	0.01924
2301.02274	0.0191
2299.09397	0.01802
2297.1652	0.01734
2295.23643	0.01696
2293.30766	0.01664
2291.37889	0.01627
2289.45012	0.01595
2287.52135	0.01586
2285.59258	0.01598
2283.66381	0.01616
2281.73504	0.01636
2279.80627	0.01654
2277.8775	0.01667
2275.94873	0.01671
2274.01996	0.01656
2272.09119	0.01608
2270.16242	0.01543
2268.23365	0.01469
2266.30488	0.01392
2264.37611	0.01315
2262.44734	0.01239
2260.51857	0.0117
2258.5898	0.01115
2256.66103	0.01081
2254.73226	0.01061
2252.80349	0.01043
2250.87472	0.01028
2248.94595	0.01019
2247.01718	0.01018
2245.08841	0.01026
2243.15964	0.01038
2241.23087	0.01045
2239.3021	0.01043
2237.37333	0.01039
2235.44456	0.01042
2233.51579	0.01051
2231.58702	0.01049
2229.65825	0.01031
2227.72948	0.01006
2225.80071	0.00983
2223.87194	0.00979
2221.94317	0.0098
2220.0144	0.00981
2218.08563	0.00986
2216.15686	0.01004
2214.22809	0.01036
2212.29932	0.01073
2210.37055	0.01107
2208.44178	0.01139
2206.51301	0.01182
2204.58424	0.01237
2202.65547	0.01287
2200.7267	0.01326
2198.79793	0.01365
2196.86916	0.01398
2194.94039	0.01415
2193.01162	0.0142
2191.08285	0.01424
2189.15408	0.01426
2187.22531	0.01423
2185.29654	0.01422
2183.36777	0.01447
2181.439	0.015
2179.51023	0.01525
2177.58146	0.01488
2175.65269	0.01393
2173.72392	0.01264
2171.79515	0.01119
2169.86638	0.00967
2167.93761	0.00807
2166.00884	0.00647
2164.08007	0.00506
2162.1513	0.00402
2160.22253	0.00335
2158.29376	0.00283
2156.36499	0.00233
2154.43622	0.00191
2152.50744	0.00165
2150.57867	0.00151
2148.6499	0.00151
2146.72113	0.0018
2144.79236	0.00242
2142.86359	0.00339
2140.93482	0.00468
2139.00605	0.00627
2137.07728	0.00798
2135.14851	0.00943
2133.21974	0.01032
2131.29097	0.01089
2129.3622	0.01144
2127.43343	0.01202
2125.50466	0.01266
2123.57589	0.01335
2121.64712	0.01403
2119.71835	0.01471
2117.78958	0.01545
2115.86081	0.01617
2113.93204	0.01672
2112.00327	0.017
2110.0745	0.01703
2108.14573	0.01689
2106.21696	0.01667
2104.28819	0.0164
2102.35942	0.01608
2100.43065	0.01573
2098.50188	0.01543
2096.57311	0.01522
2094.64434	0.01516
2092.71557	0.01522
2090.7868	0.01537
2088.85803	0.01562
2086.92926	0.016
2085.00049	0.01647
2083.07172	0.01692
2081.14295	0.01733
2079.21418	0.01768
2077.28541	0.01786
2075.35664	0.01775
2073.42787	0.01748
2071.4991	0.01725
2069.57033	0.01707
2067.64156	0.01683
2065.71279	0.01649
2063.78402	0.01606
2061.85525	0.01562
2059.92648	0.0152
2057.99771	0.0148
2056.06894	0.01435
2054.14017	0.01389
2052.2114	0.01353
2050.28263	0.01336
2048.35386	0.01325
2046.42509	0.01297
2044.49632	0.01249
2042.56755	0.01189
2040.63878	0.01126
2038.71001	0.01059
2036.78124	0.00981
2034.85247	0.00884
2032.9237	0.00767
2030.99493	0.00641
2029.06616	0.00528
2027.13739	0.00443
2025.20862	0.00385
2023.27985	0.00336
2021.35108	0.00286
2019.42231	0.00236
2017.49354	0.00195
2015.56477	0.00165
2013.636	0.00138
2011.70723	0.00105
2009.77846	6.80104E-4
2007.84969	3.7745E-4
2005.92092	2.43982E-4
2003.99215	2.14622E-4
2002.06338	2.23108E-4
2000.13461	2.78802E-4
1998.20584	3.92999E-4
1996.27707	5.58961E-4
1994.3483	7.17475E-4
1992.41953	7.7722E-4
1990.49076	7.10848E-4
1988.56199	6.15745E-4
1986.63322	6.43514E-4
1984.70445	8.35855E-4
1982.77568	0.00105
1980.8469	0.00108
1978.91813	9.12129E-4
1976.98936	6.65459E-4
1975.06059	4.88513E-4
1973.13182	3.84802E-4
1971.20305	2.89103E-4
1969.27428	1.75584E-4
1967.34551	6.12879E-5
1965.41674	0
1963.48797	5.20114E-5
1961.5592	2.67403E-4
1959.63043	6.64327E-4
1957.70166	0.00127
1955.77289	0.00206
1953.84412	0.00295
1951.91535	0.00382
1949.98658	0.00466
1948.05781	0.00543
1946.12904	0.00616
1944.20027	0.00694
1942.2715	0.00783
1940.34273	0.00871
1938.41396	0.00946
1936.48519	0.01003
1934.55642	0.01045
1932.62765	0.01086
1930.69888	0.01142
1928.77011	0.01215
1926.84134	0.01293
1924.91257	0.01366
1922.9838	0.01428
1921.05503	0.01477
1919.12626	0.01518
1917.19749	0.01554
1915.26872	0.01591
1913.33995	0.01624
1911.41118	0.01654
1909.48241	0.0168
1907.55364	0.01684
1905.62487	0.01689
1903.6961	0.01687
1901.76733	0.01676
1899.83856	0.0166
1897.90979	0.01644
1895.98102	0.01625
1894.05225	0.01594
1892.12348	0.0155
1890.19471	0.01504
1888.26594	0.01466
1886.33717	0.01445
1884.4084	0.01435
1882.47963	0.01424
1880.55086	0.01407
1878.62209	0.01383
1876.69332	0.01354
1874.76455	0.0132
1872.83578	0.01285
1870.90701	0.01251
1868.97824	0.01219
1867.04947	0.01185
1865.1207	0.01159
1863.19193	0.01146
1861.26316	0.0114
1859.33439	0.01136
1857.40562	0.01135
1855.47685	0.01137
1853.54808	0.01141
1851.61931	0.01146
1849.69054	0.01158
1847.76177	0.01176
1845.833	0.01207
1843.90423	0.01262
1841.97546	0.01338
1840.04669	0.0142
1838.11792	0.01491
1836.18915	0.01535
1834.26038	0.01548
1832.33161	0.01576
1830.40284	0.01723
1828.47407	0.02098
1826.5453	0.02758
1824.61653	0.03698
1822.68776	0.04868
1820.75899	0.06214
1818.83022	0.07685
1816.90145	0.09224
1814.97268	0.10782
1813.04391	0.12353
1811.11514	0.1394
1809.18636	0.15517
1807.25759	0.17063
1805.32882	0.18572
1803.40005	0.20035
1801.47128	0.2143
1799.54251	0.22737
1797.61374	0.23924
1795.68497	0.24969
1793.7562	0.25908
1791.82743	0.26797
1789.89866	0.27656
1787.96989	0.28485
1786.04112	0.29316
1784.11235	0.30178
1782.18358	0.31044
1780.25481	0.31831
1778.32604	0.32457
1776.39727	0.3289
1774.4685	0.33174
1772.53973	0.33426
1770.61096	0.33738
1768.68219	0.34093
1766.75342	0.34433
1764.82465	0.34697
1762.89588	0.34832
1760.96711	0.34802
1759.03834	0.34591
1757.10957	0.34201
1755.1808	0.33657
1753.25203	0.32986
1751.32326	0.32204
1749.39449	0.31322
1747.46572	0.30354
1745.53695	0.29269
1743.60818	0.27992
1741.67941	0.26465
1739.75064	0.24689
1737.82187	0.22725
1735.8931	0.20653
1733.96433	0.1855
1732.03556	0.16505
1730.10679	0.14634
1728.17802	0.13065
1726.24925	0.1188
1724.32048	0.11007
1722.39171	0.10298
1720.46294	0.09732
1718.53417	0.09391
1716.6054	0.09392
1714.67663	0.09833
1712.74786	0.10771
1710.81909	0.12214
1708.89032	0.141
1706.96155	0.1629
1705.03278	0.1856
1703.10401	0.20715
1701.17524	0.22657
1699.24647	0.24331
1697.3177	0.25688
1695.38893	0.26691
1693.46016	0.27328
1691.53139	0.27619
1689.60262	0.27569
1687.67385	0.27162
1685.74508	0.264
1683.81631	0.25315
1681.88754	0.23956
1679.95877	0.22364
1678.03	0.20576
1676.10123	0.18689
1674.17246	0.16889
1672.24369	0.15327
1670.31492	0.14096
1668.38615	0.13229
1666.45738	0.12709
1664.52861	0.12461
1662.59984	0.1238
1660.67107	0.12357
1658.7423	0.12303
1656.81353	0.12231
1654.88476	0.12186
1652.95599	0.12171
1651.02722	0.12169
1649.09845	0.12174
1647.16968	0.12185
1645.24091	0.12208
1643.31214	0.12236
1641.38337	0.12245
1639.4546	0.12226
1637.52583	0.12182
1635.59705	0.12114
1633.66828	0.12007
1631.73951	0.11858
1629.81074	0.11687
1627.88197	0.11522
1625.9532	0.11366
1624.02443	0.11217
1622.09566	0.11089
1620.16689	0.10979
1618.23812	0.10859
1616.30935	0.10715
1614.38058	0.10544
1612.45181	0.10354
1610.52304	0.10158
1608.59427	0.09957
1606.6655	0.0974
1604.73673	0.09505
1602.80796	0.09249
1600.87919	0.08969
1598.95042	0.08664
1597.02165	0.08357
1595.09288	0.08058
1593.16411	0.07751
1591.23534	0.07444
1589.30657	0.07183
1587.3778	0.07017
1585.44903	0.06993
1583.52026	0.07142
1581.59149	0.07466
1579.66272	0.07955
1577.73395	0.08581
1575.80518	0.093
1573.87641	0.10067
1571.94764	0.10844
1570.01887	0.11596
1568.0901	0.12288
1566.16133	0.12903
1564.23256	0.13422
1562.30379	0.13826
1560.37502	0.14104
1558.44625	0.14238
1556.51748	0.14213
1554.58871	0.14037
1552.65994	0.13736
1550.73117	0.13335
1548.8024	0.12836
1546.87363	0.12253
1544.94486	0.11638
1543.01609	0.11056
1541.08732	0.10535
1539.15855	0.10088
1537.22978	0.09727
1535.30101	0.09451
1533.37224	0.09246
1531.44347	0.09075
1529.5147	0.08916
1527.58593	0.08818
1525.65716	0.0881
1523.72839	0.08859
1521.79962	0.08914
1519.87085	0.08976
1517.94208	0.09144
1516.01331	0.09541
1514.08454	0.1022
1512.15577	0.11128
1510.227	0.12143
1508.29823	0.13157
1506.36946	0.14117
1504.44069	0.15023
1502.51192	0.15896
1500.58315	0.16729
1498.65438	0.1747
1496.72561	0.18054
1494.79684	0.18453
1492.86807	0.18693
1490.9393	0.18795
1489.01053	0.18744
1487.08176	0.18541
1485.15299	0.18242
1483.22422	0.17921
1481.29545	0.17642
1479.36668	0.1742
1477.43791	0.17267
1475.50914	0.17216
1473.58037	0.1734
1471.6516	0.17712
1469.72283	0.18296
1467.79406	0.18967
1465.86529	0.19586
1463.93651	0.20053
1462.00774	0.20363
1460.07897	0.20555
1458.1502	0.2066
1456.22143	0.20672
1454.29266	0.20548
1452.36389	0.20246
1450.43512	0.1977
1448.50635	0.19176
1446.57758	0.18523
1444.64881	0.17827
1442.72004	0.17099
1440.79127	0.16391
1438.8625	0.15783
1436.93373	0.15309
1435.00496	0.14984
1433.07619	0.14835
1431.14742	0.14859
1429.21865	0.1501
1427.28988	0.15252
1425.36111	0.1556
1423.43234	0.15903
1421.50357	0.16244
1419.5748	0.1657
1417.64603	0.16902
1415.71726	0.17273
1413.78849	0.17684
1411.85972	0.18102
1409.93095	0.18494
1408.00218	0.18843
1406.07341	0.19146
1404.14464	0.19398
1402.21587	0.19585
1400.2871	0.19689
1398.35833	0.19698
1396.42956	0.1963
1394.50079	0.19549
1392.57202	0.19526
1390.64325	0.19598
1388.71448	0.19779
1386.78571	0.20073
1384.85694	0.20457
1382.92817	0.20877
1380.9994	0.21272
1379.07063	0.21597
1377.14186	0.2183
1375.21309	0.21979
1373.28432	0.22075
1371.35555	0.22145
1369.42678	0.22181
1367.49801	0.22134
1365.56924	0.21968
1363.64047	0.21689
1361.7117	0.21334
1359.78293	0.20935
1357.85416	0.20501
1355.92539	0.20041
1353.99662	0.1957
1352.06785	0.19126
1350.13908	0.18763
1348.21031	0.18531
1346.28154	0.18447
1344.35277	0.18505
1342.424	0.18682
1340.49523	0.18943
1338.56646	0.19245
1336.63769	0.19549
1334.70892	0.19833
1332.78015	0.20096
1330.85138	0.2034
1328.92261	0.2056
1326.99384	0.20742
1325.06507	0.20878
1323.1363	0.20962
1321.20753	0.20994
1319.27876	0.2098
1317.34999	0.20934
1315.42122	0.20882
1313.49245	0.20841
1311.56368	0.20812
1309.63491	0.20789
1307.70614	0.20771
1305.77737	0.20754
1303.8486	0.20735
1301.91983	0.20713
1299.99106	0.20688
1298.06229	0.20645
1296.13352	0.20567
1294.20475	0.20435
1292.27597	0.2023
1290.3472	0.19938
1288.41843	0.19549
1286.48966	0.19058
1284.56089	0.18463
1282.63212	0.17765
1280.70335	0.16975
1278.77458	0.16111
1276.84581	0.15208
1274.91704	0.14324
1272.98827	0.13541
1271.0595	0.12936
1269.13073	0.12557
1267.20196	0.12416
1265.27319	0.12517
1263.34442	0.12865
1261.41565	0.13442
1259.48688	0.14196
1257.55811	0.15067
1255.62934	0.15996
1253.70057	0.16925
1251.7718	0.17795
1249.84303	0.18549
1247.91426	0.19135
1245.98549	0.19512
1244.05672	0.19649
1242.12795	0.19527
1240.19918	0.19141
1238.27041	0.18497
1236.34164	0.17619
1234.41287	0.16551
1232.4841	0.15356
1230.55533	0.14121
1228.62656	0.12938
1226.69779	0.11889
1224.76902	0.11041
1222.84025	0.10444
1220.91148	0.10139
1218.98271	0.10133
1217.05394	0.10372
1215.12517	0.10757
1213.1964	0.11195
1211.26763	0.1163
1209.33886	0.12031
1207.41009	0.1238
1205.48132	0.12654
1203.55255	0.1283
1201.62378	0.12885
1199.69501	0.12801
1197.76624	0.1256
1195.83747	0.12153
1193.9087	0.1158
1191.97993	0.10865
1190.05116	0.10048
1188.12239	0.09197
1186.19362	0.0841
1184.26485	0.07825
1182.33608	0.07608
1180.40731	0.07916
1178.47854	0.08857
1176.54977	0.10459
1174.621	0.12672
1172.69223	0.15387
1170.76346	0.18479
1168.83469	0.2183
1166.90592	0.25321
1164.97715	0.28816
1163.04838	0.3217
1161.11961	0.35242
1159.19084	0.37909
1157.26207	0.40088
1155.3333	0.4174
1153.40453	0.42852
1151.47576	0.43416
1149.54699	0.4345
1147.61822	0.42997
1145.68945	0.42115
1143.76068	0.40866
1141.83191	0.39337
1139.90314	0.37676
1137.97437	0.36102
1136.0456	0.34868
1134.11683	0.34167
1132.18806	0.34081
1130.25929	0.34583
1128.33052	0.35577
1126.40175	0.36943
1124.47298	0.38556
1122.54421	0.40295
1120.61544	0.42028
1118.68666	0.43621
1116.75789	0.44943
1114.82912	0.459
1112.90035	0.46454
1110.97158	0.46637
1109.04281	0.46512
1107.11404	0.46142
1105.18527	0.45608
1103.2565	0.45018
1101.32773	0.44494
1099.39896	0.44147
1097.47019	0.44059
1095.54142	0.44281
1093.61265	0.44801
1091.68388	0.4556
1089.75511	0.46489
1087.82634	0.4753
1085.89757	0.48602
1083.9688	0.49611
1082.04003	0.50514
1080.11126	0.51343
1078.18249	0.52154
1076.25372	0.5298
1074.32495	0.53813
1072.39618	0.54626
1070.46741	0.55381
1068.53864	0.5607
1066.60987	0.56722
1064.6811	0.57387
1062.75233	0.58118
1060.82356	0.58967
1058.89479	0.59995
1056.96602	0.6125
1055.03725	0.62757
1053.10848	0.64528
1051.17971	0.66552
1049.25094	0.68784
1047.32217	0.71139
1045.3934	0.73561
1043.46463	0.76078
1041.53586	0.78738
1039.60709	0.81534
1037.67832	0.84403
1035.74955	0.87276
1033.82078	0.90073
1031.89201	0.92693
1029.96324	0.9502
1028.03447	0.96963
1026.1057	0.9846
1024.17693	0.99475
1022.24816	0.99989
1020.31939	1
1018.39062	0.99522
1016.46185	0.98589
1014.53308	0.97257
1012.60431	0.95601
1010.67554	0.93706
1008.74677	0.91672
1006.818	0.89622
1004.88923	0.87708
1002.96046	0.86085
1001.03169	0.84843
999.10292	0.83962
997.17415	0.83317
995.24538	0.82715
993.31661	0.81964
991.38784	0.80926
989.45907	0.79512
987.5303	0.77658
985.60153	0.75307
983.67276	0.72436
981.74399	0.69076
979.81522	0.65303
977.88645	0.61207
975.95768	0.56879
974.02891	0.52417
972.10014	0.47927
970.17137	0.4352
968.2426	0.39317
966.31383	0.35431
964.38506	0.31952
962.45629	0.28933
960.52752	0.26415
958.59875	0.24443
956.66998	0.23041
954.74121	0.22159
952.81244	0.21676
950.88367	0.21471
948.9549	0.21481
947.02612	0.21683
945.09735	0.22051
943.16858	0.22517
941.23981	0.22975
939.31104	0.23324
937.38227	0.23497
935.4535	0.23464
933.52473	0.23212
931.59596	0.22737
929.66719	0.22041
927.73842	0.21141
925.80965	0.20077
923.88088	0.18915
921.95211	0.17731
920.02334	0.16577
918.09457	0.15465
916.1658	0.14373
914.23703	0.13284
912.30826	0.12208
910.37949	0.11172
908.45072	0.1021
906.52195	0.0935
904.59318	0.08609
902.66441	0.0799
900.73564	0.07474
898.80687	0.07029
896.8781	0.06626
894.94933	0.0625
893.02056	0.05896
891.09179	0.05578
889.16302	0.05333
887.23425	0.05207
885.30548	0.05225
883.37671	0.05374
881.44794	0.05624
879.51917	0.05954
877.5904	0.06349
875.66163	0.06795
873.73286	0.07277
871.80409	0.07776
869.87532	0.08277
867.94655	0.08769
866.01778	0.09248
864.08901	0.09705
862.16024	0.1012
860.23147	0.10461
858.3027	0.10697
856.37393	0.10801
854.44516	0.10754
852.51639	0.1055
850.58762	0.10202
848.65885	0.09727
846.73008	0.09151
844.80131	0.0851
842.87254	0.07847
840.94377	0.07197
839.015	0.06559
837.08623	0.05925
835.15746	0.05293
833.22869	0.04674
831.29992	0.04081
829.37115	0.0352
827.44238	0.02999
825.51361	0.02527
823.58484	0.02119
821.65607	0.0179
819.7273	0.01544
817.79853	0.01373
815.86976	0.0126
813.94099	0.0119
812.01222	0.01159
810.08345	0.01174
808.15468	0.01236
806.22591	0.01341
804.29714	0.01474
802.36837	0.01623
800.4396	0.01781
798.51083	0.01954
796.58206	0.02146
794.65329	0.02365
792.72452	0.02623
790.79575	0.02934
788.86698	0.03304
786.93821	0.03737
785.00944	0.04242
783.08067	0.04821
781.1519	0.05468
779.22313	0.06167
777.29436	0.06896
775.36558	0.07634
773.43681	0.08359
771.50804	0.09051
769.57927	0.09693
767.6505	0.10271
765.72173	0.10776
763.79296	0.11195
761.86419	0.11512
759.93542	0.11712
758.00665	0.11797
756.07788	0.11786
754.14911	0.11706
752.22034	0.11572
750.29157	0.11392
748.3628	0.11191
746.43403	0.11012
744.50526	0.10873
742.57649	0.10779
740.64772	0.10735
738.71895	0.10747
736.79018	0.10816
734.86141	0.10932
732.93264	0.11086
731.00387	0.11279
729.0751	0.11515
727.14633	0.11793
725.21756	0.12098
723.28879	0.12406
721.36002	0.12698
719.43125	0.12974
717.50248	0.13274
715.57371	0.13647
713.64494	0.14101
711.71617	0.14601
709.7874	0.151
707.85863	0.15558
705.92986	0.15946
704.00109	0.16257
702.07232	0.16496
700.14355	0.16664
698.21478	0.16738
696.28601	0.16711
694.35724	0.16575
692.42847	0.1636
690.4997	0.16114
688.57093	0.15842
686.64216	0.15558
684.71339	0.15263
682.78462	0.14956
680.85585	0.14647
678.92708	0.14345
676.99831	0.14064
675.06954	0.13831
673.14077	0.13684
671.212	0.13659
669.28323	0.13743
667.35446	0.13873
665.42569	0.13985
663.49692	0.14056
661.56815	0.1409
659.63938	0.14096
657.71061	0.14079
655.78184	0.14036
653.85307	0.13962
651.9243	0.13854
649.99553	0.13717
648.06676	0.13568
646.13799	0.13441
644.20922	0.13344
642.28045	0.13245
640.35168	0.13146
638.42291	0.13044
636.49414	0.12958
634.56537	0.12905
632.6366	0.12896
630.70783	0.12942
628.77906	0.13052
626.85029	0.13228
624.92152	0.13466
622.99275	0.1376
621.06398	0.14097
619.13521	0.14462
617.20644	0.14836
615.27767	0.15199
613.3489	0.15541
611.42013	0.15868
609.49136	0.16193
607.56259	0.16535
605.63382	0.16916
603.70505	0.17348
601.77627	0.17841
599.8475	0.18399
597.91873	0.19009
595.98996	0.19636
594.06119	0.20246
592.13242	0.20812
590.20365	0.21314
588.27488	0.21736
586.34611	0.22071
584.41734	0.22309
582.48857	0.22441
580.5598	0.22456
578.63103	0.22343
576.70226	0.22097
574.77349	0.21706
572.84472	0.21166
570.91595	0.20481
568.98718	0.19672
567.05841	0.18777
565.12964	0.17847
563.20087	0.16933
561.2721	0.16084
559.34333	0.15338
557.41456	0.14719
555.48579	0.14234
553.55702	0.13877
551.62825	0.13626
549.69948	0.13459
547.77071	0.13369
545.84194	0.13362
543.91317	0.1344
541.9844	0.13599
540.05563	0.13828
538.12686	0.14107
536.19809	0.1441
534.26932	0.14713
532.34055	0.14992
530.41178	0.15224
528.48301	0.15386
526.55424	0.15465
524.62547	0.15454
522.6967	0.15348
520.76793	0.15152
518.83916	0.14879
516.91039	0.14556
514.98162	0.14214
513.05285	0.13871
511.12408	0.13533
509.19531	0.13199
507.26654	0.12866
505.33777	0.12541
503.409	0.12235
501.48023	0.11963
499.55146	0.11736
497.62269	0.1155
495.69392	0.11398
493.76515	0.11263
491.83638	0.11125
489.90761	0.10973
487.97884	0.10803
486.05007	0.10613
484.1213	0.104
482.19253	0.10163
480.26376	0.09903
478.33499	0.09625
476.40622	0.09331
474.47745	0.09032
472.54868	0.08739
470.61991	0.08464
468.69114	0.08213
466.76237	0.07982
464.8336	0.07764
462.90483	0.07552
460.97606	0.07342
459.04729	0.07138
457.11852	0.06945
455.18975	0.06771
453.26098	0.06619
451.33221	0.06485
449.40344	0.06372
447.47467	0.06284
445.5459	0.06227
443.61713	0.06205
441.68836	0.06219
439.75959	0.06267
437.83082	0.06337
435.90205	0.06414
433.97328	0.06487
432.04451	0.06545
430.11573	0.06579
428.18696	0.06589
426.25819	0.0658
424.32942	0.06548
422.40065	0.06483
420.47188	0.06354
418.54311	0.06195
416.61434	0.06006
414.68557	0.05787
412.7568	0.05537
410.82803	0.05258
408.89926	0.04949
406.97049	0.0461
405.04172	0.0424
403.11295	0.03841
401.18418	0.03412
399.25541	0.02953