3996.41167	0.01666
3994.4829	0.01666
3992.55413	0.01666
3990.62536	0.01665
3988.69659	0.01664
3986.76782	0.01663
3984.83905	0.01662
3982.91028	0.0166
3980.98151	0.01658
3979.05274	0.01656
3977.12397	0.01653
3975.1952	0.01651
3973.26643	0.01648
3971.33766	0.0164
3969.40889	0.01632
3967.48012	0.01627
3965.55135	0.01623
3963.62258	0.01622
3961.69381	0.01627
3959.76504	0.01634
3957.83627	0.01638
3955.9075	0.01638
3953.97873	0.01635
3952.04996	0.01634
3950.12119	0.01636
3948.19242	0.01639
3946.26365	0.01642
3944.33488	0.01641
3942.40611	0.01628
3940.47734	0.01606
3938.54857	0.01588
3936.6198	0.01586
3934.69103	0.01596
3932.76226	0.0161
3930.83349	0.01621
3928.90472	0.01621
3926.97595	0.01603
3925.04718	0.01576
3923.11841	0.01557
3921.18964	0.01553
3919.26087	0.01565
3917.3321	0.01588
3915.40333	0.01612
3913.47456	0.01628
3911.54579	0.01644
3909.61702	0.01657
3907.68825	0.01666
3905.75948	0.01676
3903.83071	0.01685
3901.90194	0.01693
3899.97317	0.01706
3898.0444	0.01719
3896.11563	0.01726
3894.18686	0.0173
3892.25809	0.01737
3890.32932	0.01751
3888.40055	0.01766
3886.47178	0.01773
3884.54301	0.01774
3882.61424	0.01774
3880.68547	0.01781
3878.7567	0.01797
3876.82792	0.01807
3874.89915	0.01806
3872.97038	0.01813
3871.04161	0.01834
3869.11284	0.01858
3867.18407	0.01879
3865.2553	0.0189
3863.32653	0.01886
3861.39776	0.01872
3859.46899	0.01862
3857.54022	0.01862
3855.61145	0.0187
3853.68268	0.0188
3851.75391	0.01884
3849.82514	0.01883
3847.89637	0.01883
3845.9676	0.01885
3844.03883	0.0188
3842.11006	0.01865
3840.18129	0.01848
3838.25252	0.0184
3836.32375	0.01842
3834.39498	0.01845
3832.46621	0.01828
3830.53744	0.01783
3828.60867	0.01741
3826.6799	0.01727
3824.75113	0.01723
3822.82236	0.0171
3820.89359	0.01685
3818.96482	0.01657
3817.03605	0.01635
3815.10728	0.01628
3813.17851	0.01634
3811.24974	0.01643
3809.32097	0.01647
3807.3922	0.01645
3805.46343	0.01643
3803.53466	0.01635
3801.60589	0.01615
3799.67712	0.01577
3797.74835	0.01532
3795.81958	0.01495
3793.89081	0.01464
3791.96204	0.01432
3790.03327	0.01399
3788.1045	0.01364
3786.17573	0.01325
3784.24696	0.01287
3782.31819	0.01256
3780.38942	0.01236
3778.46065	0.01232
3776.53188	0.01243
3774.60311	0.01248
3772.67434	0.01243
3770.74557	0.01255
3768.8168	0.0129
3766.88803	0.01337
3764.95926	0.01401
3763.03049	0.0147
3761.10172	0.01538
3759.17295	0.0161
3757.24418	0.01664
3755.31541	0.01702
3753.38664	0.0175
3751.45787	0.01797
3749.5291	0.01831
3747.60033	0.01823
3745.67156	0.01788
3743.74279	0.01726
3741.81402	0.01653
3739.88525	0.01563
3737.95648	0.0146
3736.02771	0.01384
3734.09894	0.01312
3732.17017	0.01261
3730.2414	0.0121
3728.31263	0.01156
3726.38386	0.01105
3724.45509	0.01061
3722.52632	0.01024
3720.59755	0.01005
3718.66878	0.0101
3716.74001	0.01045
3714.81124	0.01083
3712.88247	0.0113
3710.9537	0.01199
3709.02493	0.0134
3707.09616	0.01538
3705.16739	0.01766
3703.23861	0.01999
3701.30984	0.02214
3699.38107	0.02408
3697.4523	0.02586
3695.52353	0.02787
3693.59476	0.03006
3691.66599	0.03248
3689.73722	0.03523
3687.80845	0.03785
3685.87968	0.0405
3683.95091	0.0429
3682.02214	0.04497
3680.09337	0.04659
3678.1646	0.0479
3676.23583	0.0492
3674.30706	0.05041
3672.37829	0.05129
3670.44952	0.05199
3668.52075	0.05262
3666.59198	0.05355
3664.66321	0.05484
3662.73444	0.05646
3660.80567	0.05806
3658.8769	0.05948
3656.94813	0.06068
3655.01936	0.06154
3653.09059	0.06198
3651.16182	0.06238
3649.23305	0.06308
3647.30428	0.0638
3645.37551	0.06454
3643.44674	0.06543
3641.51797	0.06623
3639.5892	0.06714
3637.66043	0.06818
3635.73166	0.06941
3633.80289	0.07115
3631.87412	0.07326
3629.94535	0.07548
3628.01658	0.07784
3626.08781	0.08035
3624.15904	0.08309
3622.23027	0.08607
3620.3015	0.08938
3618.37273	0.0928
3616.44396	0.0965
3614.51519	0.10026
3612.58642	0.10412
3610.65765	0.10782
3608.72888	0.11131
3606.80011	0.11483
3604.87134	0.11859
3602.94257	0.12253
3601.0138	0.12633
3599.08503	0.13007
3597.15626	0.13377
3595.22749	0.13748
3593.29872	0.14152
3591.36995	0.14565
3589.44118	0.14978
3587.51241	0.15412
3585.58364	0.15843
3583.65487	0.16268
3581.7261	0.167
3579.79733	0.17124
3577.86856	0.17534
3575.93979	0.17944
3574.01102	0.18371
3572.08225	0.18795
3570.15348	0.19221
3568.22471	0.1963
3566.29594	0.20048
3564.36717	0.20469
3562.4384	0.20917
3560.50963	0.21384
3558.58086	0.21852
3556.65209	0.22313
3554.72332	0.22768
3552.79455	0.23218
3550.86578	0.23663
3548.93701	0.24104
3547.00824	0.24537
3545.07947	0.24959
3543.1507	0.25383
3541.22193	0.25825
3539.29316	0.26276
3537.36439	0.26724
3535.43562	0.27167
3533.50685	0.27599
3531.57807	0.28014
3529.6493	0.28418
3527.72053	0.28816
3525.79176	0.29215
3523.86299	0.29622
3521.93422	0.30051
3520.00545	0.30503
3518.07668	0.30966
3516.14791	0.31428
3514.21914	0.31885
3512.29037	0.32336
3510.3616	0.32783
3508.43283	0.33228
3506.50406	0.33667
3504.57529	0.34104
3502.64652	0.34546
3500.71775	0.34999
3498.78898	0.35457
3496.86021	0.35915
3494.93144	0.36375
3493.00267	0.36836
3491.0739	0.37297
3489.14513	0.37751
3487.21636	0.38199
3485.28759	0.38645
3483.35882	0.39092
3481.43005	0.39545
3479.50128	0.40014
3477.57251	0.40502
3475.64374	0.41
3473.71497	0.415
3471.7862	0.42
3469.85743	0.42497
3467.92866	0.42996
3465.99989	0.43506
3464.07112	0.44033
3462.14235	0.44576
3460.21358	0.45126
3458.28481	0.45681
3456.35604	0.46243
3454.42727	0.46814
3452.4985	0.47393
3450.56973	0.47982
3448.64096	0.48583
3446.71219	0.49185
3444.78342	0.49779
3442.85465	0.50366
3440.92588	0.50957
3438.99711	0.51555
3437.06834	0.52162
3435.13957	0.52775
3433.2108	0.53388
3431.28203	0.53998
3429.35326	0.54608
3427.42449	0.55218
3425.49572	0.55825
3423.56695	0.56434
3421.63818	0.57048
3419.70941	0.57671
3417.78064	0.58296
3415.85187	0.58921
3413.9231	0.59544
3411.99433	0.60168
3410.06556	0.60793
3408.13679	0.61415
3406.20802	0.62033
3404.27925	0.62648
3402.35048	0.63259
3400.42171	0.63862
3398.49294	0.64458
3396.56417	0.6505
3394.6354	0.65642
3392.70663	0.66228
3390.77786	0.66804
3388.84909	0.67369
3386.92032	0.67927
3384.99155	0.68481
3383.06278	0.69028
3381.13401	0.6956
3379.20524	0.70075
3377.27647	0.70578
3375.3477	0.7107
3373.41893	0.71555
3371.49016	0.72032
3369.56139	0.72495
3367.63262	0.72944
3365.70385	0.73379
3363.77508	0.73797
3361.84631	0.742
3359.91753	0.74591
3357.98876	0.7497
3356.05999	0.75335
3354.13122	0.75687
3352.20245	0.76024
3350.27368	0.76345
3348.34491	0.76649
3346.41614	0.76935
3344.48737	0.77202
3342.5586	0.77457
3340.62983	0.77702
3338.70106	0.77935
3336.77229	0.78154
3334.84352	0.78354
3332.91475	0.78537
3330.98598	0.78709
3329.05721	0.78873
3327.12844	0.79027
3325.19967	0.79169
3323.2709	0.79297
3321.34213	0.79412
3319.41336	0.79516
3317.48459	0.79607
3315.55582	0.79685
3313.62705	0.79748
3311.69828	0.79799
3309.76951	0.79841
3307.84074	0.79876
3305.91197	0.79901
3303.9832	0.7991
3302.05443	0.79901
3300.12566	0.79877
3298.19689	0.79842
3296.26812	0.79799
3294.33935	0.79749
3292.41058	0.79691
3290.48181	0.79619
3288.55304	0.79532
3286.62427	0.79432
3284.6955	0.79326
3282.76673	0.79215
3280.83796	0.79099
3278.90919	0.78974
3276.98042	0.78838
3275.05165	0.78691
3273.12288	0.78536
3271.19411	0.78371
3269.26534	0.78192
3267.33657	0.78002
3265.4078	0.77804
3263.47903	0.77602
3261.55026	0.77394
3259.62149	0.77175
3257.69272	0.76945
3255.76395	0.76701
3253.83518	0.76445
3251.90641	0.76177
3249.97764	0.75901
3248.04887	0.75614
3246.1201	0.75312
3244.19133	0.74995
3242.26256	0.74664
3240.33379	0.7432
3238.40502	0.73964
3236.47625	0.73598
3234.54748	0.73221
3232.61871	0.72829
3230.68994	0.72421
3228.76117	0.71998
3226.8324	0.7156
3224.90363	0.71103
3222.97486	0.70629
3221.04609	0.70138
3219.11732	0.69633
3217.18855	0.69117
3215.25978	0.68587
3213.33101	0.68044
3211.40224	0.67485
3209.47347	0.66906
3207.5447	0.6631
3205.61593	0.65704
3203.68716	0.6509
3201.75839	0.6446
3199.82962	0.63815
3197.90085	0.63164
3195.97208	0.62508
3194.04331	0.61845
3192.11454	0.61172
3190.18577	0.6049
3188.257	0.598
3186.32822	0.59105
3184.39945	0.58404
3182.47068	0.57698
3180.54191	0.56987
3178.61314	0.56274
3176.68437	0.55558
3174.7556	0.5484
3172.82683	0.54121
3170.89806	0.53403
3168.96929	0.52686
3167.04052	0.5197
3165.11175	0.51255
3163.18298	0.50541
3161.25421	0.49832
3159.32544	0.49132
3157.39667	0.48438
3155.4679	0.47748
3153.53913	0.47062
3151.61036	0.46384
3149.68159	0.45711
3147.75282	0.45041
3145.82405	0.44372
3143.89528	0.43709
3141.96651	0.43055
3140.03774	0.42413
3138.10897	0.41785
3136.1802	0.41172
3134.25143	0.40573
3132.32266	0.39985
3130.39389	0.39407
3128.46512	0.38838
3126.53635	0.38275
3124.60758	0.37721
3122.67881	0.37179
3120.75004	0.36654
3118.82127	0.36143
3116.8925	0.35644
3114.96373	0.35157
3113.03496	0.34682
3111.10619	0.34217
3109.17742	0.33763
3107.24865	0.33322
3105.31988	0.32892
3103.39111	0.32474
3101.46234	0.3207
3099.53357	0.31683
3097.6048	0.31312
3095.67603	0.30958
3093.74726	0.30623
3091.81849	0.30308
3089.88972	0.3001
3087.96095	0.29725
3086.03218	0.29456
3084.10341	0.29201
3082.17464	0.28956
3080.24587	0.28717
3078.3171	0.28486
3076.38833	0.28268
3074.45956	0.28059
3072.53079	0.27853
3070.60202	0.27648
3068.67325	0.27443
3066.74448	0.27242
3064.81571	0.27047
3062.88694	0.2686
3060.95817	0.2668
3059.0294	0.26504
3057.10063	0.26331
3055.17186	0.26166
3053.24309	0.2601
3051.31432	0.25861
3049.38555	0.2572
3047.45678	0.25587
3045.52801	0.25463
3043.59924	0.25347
3041.67047	0.25239
3039.7417	0.25141
3037.81293	0.25053
3035.88416	0.24978
3033.95539	0.24923
3032.02662	0.24893
3030.09785	0.24888
3028.16908	0.24903
3026.24031	0.24937
3024.31154	0.24999
3022.38277	0.2509
3020.454	0.25216
3018.52523	0.25377
3016.59646	0.25572
3014.66768	0.25787
3012.73891	0.26024
3010.81014	0.26315
3008.88137	0.26689
3006.9526	0.27145
3005.02383	0.27674
3003.09506	0.28279
3001.16629	0.28974
2999.23752	0.29778
2997.30875	0.30708
2995.37998	0.3178
2993.45121	0.32995
2991.52244	0.34339
2989.59367	0.35777
2987.6649	0.37252
2985.73613	0.38693
2983.80736	0.4004
2981.87859	0.41247
2979.94982	0.4228
2978.02105	0.4311
2976.09228	0.43707
2974.16351	0.44055
2972.23474	0.44147
2970.30597	0.43983
2968.3772	0.43587
2966.44843	0.43018
2964.51966	0.42334
2962.59089	0.41571
2960.66212	0.40759
2958.73335	0.39955
2956.80458	0.39223
2954.87581	0.38625
2952.94704	0.38205
2951.01827	0.37996
2949.0895	0.3801
2947.16073	0.38231
2945.23196	0.38625
2943.30319	0.39135
2941.37442	0.39702
2939.44565	0.40276
2937.51688	0.40822
2935.58811	0.41312
2933.65934	0.41731
2931.73057	0.42059
2929.8018	0.42281
2927.87303	0.42385
2925.94426	0.42368
2924.01549	0.42257
2922.08672	0.42091
2920.15795	0.41892
2918.22918	0.41658
2916.30041	0.41396
2914.37164	0.41123
2912.44287	0.40857
2910.5141	0.40604
2908.58533	0.4037
2906.65656	0.40165
2904.72779	0.39995
2902.79902	0.39856
2900.87025	0.39728
2898.94148	0.39596
2897.01271	0.39445
2895.08394	0.39265
2893.15517	0.3905
2891.2264	0.38795
2889.29763	0.38498
2887.36886	0.38158
2885.44009	0.3776
2883.51132	0.37289
2881.58255	0.36748
2879.65378	0.3615
2877.72501	0.3551
2875.79624	0.3483
2873.86747	0.34092
2871.9387	0.33293
2870.00993	0.32449
2868.08116	0.31577
2866.15239	0.30686
2864.22362	0.29789
2862.29485	0.28902
2860.36608	0.28043
2858.43731	0.27221
2856.50854	0.26439
2854.57977	0.25702
2852.651	0.25016
2850.72223	0.2439
2848.79346	0.23821
2846.86469	0.23307
2844.93592	0.22845
2843.00714	0.22429
2841.07837	0.22051
2839.1496	0.21695
2837.22083	0.21354
2835.29206	0.21026
2833.36329	0.20709
2831.43452	0.20402
2829.50575	0.20099
2827.57698	0.19797
2825.64821	0.19497
2823.71944	0.19198
2821.79067	0.18903
2819.8619	0.18613
2817.93313	0.18333
2816.00436	0.18062
2814.07559	0.17799
2812.14682	0.17547
2810.21805	0.17306
2808.28928	0.1707
2806.36051	0.16836
2804.43174	0.16602
2802.50297	0.16371
2800.5742	0.16143
2798.64543	0.15923
2796.71666	0.15713
2794.78789	0.15515
2792.85912	0.15324
2790.93035	0.1514
2789.00158	0.14964
2787.07281	0.148
2785.14404	0.14646
2783.21527	0.14497
2781.2865	0.14353
2779.35773	0.14219
2777.42896	0.14094
2775.50019	0.13978
2773.57142	0.13871
2771.64265	0.13772
2769.71388	0.13682
2767.78511	0.13602
2765.85634	0.13532
2763.92757	0.13465
2761.9988	0.13396
2760.07003	0.13327
2758.14126	0.13259
2756.21249	0.1319
2754.28372	0.1312
2752.35495	0.13048
2750.42618	0.12976
2748.49741	0.12902
2746.56864	0.12826
2744.63987	0.12747
2742.7111	0.12665
2740.78233	0.12579
2738.85356	0.1249
2736.92479	0.12396
2734.99602	0.123
2733.06725	0.12204
2731.13848	0.12108
2729.20971	0.12011
2727.28094	0.11917
2725.35217	0.11828
2723.4234	0.11741
2721.49463	0.11652
2719.56586	0.11559
2717.63709	0.11463
2715.70832	0.11368
2713.77955	0.11275
2711.85078	0.11185
2709.92201	0.11095
2707.99324	0.11004
2706.06447	0.10913
2704.1357	0.10824
2702.20693	0.10743
2700.27816	0.10672
2698.34939	0.10608
2696.42062	0.10547
2694.49185	0.10491
2692.56308	0.10439
2690.63431	0.10388
2688.70554	0.10337
2686.77677	0.1029
2684.848	0.10246
2682.91923	0.10202
2680.99046	0.10158
2679.06169	0.10112
2677.13292	0.10064
2675.20415	0.10012
2673.27538	0.09961
2671.34661	0.09909
2669.41783	0.09856
2667.48906	0.098
2665.56029	0.09739
2663.63152	0.09673
2661.70275	0.09605
2659.77398	0.09535
2657.84521	0.09467
2655.91644	0.09402
2653.98767	0.09339
2652.0589	0.09274
2650.13013	0.09205
2648.20136	0.09134
2646.27259	0.09059
2644.34382	0.0898
2642.41505	0.08897
2640.48628	0.08811
2638.55751	0.08724
2636.62874	0.08634
2634.69997	0.08541
2632.7712	0.08444
2630.84243	0.08344
2628.91366	0.0824
2626.98489	0.08135
2625.05612	0.0803
2623.12735	0.07923
2621.19858	0.07813
2619.26981	0.07699
2617.34104	0.07582
2615.41227	0.07467
2613.4835	0.07353
2611.55473	0.0724
2609.62596	0.07127
2607.69719	0.07015
2605.76842	0.06904
2603.83965	0.06796
2601.91088	0.06693
2599.98211	0.06593
2598.05334	0.06496
2596.12457	0.06401
2594.1958	0.06306
2592.26703	0.06215
2590.33826	0.06128
2588.40949	0.06042
2586.48072	0.05953
2584.55195	0.05866
2582.62318	0.05782
2580.69441	0.05701
2578.76564	0.05621
2576.83687	0.05541
2574.9081	0.05458
2572.97933	0.05373
2571.05056	0.05291
2569.12179	0.05212
2567.19302	0.05137
2565.26425	0.05064
2563.33548	0.04994
2561.40671	0.0493
2559.47794	0.04873
2557.54917	0.04822
2555.6204	0.04776
2553.69163	0.0473
2551.76286	0.04684
2549.83409	0.04639
2547.90532	0.04595
2545.97655	0.04553
2544.04778	0.04513
2542.11901	0.04471
2540.19024	0.04428
2538.26147	0.04388
2536.3327	0.04346
2534.40393	0.04302
2532.47516	0.04255
2530.54639	0.04206
2528.61762	0.04151
2526.68885	0.04096
2524.76008	0.04043
2522.83131	0.03992
2520.90254	0.03942
2518.97377	0.0389
2517.045	0.03839
2515.11623	0.03789
2513.18746	0.03737
2511.25869	0.03685
2509.32992	0.03632
2507.40115	0.03579
2505.47238	0.03528
2503.54361	0.03479
2501.61484	0.03433
2499.68607	0.0339
2497.75729	0.03346
2495.82852	0.033
2493.89975	0.03253
2491.97098	0.03208
2490.04221	0.03162
2488.11344	0.03117
2486.18467	0.03073
2484.2559	0.03032
2482.32713	0.02994
2480.39836	0.02961
2478.46959	0.02931
2476.54082	0.02901
2474.61205	0.02869
2472.68328	0.02837
2470.75451	0.02807
2468.82574	0.02777
2466.89697	0.02746
2464.9682	0.02714
2463.03943	0.02684
2461.11066	0.02659
2459.18189	0.02633
2457.25312	0.02606
2455.32435	0.02578
2453.39558	0.02547
2451.46681	0.02513
2449.53804	0.0248
2447.60927	0.02449
2445.6805	0.02421
2443.75173	0.02393
2441.82296	0.02365
2439.89419	0.0234
2437.96542	0.02318
2436.03665	0.02295
2434.10788	0.02269
2432.17911	0.02242
2430.25034	0.02215
2428.32157	0.02189
2426.3928	0.02163
2424.46403	0.02139
2422.53526	0.02113
2420.60649	0.02085
2418.67772	0.02058
2416.74895	0.02034
2414.82018	0.02012
2412.89141	0.01989
2410.96264	0.01968
2409.03387	0.01949
2407.1051	0.01932
2405.17633	0.01917
2403.24756	0.01902
2401.31879	0.01888
2399.39002	0.01876
2397.46125	0.01863
2395.53248	0.01851
2393.60371	0.01839
2391.67494	0.01828
2389.74617	0.01816
2387.8174	0.01803
2385.88863	0.01791
2383.95986	0.01778
2382.03109	0.01765
2380.10232	0.01752
2378.17355	0.0174
2376.24478	0.01727
2374.31601	0.01714
2372.38724	0.01701
2370.45847	0.01689
2368.5297	0.01676
2366.60093	0.01666
2364.67216	0.01663
2362.74339	0.01661
2360.81462	0.01658
2358.88585	0.01656
2356.95708	0.01653
2355.02831	0.0165
2353.09954	0.01648
2351.17077	0.01645
2349.242	0.01642
2347.31323	0.0164
2345.38446	0.01637
2343.45569	0.01634
2341.52692	0.01632
2339.59815	0.01629
2337.66938	0.01626
2335.74061	0.01624
2333.81184	0.01621
2331.88307	0.01618
2329.9543	0.01616
2328.02553	0.01613
2326.09675	0.0161
2324.16798	0.01608
2322.23921	0.01605
2320.31044	0.01602
2318.38167	0.016
2316.4529	0.01597
2314.52413	0.01595
2312.59536	0.01592
2310.66659	0.01589
2308.73782	0.01587
2306.80905	0.01584
2304.88028	0.01581
2302.95151	0.01579
2301.02274	0.01576
2299.09397	0.01573
2297.1652	0.01571
2295.23643	0.01568
2293.30766	0.01565
2291.37889	0.01563
2289.45012	0.0156
2287.52135	0.01557
2285.59258	0.01555
2283.66381	0.01552
2281.73504	0.01586
2279.80627	0.01601
2277.8775	0.01612
2275.94873	0.01609
2274.01996	0.01592
2272.09119	0.01556
2270.16242	0.01506
2268.23365	0.01446
2266.30488	0.01376
2264.37611	0.01296
2262.44734	0.01204
2260.51857	0.01108
2258.5898	0.01015
2256.66103	0.00928
2254.73226	0.00846
2252.80349	0.00769
2250.87472	0.00699
2248.94595	0.00635
2247.01718	0.00575
2245.08841	0.00523
2243.15964	0.00484
2241.23087	0.00462
2239.3021	0.00453
2237.37333	0.00459
2235.44456	0.00485
2233.51579	0.00479
2231.58702	0.00482
2229.65825	0.00481
2227.72948	0.00478
2225.80071	0.00467
2223.87194	0.00455
2221.94317	0.00444
2220.0144	0.0043
2218.08563	0.00414
2216.15686	0.004
2214.22809	0.00398
2212.29932	0.00408
2210.37055	0.00426
2208.44178	0.00451
2206.51301	0.00481
2204.58424	0.00507
2202.65547	0.00528
2200.7267	0.00546
2198.79793	0.00568
2196.86916	0.00596
2194.94039	0.00625
2193.01162	0.00652
2191.08285	0.00677
2189.15408	0.00695
2187.22531	0.00708
2185.29654	0.0072
2183.36777	0.00729
2181.439	0.00724
2179.51023	0.00698
2177.58146	0.00659
2175.65269	0.00616
2173.72392	0.0057
2171.79515	0.00523
2169.86638	0.00482
2167.93761	0.00457
2166.00884	0.00449
2164.08007	0.00455
2162.1513	0.00474
2160.22253	0.00503
2158.29376	0.00544
2156.36499	0.00601
2154.43622	0.00674
2152.50744	0.00764
2150.57867	0.00866
2148.6499	0.00973
2146.72113	0.01078
2144.79236	0.01176
2142.86359	0.01264
2140.93482	0.0135
2139.00605	0.0143
2137.07728	0.01497
2135.14851	0.01545
2133.21974	0.01574
2131.29097	0.01592
2129.3622	0.01602
2127.43343	0.01603
2125.50466	0.01595
2123.57589	0.01584
2121.64712	0.01572
2119.71835	0.01554
2117.78958	0.0153
2115.86081	0.01507
2113.93204	0.01493
2112.00327	0.01485
2110.0745	0.01479
2108.14573	0.01474
2106.21696	0.01473
2104.28819	0.01474
2102.35942	0.01473
2100.43065	0.01467
2098.50188	0.01457
2096.57311	0.01448
2094.64434	0.01443
2092.71557	0.01442
2090.7868	0.01441
2088.85803	0.01438
2086.92926	0.01427
2085.00049	0.01404
2083.07172	0.01371
2081.14295	0.01332
2079.21418	0.01291
2077.28541	0.01252
2075.35664	0.01212
2073.42787	0.01173
2071.4991	0.01139
2069.57033	0.01107
2067.64156	0.0107
2065.71279	0.01021
2063.78402	0.00965
2061.85525	0.00912
2059.92648	0.00869
2057.99771	0.00831
2056.06894	0.00791
2054.14017	0.00745
2052.2114	0.00695
2050.28263	0.00645
2048.35386	0.00599
2046.42509	0.00558
2044.49632	0.0052
2042.56755	0.00485
2040.63878	0.00453
2038.71001	0.00424
2036.78124	0.00398
2034.85247	0.00376
2032.9237	0.00358
2030.99493	0.00341
2029.06616	0.00325
2027.13739	0.00305
2025.20862	0.00275
2023.27985	0.00232
2021.35108	0.00186
2019.42231	0.00147
2017.49354	0.00121
2015.56477	0.00106
2013.636	9.44115E-4
2011.70723	8.44521E-4
2009.77846	7.69608E-4
2007.84969	7.13198E-4
2005.92092	7.28763E-4
2003.99215	8.99572E-4
2002.06338	0.00119
2000.13461	0.00147
1998.20584	0.00169
1996.27707	0.00185
1994.3483	0.00196
1992.41953	0.00194
1990.49076	0.0018
1988.56199	0.00157
1986.63322	0.00133
1984.70445	0.00113
1982.77568	9.12821E-4
1980.8469	6.22637E-4
1978.91813	3.0256E-4
1976.98936	7.10211E-5
1975.06059	0
1973.13182	6.8175E-5
1971.20305	2.14808E-4
1969.27428	4.26023E-4
1967.34551	7.66942E-4
1965.41674	0.0013
1963.48797	0.00199
1961.5592	0.00278
1959.63043	0.00363
1957.70166	0.00449
1955.77289	0.00527
1953.84412	0.00595
1951.91535	0.00658
1949.98658	0.00722
1948.05781	0.00784
1946.12904	0.00844
1944.20027	0.00904
1942.2715	0.00966
1940.34273	0.01029
1938.41396	0.0109
1936.48519	0.01146
1934.55642	0.01199
1932.62765	0.01254
1930.69888	0.0131
1928.77011	0.01364
1926.84134	0.01416
1924.91257	0.01464
1922.9838	0.0151
1921.05503	0.01554
1919.12626	0.01593
1917.19749	0.01624
1915.26872	0.01645
1913.33995	0.01657
1911.41118	0.01664
1909.48241	0.01665
1907.55364	0.01635
1905.62487	0.01602
1903.6961	0.01567
1901.76733	0.0153
1899.83856	0.01491
1897.90979	0.01452
1895.98102	0.01414
1894.05225	0.01379
1892.12348	0.01346
1890.19471	0.01312
1888.26594	0.01273
1886.33717	0.01233
1884.4084	0.01194
1882.47963	0.0116
1880.55086	0.01131
1878.62209	0.01103
1876.69332	0.01076
1874.76455	0.01049
1872.83578	0.01024
1870.90701	0.01001
1868.97824	0.00981
1867.04947	0.00961
1865.1207	0.00945
1863.19193	0.00933
1861.26316	0.00926
1859.33439	0.00924
1857.40562	0.00927
1855.47685	0.00936
1853.54808	0.00947
1851.61931	0.00961
1849.69054	0.00976
1847.76177	0.00991
1845.833	0.01003
1843.90423	0.01013
1841.97546	0.01027
1840.04669	0.01046
1838.11792	0.01072
1836.18915	0.01105
1834.26038	0.01142
1832.33161	0.01189
1830.40284	0.0126
1828.47407	0.0137
1826.5453	0.01527
1824.61653	0.0173
1822.68776	0.01988
1820.75899	0.02315
1818.83022	0.02725
1816.90145	0.03211
1814.97268	0.03759
1813.04391	0.04372
1811.11514	0.05057
1809.18636	0.05804
1807.25759	0.06609
1805.32882	0.07489
1803.40005	0.08466
1801.47128	0.09538
1799.54251	0.10685
1797.61374	0.11867
1795.68497	0.13038
1793.7562	0.14157
1791.82743	0.15197
1789.89866	0.16144
1787.96989	0.16991
1786.04112	0.17731
1784.11235	0.18367
1782.18358	0.18936
1780.25481	0.19496
1778.32604	0.20097
1776.39727	0.20772
1774.4685	0.2152
1772.53973	0.22287
1770.61096	0.22985
1768.68219	0.2355
1766.75342	0.23965
1764.82465	0.24222
1762.89588	0.24319
1760.96711	0.2427
1759.03834	0.24098
1757.10957	0.2381
1755.1808	0.23379
1753.25203	0.22767
1751.32326	0.21953
1749.39449	0.20935
1747.46572	0.19728
1745.53695	0.18363
1743.60818	0.16878
1741.67941	0.15313
1739.75064	0.13706
1737.82187	0.1214
1735.8931	0.10719
1733.96433	0.09512
1732.03556	0.08537
1730.10679	0.07773
1728.17802	0.07183
1726.24925	0.06729
1724.32048	0.0638
1722.39171	0.06133
1720.46294	0.06018
1718.53417	0.0606
1716.6054	0.06268
1714.67663	0.06637
1712.74786	0.07155
1710.81909	0.07799
1708.89032	0.08528
1706.96155	0.09306
1705.03278	0.10111
1703.10401	0.10925
1701.17524	0.11725
1699.24647	0.1248
1697.3177	0.13162
1695.38893	0.13749
1693.46016	0.14229
1691.53139	0.14608
1689.60262	0.14887
1687.67385	0.15063
1685.74508	0.1513
1683.81631	0.15095
1681.88754	0.14978
1679.95877	0.14797
1678.03	0.14549
1676.10123	0.14231
1674.17246	0.13881
1672.24369	0.13537
1670.31492	0.13211
1668.38615	0.12906
1666.45738	0.12631
1664.52861	0.12398
1662.59984	0.12208
1660.67107	0.12058
1658.7423	0.11953
1656.81353	0.11896
1654.88476	0.11883
1652.95599	0.11907
1651.02722	0.11961
1649.09845	0.12036
1647.16968	0.12125
1645.24091	0.12214
1643.31214	0.12293
1641.38337	0.12353
1639.4546	0.12383
1637.52583	0.12372
1635.59705	0.12312
1633.66828	0.12193
1631.73951	0.12002
1629.81074	0.11745
1627.88197	0.11448
1625.9532	0.11128
1624.02443	0.10783
1622.09566	0.10422
1620.16689	0.10055
1618.23812	0.09681
1616.30935	0.09296
1614.38058	0.08905
1612.45181	0.08516
1610.52304	0.08145
1608.59427	0.07801
1606.6655	0.07483
1604.73673	0.07191
1602.80796	0.06929
1600.87919	0.06694
1598.95042	0.06482
1597.02165	0.06299
1595.09288	0.06155
1593.16411	0.06046
1591.23534	0.05968
1589.30657	0.05927
1587.3778	0.05931
1585.44903	0.05985
1583.52026	0.06082
1581.59149	0.06205
1579.66272	0.06357
1577.73395	0.06546
1575.80518	0.0677
1573.87641	0.07021
1571.94764	0.07291
1570.01887	0.07576
1568.0901	0.07874
1566.16133	0.08176
1564.23256	0.08472
1562.30379	0.08752
1560.37502	0.09016
1558.44625	0.09264
1556.51748	0.09494
1554.58871	0.09697
1552.65994	0.09873
1550.73117	0.10029
1548.8024	0.10163
1546.87363	0.10269
1544.94486	0.10353
1543.01609	0.10424
1541.08732	0.10486
1539.15855	0.10534
1537.22978	0.10559
1535.30101	0.10562
1533.37224	0.10565
1531.44347	0.10574
1529.5147	0.1057
1527.58593	0.10542
1525.65716	0.10491
1523.72839	0.10423
1521.79962	0.10341
1519.87085	0.10243
1517.94208	0.10133
1516.01331	0.10015
1514.08454	0.09893
1512.15577	0.09755
1510.227	0.0958
1508.29823	0.09366
1506.36946	0.09129
1504.44069	0.08901
1502.51192	0.08725
1500.58315	0.08629
1498.65438	0.08604
1496.72561	0.08611
1494.79684	0.08617
1492.86807	0.08611
1490.9393	0.08598
1489.01053	0.08572
1487.08176	0.08538
1485.15299	0.08525
1483.22422	0.08562
1481.29545	0.08671
1479.36668	0.08874
1477.43791	0.09178
1475.50914	0.09569
1473.58037	0.10025
1471.6516	0.1052
1469.72283	0.11033
1467.79406	0.11536
1465.86529	0.12004
1463.93651	0.12423
1462.00774	0.128
1460.07897	0.13147
1458.1502	0.13475
1456.22143	0.13781
1454.29266	0.14029
1452.36389	0.14172
1450.43512	0.14186
1448.50635	0.14087
1446.57758	0.13908
1444.64881	0.13675
1442.72004	0.13408
1440.79127	0.13147
1438.8625	0.12946
1436.93373	0.12827
1435.00496	0.12794
1433.07619	0.12848
1431.14742	0.12986
1429.21865	0.13192
1427.28988	0.13449
1425.36111	0.13737
1423.43234	0.14024
1421.50357	0.14281
1419.5748	0.14489
1417.64603	0.14656
1415.71726	0.1479
1413.78849	0.14892
1411.85972	0.14948
1409.93095	0.14943
1408.00218	0.14881
1406.07341	0.14784
1404.14464	0.14678
1402.21587	0.1458
1400.2871	0.14497
1398.35833	0.14432
1396.42956	0.14391
1394.50079	0.14403
1392.57202	0.14502
1390.64325	0.14703
1388.71448	0.1501
1386.78571	0.15418
1384.85694	0.15902
1382.92817	0.16409
1380.9994	0.16881
1379.07063	0.17267
1377.14186	0.17541
1375.21309	0.17698
1373.28432	0.17745
1371.35555	0.17688
1369.42678	0.17524
1367.49801	0.17235
1365.56924	0.1682
1363.64047	0.16299
1361.7117	0.15716
1359.78293	0.15122
1357.85416	0.14556
1355.92539	0.14045
1353.99662	0.13618
1352.06785	0.13301
1350.13908	0.13126
1348.21031	0.13117
1346.28154	0.1327
1344.35277	0.13559
1342.424	0.13943
1340.49523	0.14376
1338.56646	0.1481
1336.63769	0.15204
1334.70892	0.15542
1332.78015	0.1582
1330.85138	0.16034
1328.92261	0.16179
1326.99384	0.16253
1325.06507	0.16261
1323.1363	0.16217
1321.20753	0.1614
1319.27876	0.1605
1317.34999	0.15962
1315.42122	0.1589
1313.49245	0.15842
1311.56368	0.15816
1309.63491	0.15801
1307.70614	0.1579
1305.77737	0.15775
1303.8486	0.1575
1301.91983	0.15708
1299.99106	0.1564
1298.06229	0.15534
1296.13352	0.15375
1294.20475	0.15155
1292.27597	0.14872
1290.3472	0.14529
1288.41843	0.14131
1286.48966	0.13682
1284.56089	0.13189
1282.63212	0.12662
1280.70335	0.12124
1278.77458	0.11604
1276.84581	0.11133
1274.91704	0.10737
1272.98827	0.10428
1271.0595	0.10205
1269.13073	0.10061
1267.20196	0.09987
1265.27319	0.09987
1263.34442	0.10069
1261.41565	0.10234
1259.48688	0.10465
1257.55811	0.10743
1255.62934	0.11044
1253.70057	0.11339
1251.7718	0.11593
1249.84303	0.11779
1247.91426	0.11872
1245.98549	0.11857
1244.05672	0.11723
1242.12795	0.11466
1240.19918	0.11086
1238.27041	0.10591
1236.34164	0.09998
1234.41287	0.09333
1232.4841	0.08633
1230.55533	0.07938
1228.62656	0.07288
1226.69779	0.06724
1224.76902	0.06286
1222.84025	0.05999
1220.91148	0.05871
1218.98271	0.05893
1217.05394	0.06033
1215.12517	0.06244
1213.1964	0.06482
1211.26763	0.06723
1209.33886	0.06956
1207.41009	0.07176
1205.48132	0.07375
1203.55255	0.07544
1201.62378	0.07668
1199.69501	0.07725
1197.76624	0.07692
1195.83747	0.07547
1193.9087	0.0728
1191.97993	0.06889
1190.05116	0.06392
1188.12239	0.05836
1186.19362	0.05302
1184.26485	0.04905
1182.33608	0.04781
1180.40731	0.05056
1178.47854	0.05823
1176.54977	0.07119
1174.621	0.08926
1172.69223	0.11171
1170.76346	0.13735
1168.83469	0.16477
1166.90592	0.19261
1164.97715	0.21968
1163.04838	0.24495
1161.11961	0.26753
1159.19084	0.28669
1157.26207	0.30183
1155.3333	0.3125
1153.40453	0.31844
1151.47576	0.31954
1149.54699	0.31596
1147.61822	0.30808
1145.68945	0.29648
1143.76068	0.28203
1141.83191	0.26583
1139.90314	0.24921
1137.97437	0.23362
1136.0456	0.22045
1134.11683	0.21087
1132.18806	0.20572
1130.25929	0.20548
1128.33052	0.21012
1126.40175	0.21918
1124.47298	0.2319
1122.54421	0.24733
1120.61544	0.26436
1118.68666	0.28176
1116.75789	0.29829
1114.82912	0.31285
1112.90035	0.32467
1110.97158	0.33336
1109.04281	0.33898
1107.11404	0.34218
1105.18527	0.34447
1103.2565	0.348
1101.32773	0.35471
1099.39896	0.36525
1097.47019	0.37857
1095.54142	0.39238
1093.61265	0.40423
1091.68388	0.41237
1089.75511	0.41628
1087.82634	0.41654
1085.89757	0.41424
1083.9688	0.41046
1082.04003	0.40632
1080.11126	0.40293
1078.18249	0.4011
1076.25372	0.40101
1074.32495	0.4023
1072.39618	0.40443
1070.46741	0.40705
1068.53864	0.41015
1066.60987	0.41418
1064.6811	0.41998
1062.75233	0.4287
1060.82356	0.44176
1058.89479	0.46042
1056.96602	0.48515
1055.03725	0.51511
1053.10848	0.54841
1051.17971	0.58328
1049.25094	0.61914
1047.32217	0.65669
1045.3934	0.69702
1043.46463	0.7407
1041.53586	0.78704
1039.60709	0.83405
1037.67832	0.87913
1035.74955	0.91976
1033.82078	0.95367
1031.89201	0.97892
1029.96324	0.99434
1028.03447	1
1026.1057	0.9969
1024.17693	0.98626
1022.24816	0.9689
1020.31939	0.94528
1018.39062	0.91572
1016.46185	0.8806
1014.53308	0.84033
1012.60431	0.79556
1010.67554	0.74753
1008.74677	0.69833
1006.818	0.65089
1004.88923	0.60845
1002.96046	0.57368
1001.03169	0.54773
999.10292	0.52991
997.17415	0.51806
995.24538	0.50928
993.31661	0.50066
991.38784	0.48987
989.45907	0.47547
987.5303	0.45698
985.60153	0.4349
983.67276	0.41059
981.74399	0.38563
979.81522	0.36109
977.88645	0.33713
975.95768	0.31327
974.02891	0.28905
972.10014	0.26445
970.17137	0.24004
968.2426	0.21669
966.31383	0.19513
964.38506	0.17579
962.45629	0.15915
960.52752	0.14596
958.59875	0.13708
956.66998	0.13292
954.74121	0.13313
952.81244	0.13673
950.88367	0.14249
948.9549	0.14921
947.02612	0.15593
945.09735	0.16188
943.16858	0.16648
941.23981	0.16929
939.31104	0.16996
937.38227	0.16816
935.4535	0.16364
933.52473	0.15628
931.59596	0.14611
929.66719	0.13346
927.73842	0.11909
925.80965	0.10413
923.88088	0.08979
921.95211	0.07672
920.02334	0.06492
918.09457	0.05417
916.1658	0.04463
914.23703	0.03675
912.30826	0.0308
910.37949	0.0265
908.45072	0.02325
906.52195	0.02057
904.59318	0.01833
902.66441	0.01677
900.73564	0.01621
898.80687	0.01675
896.8781	0.01825
894.94933	0.02041
893.02056	0.02296
891.09179	0.02571
889.16302	0.02858
887.23425	0.03159
885.30548	0.03478
883.37671	0.03811
881.44794	0.04153
879.51917	0.04492
877.5904	0.04819
875.66163	0.05125
873.73286	0.05401
871.80409	0.05637
869.87532	0.05826
867.94655	0.05971
866.01778	0.06069
864.08901	0.06119
862.16024	0.06126
860.23147	0.06108
858.3027	0.0608
856.37393	0.06052
854.44516	0.0601
852.51639	0.05924
850.58762	0.05767
848.65885	0.0553
846.73008	0.05223
844.80131	0.04863
842.87254	0.04472
840.94377	0.04065
839.015	0.03658
837.08623	0.03264
835.15746	0.02897
833.22869	0.02572
831.29992	0.02298
829.37115	0.02075
827.44238	0.01901
825.51361	0.01775
823.58484	0.01697
821.65607	0.01665
819.7273	0.01663
817.79853	0.01685
815.86976	0.01731
813.94099	0.01799
812.01222	0.01885
810.08345	0.01985
808.15468	0.02093
806.22591	0.0221
804.29714	0.02335
802.36837	0.02469
800.4396	0.0261
798.51083	0.02757
796.58206	0.02908
794.65329	0.03065
792.72452	0.03235
790.79575	0.03427
788.86698	0.03648
786.93821	0.03897
785.00944	0.04178
783.08067	0.04503
781.1519	0.04887
779.22313	0.05338
777.29436	0.0586
775.36558	0.06451
773.43681	0.071
771.50804	0.0779
769.57927	0.08491
767.6505	0.09169
765.72173	0.09793
763.79296	0.10341
761.86419	0.10803
759.93542	0.11173
758.00665	0.11449
756.07788	0.11631
754.14911	0.11722
752.22034	0.11725
750.29157	0.11648
748.3628	0.11502
746.43403	0.11299
744.50526	0.11061
742.57649	0.10788
740.64772	0.10501
738.71895	0.10233
736.79018	0.10001
734.86141	0.09814
732.93264	0.09678
731.00387	0.096
729.0751	0.09591
727.14633	0.09669
725.21756	0.09855
723.28879	0.1017
721.36002	0.10628
719.43125	0.1123
717.50248	0.1196
715.57371	0.12784
713.64494	0.13655
711.71617	0.14527
709.7874	0.15367
707.85863	0.16152
705.92986	0.16869
704.00109	0.17497
702.07232	0.18018
700.14355	0.18423
698.21478	0.18702
696.28601	0.18772
694.35724	0.18585
692.42847	0.18483
690.4997	0.18568
688.57093	0.18007
686.64216	0.17387
684.71339	0.16826
682.78462	0.16264
680.85585	0.15737
678.92708	0.15303
676.99831	0.14974
675.06954	0.14754
673.14077	0.14621
671.212	0.14544
669.28323	0.145
667.35446	0.14468
665.42569	0.14434
663.49692	0.14398
661.56815	0.14357
659.63938	0.14306
657.71061	0.14235
655.78184	0.14145
653.85307	0.14035
651.9243	0.13901
649.99553	0.13735
648.06676	0.13625
646.13799	0.1372
644.20922	0.13671
642.28045	0.13134
640.35168	0.12978
638.42291	0.1283
636.49414	0.12587
634.56537	0.12341
632.6366	0.12142
630.70783	0.12005
628.77906	0.11962
626.85029	0.12009
624.92152	0.12141
622.99275	0.12345
621.06398	0.12599
619.13521	0.1289
617.20644	0.1321
615.27767	0.13551
613.3489	0.139
611.42013	0.14239
609.49136	0.14553
607.56259	0.14828
605.63382	0.15062
603.70505	0.15257
601.77627	0.15423
599.8475	0.15567
597.91873	0.15706
595.98996	0.15865
594.06119	0.16068
592.13242	0.16335
590.20365	0.16667
588.27488	0.17045
586.34611	0.17442
584.41734	0.17827
582.48857	0.18166
580.5598	0.18427
578.63103	0.18589
576.70226	0.18643
574.77349	0.18586
572.84472	0.18422
570.91595	0.18149
568.98718	0.17761
567.05841	0.1725
565.12964	0.16616
563.20087	0.1587
561.2721	0.15042
559.34333	0.14165
557.41456	0.13279
555.48579	0.12433
553.55702	0.11686
551.62825	0.11098
549.69948	0.10711
547.77071	0.10528
545.84194	0.10522
543.91317	0.10653
541.9844	0.10877
540.05563	0.11159
538.12686	0.11461
536.19809	0.11751
534.26932	0.12013
532.34055	0.12235
530.41178	0.12403
528.48301	0.12511
526.55424	0.12552
524.62547	0.12518
522.6967	0.12404
520.76793	0.12205
518.83916	0.11921
516.91039	0.11558
514.98162	0.11127
513.05285	0.10641
511.12408	0.10123
509.19531	0.09603
507.26654	0.09108
505.33777	0.08655
503.409	0.08254
501.48023	0.07913
499.55146	0.07635
497.62269	0.07424
495.69392	0.07273
493.76515	0.0716
491.83638	0.07057
489.90761	0.0695
487.97884	0.06836
486.05007	0.06716
484.1213	0.06589
482.19253	0.06454
480.26376	0.06312
478.33499	0.06159
476.40622	0.05988
474.47745	0.05793
472.54868	0.05572
470.61991	0.05327
468.69114	0.05064
466.76237	0.04792
464.8336	0.04524
462.90483	0.04271
460.97606	0.04042
459.04729	0.03843
457.11852	0.0368
455.18975	0.03559
453.26098	0.03479
451.33221	0.03439
449.40344	0.03426
447.47467	0.03423
445.5459	0.03417
443.61713	0.03401
441.68836	0.03361
439.75959	0.03296
437.83082	0.03219
435.90205	0.0315
433.97328	0.03102
432.04451	0.03079
430.11573	0.03074
428.18696	0.03079
426.25819	0.03085
424.32942	0.03091
422.40065	0.03097
420.47188	0.03029
418.54311	0.02958
416.61434	0.02881
414.68557	0.028
412.7568	0.02715
410.82803	0.02625
408.89926	0.02531
406.97049	0.02432
405.04172	0.02328
403.11295	0.02221
401.18418	0.02108
399.25541	0.01991