401	1.77314E-4
402	0
403	0.00734
404	0.02212
405	0.03189
406	0.03293
407	0.03558
408	0.04309
409	0.04715
410	0.04053
411	0.03368
412	0.03436
413	0.03776
414	0.03614
415	0.03175
416	0.03275
417	0.03727
418	0.0339
419	0.02436
420	0.02561
421	0.03491
422	0.04133
423	0.04121
424	0.03356
425	0.02836
426	0.03479
427	0.04456
428	0.04699
429	0.04251
430	0.03637
431	0.03575
432	0.04534
433	0.05412
434	0.04901
435	0.03993
436	0.03899
437	0.04136
438	0.03829
439	0.03112
440	0.02853
441	0.03444
442	0.04114
443	0.03983
444	0.03388
445	0.03163
446	0.03134
447	0.02705
448	0.02145
449	0.02154
450	0.02743
451	0.03137
452	0.0264
453	0.01668
454	0.01316
455	0.01825
456	0.02361
457	0.0191
458	0.00881
459	0.01041
460	0.01897
461	0.02129
462	0.01663
463	0.01555
464	0.02001
465	0.02371
466	0.02335
467	0.02175
468	0.02638
469	0.03728
470	0.04355
471	0.0403
472	0.03566
473	0.03904
474	0.04703
475	0.04947
476	0.04479
477	0.04234
478	0.0486
479	0.0553
480	0.05307
481	0.04671
482	0.04572
483	0.04984
484	0.05181
485	0.0479
486	0.0439
487	0.04687
488	0.05413
489	0.05617
490	0.05105
491	0.04766
492	0.05287
493	0.06041
494	0.06061
495	0.05411
496	0.05037
497	0.05478
498	0.06137
499	0.06161
500	0.05651
501	0.05446
502	0.05949
503	0.06434
504	0.06209
505	0.05786
506	0.05978
507	0.06622
508	0.06703
509	0.06067
510	0.05772
511	0.06487
512	0.07337
513	0.07401
514	0.07094
515	0.07336
516	0.08256
517	0.08952
518	0.08751
519	0.08389
520	0.08814
521	0.09756
522	0.10182
523	0.09799
524	0.09495
525	0.10053
526	0.10882
527	0.10879
528	0.1021
529	0.09937
530	0.10391
531	0.10777
532	0.10294
533	0.0931
534	0.08979
535	0.09495
536	0.09602
537	0.08643
538	0.07636
539	0.07614
540	0.08154
541	0.08042
542	0.06995
543	0.06235
544	0.06596
545	0.07279
546	0.07016
547	0.06047
548	0.05719
549	0.06394
550	0.07047
551	0.06791
552	0.06169
553	0.06325
554	0.07298
555	0.07955
556	0.07641
557	0.07135
558	0.07527
559	0.08625
560	0.09218
561	0.08838
562	0.08522
563	0.09268
564	0.10578
565	0.11199
566	0.10902
567	0.10799
568	0.11687
569	0.12751
570	0.12921
571	0.12569
572	0.12865
573	0.14022
574	0.14955
575	0.14962
576	0.14646
577	0.14932
578	0.15744
579	0.16193
580	0.15872
581	0.15444
582	0.15663
583	0.16237
584	0.16291
585	0.15653
586	0.15081
587	0.1512
588	0.15323
589	0.15018
590	0.14291
591	0.13793
592	0.13861
593	0.13965
594	0.13531
595	0.12862
596	0.12694
597	0.13057
598	0.13286
599	0.13034
600	0.12652
601	0.12644
602	0.13045
603	0.13371
604	0.13293
605	0.13175
606	0.13465
607	0.13916
608	0.13928
609	0.13505
610	0.13197
611	0.13209
612	0.13171
613	0.12819
614	0.12331
615	0.11959
616	0.11559
617	0.10872
618	0.10147
619	0.09832
620	0.09816
621	0.09699
622	0.092
623	0.08504
624	0.08092
625	0.08024
626	0.07921
627	0.07522
628	0.07093
629	0.07099
630	0.07378
631	0.07334
632	0.06901
633	0.06654
634	0.06946
635	0.07406
636	0.07433
637	0.07097
638	0.07015
639	0.07381
640	0.07677
641	0.07504
642	0.07248
643	0.07451
644	0.07957
645	0.08108
646	0.07671
647	0.07189
648	0.07286
649	0.07863
650	0.08039
651	0.07484
652	0.07108
653	0.07528
654	0.08125
655	0.08048
656	0.07472
657	0.07326
658	0.07894
659	0.08405
660	0.08149
661	0.07513
662	0.07465
663	0.0819
664	0.08814
665	0.08549
666	0.07518
667	0.05874
668	0.03921
669	0.04221
670	0.05615
671	0.06583
672	0.07491
673	0.0839
674	0.08505
675	0.07698
676	0.07083
677	0.07555
678	0.08426
679	0.08414
680	0.07553
681	0.07123
682	0.07812
683	0.08697
684	0.08594
685	0.07866
686	0.0779
687	0.08621
688	0.09303
689	0.09026
690	0.08446
691	0.08703
692	0.09769
693	0.10493
694	0.10255
695	0.09914
696	0.10541
697	0.11858
698	0.12657
699	0.12559
700	0.12545
701	0.13492
702	0.14892
703	0.15465
704	0.14941
705	0.14593
706	0.15261
707	0.16067
708	0.15787
709	0.14677
710	0.13975
711	0.14132
712	0.14261
713	0.13474
714	0.12224
715	0.1166
716	0.11944
717	0.12
718	0.11065
719	0.0977
720	0.09329
721	0.09907
722	0.10274
723	0.09684
724	0.08958
725	0.09102
726	0.09759
727	0.0976
728	0.08852
729	0.08124
730	0.08417
731	0.09098
732	0.08921
733	0.07957
734	0.07424
735	0.07901
736	0.08508
737	0.08257
738	0.07496
739	0.07312
740	0.07946
741	0.08509
742	0.08328
743	0.07895
744	0.08143
745	0.09081
746	0.09767
747	0.09729
748	0.09687
749	0.10511
750	0.11904
751	0.12809
752	0.1294
753	0.1317
754	0.14232
755	0.15525
756	0.15933
757	0.15471
758	0.15219
759	0.15691
760	0.1611
761	0.15614
762	0.14507
763	0.13822
764	0.13875
765	0.13814
766	0.12903
767	0.11676
768	0.11161
769	0.114
770	0.11452
771	0.10748
772	0.09845
773	0.09551
774	0.09711
775	0.09432
776	0.08393
777	0.07327
778	0.06999
779	0.07105
780	0.06688
781	0.05579
782	0.04741
783	0.04885
784	0.05401
785	0.05272
786	0.04541
787	0.04232
788	0.04737
789	0.05272
790	0.04993
791	0.04217
792	0.03934
793	0.04383
794	0.04776
795	0.04484
796	0.03904
797	0.03876
798	0.04407
799	0.04634
800	0.04122
801	0.03549
802	0.03676
803	0.04224
804	0.04327
805	0.03777
806	0.03297
807	0.03491
808	0.03967
809	0.03897
810	0.03249
811	0.02885
812	0.03292
813	0.03855
814	0.03771
815	0.03137
816	0.0276
817	0.02945
818	0.03094
819	0.02683
820	0.02048
821	0.01841
822	0.02071
823	0.0213
824	0.01716
825	0.0126
826	0.01316
827	0.0178
828	0.0203
829	0.01854
830	0.01776
831	0.02259
832	0.0298
833	0.03347
834	0.0339
835	0.03681
836	0.04451
837	0.05262
838	0.0557
839	0.05518
840	0.05766
841	0.06494
842	0.07174
843	0.0738
844	0.07382
845	0.07649
846	0.0814
847	0.08448
848	0.08399
849	0.08306
850	0.08549
851	0.09017
852	0.09273
853	0.09195
854	0.09171
855	0.09498
856	0.09885
857	0.09888
858	0.09581
859	0.09451
860	0.0967
861	0.09804
862	0.09405
863	0.08724
864	0.08362
865	0.08319
866	0.07951
867	0.06996
868	0.06032
869	0.05587
870	0.0542
871	0.04937
872	0.04033
873	0.03267
874	0.03058
875	0.03099
876	0.02805
877	0.02181
878	0.01839
879	0.02085
880	0.02443
881	0.02363
882	0.02027
883	0.02064
884	0.02604
885	0.03054
886	0.02894
887	0.02458
888	0.0251
889	0.03127
890	0.03547
891	0.03298
892	0.02933
893	0.03193
894	0.03879
895	0.04144
896	0.03783
897	0.03459
898	0.03787
899	0.04471
900	0.04724
901	0.04446
902	0.04421
903	0.05164
904	0.06155
905	0.06632
906	0.0667
907	0.07044
908	0.08084
909	0.09178
910	0.09628
911	0.09643
912	0.10035
913	0.11044
914	0.1199
915	0.12263
916	0.12241
917	0.12776
918	0.13998
919	0.15055
920	0.15329
921	0.15377
922	0.16116
923	0.17457
924	0.18498
925	0.18803
926	0.19018
927	0.19948
928	0.2136
929	0.22352
930	0.22668
931	0.22982
932	0.23884
933	0.25012
934	0.25554
935	0.2541
936	0.25333
937	0.2584
938	0.26492
939	0.26559
940	0.26082
941	0.25791
942	0.25982
943	0.25989
944	0.25023
945	0.23287
946	0.21741
947	0.20831
948	0.19982
949	0.18656
950	0.17347
951	0.16932
952	0.17452
953	0.18077
954	0.1825
955	0.18401
956	0.19177
957	0.20471
958	0.21547
959	0.22099
960	0.22639
961	0.23717
962	0.25153
963	0.2629
964	0.26958
965	0.27709
966	0.29009
967	0.30561
968	0.31728
969	0.32474
970	0.33442
971	0.35032
972	0.36825
973	0.38212
974	0.39262
975	0.40627
976	0.42563
977	0.44576
978	0.46115
979	0.47307
980	0.48715
981	0.50466
982	0.52066
983	0.53165
984	0.54049
985	0.55257
986	0.5685
987	0.58393
988	0.59629
989	0.60863
990	0.62518
991	0.64485
992	0.66233
993	0.67482
994	0.68523
995	0.6972
996	0.70926
997	0.71693
998	0.71937
999	0.72024
1000	0.72282
1001	0.7255
1002	0.72427
1003	0.7187
1004	0.71338
1005	0.71202
1006	0.71303
1007	0.71295
1008	0.71322
1009	0.71848
1010	0.7304
1011	0.74633
1012	0.76286
1013	0.78007
1014	0.80042
1015	0.82427
1016	0.84848
1017	0.87024
1018	0.89067
1019	0.91211
1020	0.9338
1021	0.95254
1022	0.96656
1023	0.97743
1024	0.98738
1025	0.99585
1026	1
1027	0.99841
1028	0.99323
1029	0.98747
1030	0.98113
1031	0.97203
1032	0.95977
1033	0.94653
1034	0.93434
1035	0.92308
1036	0.91094
1037	0.89795
1038	0.88639
1039	0.87761
1040	0.87031
1041	0.86235
1042	0.8534
1043	0.84505
1044	0.83827
1045	0.83185
1046	0.82422
1047	0.8158
1048	0.80844
1049	0.80257
1050	0.79692
1051	0.79027
1052	0.78268
1053	0.77521
1054	0.76831
1055	0.76033
1056	0.74952
1057	0.73677
1058	0.72331
1059	0.70894
1060	0.69248
1061	0.67357
1062	0.65318
1063	0.63229
1064	0.6107
1065	0.58797
1066	0.56508
1067	0.54427
1068	0.52717
1069	0.51441
1070	0.50734
1071	0.50829
1072	0.51894
1073	0.53833
1074	0.56319
1075	0.59025
1076	0.61712
1077	0.6419
1078	0.66235
1079	0.67618
1080	0.68307
1081	0.68492
1082	0.6831
1083	0.67695
1084	0.66611
1085	0.65254
1086	0.63827
1087	0.62385
1088	0.60873
1089	0.5932
1090	0.57877
1091	0.56677
1092	0.55665
1093	0.54706
1094	0.53808
1095	0.53096
1096	0.52639
1097	0.52347
1098	0.52058
1099	0.51736
1100	0.5151
1101	0.51445
1102	0.51401
1103	0.51162
1104	0.5071
1105	0.50254
1106	0.49911
1107	0.49512
1108	0.48878
1109	0.48071
1110	0.47361
1111	0.46834
1112	0.46285
1113	0.45563
1114	0.44804
1115	0.44318
1116	0.44146
1117	0.44021
1118	0.43816
1119	0.43732
1120	0.44031
1121	0.4461
1122	0.45099
1123	0.45342
1124	0.45562
1125	0.45987
1126	0.46443
1127	0.46551
1128	0.46252
1129	0.45948
1130	0.45979
1131	0.46179
1132	0.46071
1133	0.45549
1134	0.45024
1135	0.44845
1136	0.44823
1137	0.44594
1138	0.44222
1139	0.44151
1140	0.44569
1141	0.45161
1142	0.4562
1143	0.46038
1144	0.46791
1145	0.48005
1146	0.4937
1147	0.5056
1148	0.51673
1149	0.53036
1150	0.54679
1151	0.56247
1152	0.57451
1153	0.5844
1154	0.5953
1155	0.60691
1156	0.61531
1157	0.61835
1158	0.61827
1159	0.61834
1160	0.61772
1161	0.61255
1162	0.60138
1163	0.58751
1164	0.57447
1165	0.56159
1166	0.54525
1167	0.52463
1168	0.50334
1169	0.48484
1170	0.4681
1171	0.44965
1172	0.42925
1173	0.41048
1174	0.39577
1175	0.38359
1176	0.37095
1177	0.35732
1178	0.34532
1179	0.33673
1180	0.3294
1181	0.32043
1182	0.31059
1183	0.30294
1184	0.29827
1185	0.29398
1186	0.28747
1187	0.27944
1188	0.27309
1189	0.26997
1190	0.2674
1191	0.26268
1192	0.25746
1193	0.25489
1194	0.25487
1195	0.25414
1196	0.25099
1197	0.24741
1198	0.24593
1199	0.2461
1200	0.24548
1201	0.24299
1202	0.2403
1203	0.23927
1204	0.23934
1205	0.23833
1206	0.23556
1207	0.23274
1208	0.23177
1209	0.23192
1210	0.23108
1211	0.22918
1212	0.22827
1213	0.22974
1214	0.232
1215	0.23286
1216	0.23284
1217	0.23401
1218	0.23689
1219	0.23954
1220	0.24025
1221	0.23982
1222	0.24017
1223	0.24124
1224	0.24125
1225	0.23945
1226	0.23693
1227	0.23523
1228	0.2344
1229	0.23304
1230	0.23053
1231	0.22818
1232	0.22714
1233	0.22693
1234	0.2263
1235	0.22501
1236	0.22436
1237	0.22533
1238	0.22683
1239	0.22717
1240	0.22636
1241	0.22559
1242	0.22531
1243	0.22481
1244	0.2233
1245	0.22108
1246	0.21916
1247	0.21782
1248	0.21623
1249	0.21349
1250	0.21054
1251	0.20853
1252	0.20731
1253	0.20561
1254	0.2032
1255	0.20088
1256	0.19955
1257	0.19873
1258	0.19719
1259	0.19494
1260	0.19326
1261	0.19271
1262	0.1924
1263	0.19129
1264	0.18968
1265	0.18856
1266	0.18835
1267	0.18848
1268	0.18807
1269	0.18744
1270	0.18751
1271	0.18846
1272	0.18971
1273	0.19067
1274	0.19175
1275	0.19377
1276	0.19658
1277	0.19931
1278	0.20134
1279	0.20317
1280	0.20535
1281	0.2076
1282	0.20882
1283	0.20877
1284	0.20841
1285	0.20845
1286	0.20847
1287	0.20776
1288	0.20668
1289	0.20634
1290	0.20711
1291	0.20828
1292	0.20931
1293	0.21067
1294	0.21324
1295	0.21701
1296	0.22072
1297	0.22365
1298	0.22658
1299	0.23021
1300	0.23419
1301	0.23708
1302	0.23872
1303	0.24004
1304	0.24166
1305	0.24307
1306	0.24344
1307	0.24294
1308	0.24263
1309	0.24304
1310	0.24336
1311	0.24284
1312	0.24184
1313	0.24147
1314	0.24197
1315	0.24236
1316	0.24196
1317	0.24148
1318	0.24206
1319	0.24378
1320	0.24559
1321	0.24685
1322	0.24809
1323	0.25019
1324	0.25293
1325	0.2551
1326	0.25627
1327	0.25756
1328	0.25984
1329	0.26248
1330	0.26409
1331	0.2644
1332	0.2646
1333	0.2657
1334	0.26674
1335	0.26647
1336	0.26496
1337	0.26346
1338	0.26265
1339	0.26187
1340	0.26038
1341	0.25876
1342	0.25808
1343	0.25826
1344	0.25822
1345	0.25723
1346	0.25582
1347	0.25533
1348	0.25579
1349	0.25609
1350	0.25551
1351	0.25485
1352	0.25528
1353	0.25682
1354	0.25792
1355	0.25815
1356	0.2588
1357	0.26132
1358	0.26515
1359	0.26874
1360	0.27168
1361	0.27536
1362	0.2809
1363	0.28846
1364	0.29624
1365	0.30212
1366	0.30715
1367	0.31247
1368	0.31732
1369	0.32051
1370	0.32188
1371	0.32225
1372	0.32207
1373	0.32046
1374	0.31635
1375	0.31149
1376	0.30835
1377	0.30656
1378	0.30416
1379	0.29945
1380	0.29242
1381	0.28331
1382	0.27071
1383	0.25476
1384	0.24205
1385	0.2402
1386	0.24881
1387	0.26167
1388	0.27172
1389	0.27512
1390	0.27476
1391	0.27389
1392	0.27328
1393	0.27197
1394	0.26958
1395	0.26775
1396	0.26811
1397	0.2692
1398	0.26871
1399	0.26649
1400	0.26491
1401	0.26506
1402	0.26558
1403	0.26519
1404	0.26388
1405	0.26373
1406	0.26625
1407	0.26941
1408	0.2712
1409	0.2718
1410	0.27288
1411	0.27526
1412	0.27792
1413	0.27931
1414	0.27915
1415	0.27884
1416	0.27916
1417	0.27938
1418	0.27834
1419	0.27656
1420	0.2761
1421	0.27711
1422	0.27744
1423	0.27586
1424	0.27347
1425	0.27252
1426	0.27265
1427	0.27201
1428	0.26976
1429	0.26661
1430	0.26436
1431	0.26377
1432	0.26309
1433	0.26114
1434	0.25884
1435	0.25709
1436	0.25573
1437	0.25498
1438	0.25498
1439	0.25482
1440	0.25475
1441	0.25498
1442	0.25487
1443	0.25414
1444	0.25347
1445	0.25354
1446	0.25418
1447	0.25448
1448	0.25444
1449	0.25486
1450	0.2559
1451	0.25709
1452	0.25791
1453	0.25815
1454	0.25774
1455	0.25702
1456	0.25647
1457	0.2571
1458	0.2594
1459	0.26265
1460	0.26578
1461	0.26748
1462	0.26737
1463	0.26578
1464	0.26284
1465	0.25871
1466	0.25523
1467	0.25215
1468	0.24769
1469	0.24215
1470	0.23639
1471	0.23019
1472	0.2225
1473	0.21486
1474	0.21009
1475	0.20722
1476	0.2048
1477	0.20372
1478	0.20466
1479	0.20681
1480	0.20937
1481	0.21158
1482	0.21238
1483	0.21033
1484	0.2051
1485	0.19767
1486	0.1893
1487	0.18004
1488	0.17147
1489	0.16464
1490	0.15748
1491	0.15189
1492	0.14919
1493	0.1467
1494	0.14347
1495	0.13972
1496	0.13586
1497	0.133
1498	0.13122
1499	0.12946
1500	0.12811
1501	0.12742
1502	0.12698
1503	0.12638
1504	0.12493
1505	0.122
1506	0.1177
1507	0.11658
1508	0.11913
1509	0.12176
1510	0.12379
1511	0.12573
1512	0.12813
1513	0.13067
1514	0.13221
1515	0.13272
1516	0.13304
1517	0.13562
1518	0.14074
1519	0.14357
1520	0.14442
1521	0.14621
1522	0.15146
1523	0.15696
1524	0.16022
1525	0.16292
1526	0.16647
1527	0.16995
1528	0.17247
1529	0.17433
1530	0.17569
1531	0.17659
1532	0.17665
1533	0.17581
1534	0.1756
1535	0.17662
1536	0.17734
1537	0.17686
1538	0.17456
1539	0.16908
1540	0.16384
1541	0.16345
1542	0.16355
1543	0.16308
1544	0.16235
1545	0.16126
1546	0.16075
1547	0.16014
1548	0.15816
1549	0.15483
1550	0.15135
1551	0.1492
1552	0.14736
1553	0.14424
1554	0.13969
1555	0.13557
1556	0.13321
1557	0.13041
1558	0.12346
1559	0.11622
1560	0.1171
1561	0.12031
1562	0.12105
1563	0.12009
1564	0.11858
1565	0.11804
1566	0.11837
1567	0.11781
1568	0.11536
1569	0.11153
1570	0.10934
1571	0.10968
1572	0.10866
1573	0.10575
1574	0.10196
1575	0.09802
1576	0.0934
1577	0.08909
1578	0.08673
1579	0.08453
1580	0.08204
1581	0.07916
1582	0.07551
1583	0.07127
1584	0.06724
1585	0.06382
1586	0.06036
1587	0.05616
1588	0.05131
1589	0.04665
1590	0.04277
1591	0.03924
1592	0.03519
1593	0.03074
1594	0.02684
1595	0.02408
1596	0.02213
1597	0.02003
1598	0.01785
1599	0.0161
1600	0.01493
1601	0.01377
1602	0.01221
1603	0.01083
1604	0.01046
1605	0.01072
1606	0.0107
1607	0.01016
1608	0.00959
1609	0.00968
1610	0.01053
1611	0.01131
1612	0.01134
1613	0.01121
1614	0.0113
1615	0.01128
1616	0.01132
1617	0.01364
1618	0.01773
1619	0.02201
1620	0.02668
1621	0.03094
1622	0.03442
1623	0.0393
1624	0.0485
1625	0.05669
1626	0.06222
1627	0.06705
1628	0.07305
1629	0.07959
1630	0.08502
1631	0.08971
1632	0.09424
1633	0.09835
1634	0.10163
1635	0.10581
1636	0.1123
1637	0.11871
1638	0.12426
1639	0.12931
1640	0.13367
1641	0.13769
1642	0.14172
1643	0.14575
1644	0.14909
1645	0.15129
1646	0.153
1647	0.15616
1648	0.16154
1649	0.16653
1650	0.16927
1651	0.16994
1652	0.16906
1653	0.17109
1654	0.18322
1655	0.19097
1656	0.19541
1657	0.19938
1658	0.20318
1659	0.20591
1660	0.2068
1661	0.20609
1662	0.20524
1663	0.20579
1664	0.20752
1665	0.20909
1666	0.21036
1667	0.21128
1668	0.21203
1669	0.21394
1670	0.21718
1671	0.22041
1672	0.22373
1673	0.22649
1674	0.22776
1675	0.22869
1676	0.23084
1677	0.23296
1678	0.23403
1679	0.23393
1680	0.23275
1681	0.23116
1682	0.22904
1683	0.2256
1684	0.22104
1685	0.21894
1686	0.21871
1687	0.21692
1688	0.21373
1689	0.20976
1690	0.20552
1691	0.20129
1692	0.19701
1693	0.19244
1694	0.18751
1695	0.18149
1696	0.17358
1697	0.16791
1698	0.1648
1699	0.16138
1700	0.15594
1701	0.15283
1702	0.15254
1703	0.15162
1704	0.15001
1705	0.14825
1706	0.14732
1707	0.14777
1708	0.14884
1709	0.14966
1710	0.15078
1711	0.15275
1712	0.15475
1713	0.15624
1714	0.15796
1715	0.16068
1716	0.16324
1717	0.16505
1718	0.16887
1719	0.17481
1720	0.17982
1721	0.18374
1722	0.18748
1723	0.19192
1724	0.19774
1725	0.20424
1726	0.21055
1727	0.2163
1728	0.2213
1729	0.2259
1730	0.2314
1731	0.2365
1732	0.239
1733	0.24008
1734	0.24402
1735	0.25209
1736	0.25692
1737	0.25964
1738	0.26206
1739	0.26543
1740	0.27109
1741	0.27679
1742	0.2803
1743	0.28399
1744	0.28956
1745	0.29545
1746	0.30026
1747	0.30454
1748	0.30975
1749	0.3163
1750	0.32255
1751	0.32862
1752	0.33478
1753	0.34007
1754	0.34501
1755	0.34953
1756	0.35345
1757	0.35799
1758	0.36364
1759	0.3692
1760	0.3731
1761	0.37414
1762	0.37243
1763	0.37029
1764	0.36853
1765	0.36644
1766	0.3638
1767	0.3613
1768	0.36031
1769	0.36101
1770	0.36135
1771	0.36021
1772	0.35873
1773	0.35891
1774	0.35985
1775	0.35991
1776	0.35933
1777	0.35888
1778	0.35913
1779	0.36002
1780	0.36121
1781	0.3625
1782	0.36385
1783	0.36511
1784	0.36606
1785	0.36643
1786	0.36526
1787	0.36299
1788	0.36019
1789	0.3569
1790	0.35253
1791	0.34628
1792	0.33855
1793	0.33093
1794	0.32476
1795	0.31827
1796	0.3096
1797	0.29996
1798	0.29096
1799	0.28151
1800	0.27087
1801	0.26023
1802	0.2499
1803	0.24004
1804	0.2311
1805	0.22232
1806	0.21334
1807	0.20457
1808	0.19648
1809	0.18931
1810	0.1823
1811	0.17512
1812	0.16925
1813	0.16464
1814	0.1604
1815	0.15588
1816	0.15113
1817	0.14674
1818	0.14306
1819	0.13997
1820	0.13674
1821	0.13321
1822	0.12991
1823	0.127
1824	0.12419
1825	0.1213
1826	0.11864
1827	0.11633
1828	0.11384
1829	0.111
1830	0.10879
1831	0.10745
1832	0.10622
1833	0.1048
1834	0.10324
1835	0.10146
1836	0.09957
1837	0.09792
1838	0.0966
1839	0.09532
1840	0.09375
1841	0.09197
1842	0.09012
1843	0.08805
1844	0.08628
1845	0.08537
1846	0.08479
1847	0.08404
1848	0.08327
1849	0.08246
1850	0.08144
1851	0.08039
1852	0.07949
1853	0.0787
1854	0.07775
1855	0.07663
1856	0.07563
1857	0.07496
1858	0.07431
1859	0.07345
1860	0.0724
1861	0.07153
1862	0.07102
1863	0.07046
1864	0.06944
1865	0.06794
1866	0.06653
1867	0.0653
1868	0.06434
1869	0.06386
1870	0.06359
1871	0.06354
1872	0.06346
1873	0.06318
1874	0.06244
1875	0.06155
1876	0.06097
1877	0.06062
1878	0.06011
1879	0.05933
1880	0.05856
1881	0.05804
1882	0.05761
1883	0.05692
1884	0.05599
1885	0.05521
1886	0.05483
1887	0.05451
1888	0.05374
1889	0.05258
1890	0.05191
1891	0.05194
1892	0.0519
1893	0.05145
1894	0.0505
1895	0.04961
1896	0.04933
1897	0.04943
1898	0.04909
1899	0.04816
1900	0.0473
1901	0.04699
1902	0.04695
1903	0.04666
1904	0.04603
1905	0.04547
1906	0.04512
1907	0.04467
1908	0.04387
1909	0.04297
1910	0.04258
1911	0.04274
1912	0.0428
1913	0.04241
1914	0.04173
1915	0.04112
1916	0.04056
1917	0.03999
1918	0.03954
1919	0.03938
1920	0.03931
1921	0.03895
1922	0.0384
1923	0.03786
1924	0.03756
1925	0.03745
1926	0.03751
1927	0.03748
1928	0.03702
1929	0.03634
1930	0.03595
1931	0.03573
1932	0.03542
1933	0.03493
1934	0.03448
1935	0.03429
1936	0.03422
1937	0.03398
1938	0.03347
1939	0.03289
1940	0.03244
1941	0.03195
1942	0.03124
1943	0.0308
1944	0.03061
1945	0.03049
1946	0.03052
1947	0.03059
1948	0.03022
1949	0.02969
1950	0.02956
1951	0.02954
1952	0.02925
1953	0.02868
1954	0.0282
1955	0.02804
1956	0.02791
1957	0.02753
1958	0.02701
1959	0.02664
1960	0.02642
1961	0.02622
1962	0.026
1963	0.02569
1964	0.02529
1965	0.02485
1966	0.02438
1967	0.02396
1968	0.02376
1969	0.02368
1970	0.02352
1971	0.02323
1972	0.02308
1973	0.02295
1974	0.02265
1975	0.02222
1976	0.02184
1977	0.0216
1978	0.0214
1979	0.02102
1980	0.02067
1981	0.02055
1982	0.02065
1983	0.02064
1984	0.02035
1985	0.01979
1986	0.01936
1987	0.01928
1988	0.01931
1989	0.01913
1990	0.01863
1991	0.01818
1992	0.01812
1993	0.0182
1994	0.01793
1995	0.01754
1996	0.01744
1997	0.01767
1998	0.01777
1999	0.01742
2000	0.01688
2001	0.01671
2002	0.01693
2003	0.01704
2004	0.01666
2005	0.01606
2006	0.01584
2007	0.0162
2008	0.01644
2009	0.01603
2010	0.01538
2011	0.01521
2012	0.01554
2013	0.01566
2014	0.01523
2015	0.01469
2016	0.01459
2017	0.01493
2018	0.01521
2019	0.015
2020	0.01476
2021	0.01504
2022	0.01566
2023	0.01579
2024	0.01516
2025	0.0146
2026	0.01503
2027	0.01585
2028	0.01604
2029	0.01541
2030	0.01498
2031	0.01543
2032	0.01617
2033	0.01625
2034	0.01565
2035	0.01532
2036	0.01579
2037	0.01656
2038	0.01675
2039	0.01613
2040	0.01558
2041	0.01593
2042	0.01671
2043	0.01685
2044	0.01616
2045	0.01567
2046	0.01612
2047	0.01686
2048	0.01688
2049	0.01629
2050	0.01594
2051	0.01631
2052	0.01686
2053	0.0168
2054	0.01618
2055	0.01578
2056	0.01616
2057	0.01676
2058	0.01666
2059	0.01606
2060	0.01577
2061	0.0161
2062	0.01641
2063	0.01611
2064	0.01552
2065	0.01545
2066	0.01593
2067	0.01624
2068	0.01604
2069	0.01565
2070	0.01563
2071	0.016
2072	0.01622
2073	0.01592
2074	0.01551
2075	0.01549
2076	0.01577
2077	0.01594
2078	0.01582
2079	0.01558
2080	0.01558
2081	0.01575
2082	0.01576
2083	0.01564
2084	0.01552
2085	0.01551
2086	0.01563
2087	0.01566
2088	0.01547
2089	0.01531
2090	0.01529
2091	0.01547
2092	0.01563
2093	0.0157
2094	0.01563
2095	0.01556
2096	0.01555
2097	0.01561
2098	0.01564
2099	0.01562
2100	0.01559
2101	0.01556
2102	0.01559
2103	0.01569
2104	0.01582
2105	0.01579
2106	0.01563
2107	0.01555
2108	0.01574
2109	0.01593
2110	0.01582
2111	0.01564
2112	0.0157
2113	0.016
2114	0.01608
2115	0.01589
2116	0.01579
2117	0.01607
2118	0.0165
2119	0.0166
2120	0.01631
2121	0.01607
2122	0.01618
2123	0.01652
2124	0.01677
2125	0.01676
2126	0.01666
2127	0.01681
2128	0.01712
2129	0.01726
2130	0.01715
2131	0.01705
2132	0.01722
2133	0.01746
2134	0.01755
2135	0.01734
2136	0.01736
2137	0.01776
2138	0.01807
2139	0.01795
2140	0.01771
2141	0.0178
2142	0.01817
2143	0.01844
2144	0.01828
2145	0.01801
2146	0.018
2147	0.01826
2148	0.01844
2149	0.01832
2150	0.01815
2151	0.01825
2152	0.01846
2153	0.01845
2154	0.01821
2155	0.01809
2156	0.01826
2157	0.01852
2158	0.01844
2159	0.01798
2160	0.01761
2161	0.01766
2162	0.01784
2163	0.01785
2164	0.0176
2165	0.01737
2166	0.01743
2167	0.01758
2168	0.01742
2169	0.01702
2170	0.01682
2171	0.01686
2172	0.01677
2173	0.01638
2174	0.016
2175	0.0159
2176	0.01613
2177	0.01622
2178	0.01593
2179	0.0159
2180	0.01588
2181	0.01585
2182	0.01583
2183	0.0158
2184	0.01577
2185	0.01575
2186	0.01572
2187	0.0157
2188	0.01567
2189	0.01565
2190	0.01562
2191	0.0156
2192	0.01557
2193	0.01554
2194	0.01552
2195	0.01549
2196	0.01547
2197	0.01544
2198	0.01542
2199	0.01539
2200	0.01537
2201	0.01534
2202	0.01531
2203	0.01529
2204	0.01526
2205	0.01524
2206	0.01521
2207	0.01519
2208	0.01516
2209	0.01513
2210	0.01511
2211	0.01508
2212	0.01506
2213	0.01503
2214	0.01501
2215	0.01498
2216	0.01496
2217	0.01494
2218	0.01491
2219	0.01489
2220	0.01487
2221	0.01484
2222	0.01482
2223	0.0148
2224	0.01477
2225	0.01475
2226	0.01473
2227	0.0147
2228	0.01468
2229	0.01466
2230	0.01463
2231	0.01461
2232	0.01459
2233	0.01456
2234	0.01454
2235	0.01452
2236	0.0145
2237	0.01447
2238	0.01445
2239	0.01443
2240	0.0144
2241	0.01438
2242	0.01436
2243	0.01433
2244	0.01431
2245	0.01429
2246	0.01426
2247	0.01424
2248	0.01422
2249	0.01419
2250	0.01417
2251	0.01415
2252	0.01412
2253	0.0141
2254	0.01408
2255	0.01406
2256	0.01403
2257	0.01401
2258	0.01399
2259	0.01396
2260	0.01394
2261	0.01392
2262	0.01389
2263	0.01387
2264	0.01385
2265	0.01382
2266	0.0138
2267	0.01378
2268	0.01375
2269	0.01373
2270	0.01371
2271	0.01368
2272	0.01366
2273	0.01364
2274	0.01362
2275	0.01359
2276	0.01357
2277	0.01355
2278	0.01352
2279	0.0135
2280	0.01348
2281	0.01345
2282	0.01343
2283	0.01341
2284	0.01338
2285	0.01336
2286	0.01334
2287	0.01331
2288	0.01329
2289	0.01327
2290	0.01324
2291	0.01322
2292	0.0132
2293	0.01318
2294	0.01315
2295	0.01313
2296	0.01311
2297	0.01308
2298	0.01306
2299	0.01304
2300	0.01301
2301	0.01299
2302	0.01297
2303	0.01294
2304	0.01292
2305	0.0129
2306	0.01287
2307	0.01285
2308	0.01283
2309	0.0128
2310	0.01278
2311	0.01276
2312	0.01274
2313	0.01271
2314	0.01269
2315	0.01267
2316	0.01264
2317	0.01262
2318	0.0126
2319	0.01257
2320	0.01255
2321	0.01253
2322	0.0125
2323	0.01248
2324	0.01246
2325	0.01243
2326	0.01241
2327	0.01239
2328	0.01236
2329	0.01234
2330	0.01232
2331	0.0123
2332	0.01227
2333	0.01225
2334	0.01223
2335	0.0122
2336	0.01218
2337	0.01216
2338	0.01213
2339	0.01211
2340	0.01209
2341	0.01206
2342	0.01204
2343	0.01202
2344	0.01199
2345	0.01197
2346	0.01195
2347	0.01193
2348	0.0119
2349	0.01188
2350	0.01186
2351	0.01183
2352	0.01181
2353	0.01179
2354	0.01176
2355	0.01174
2356	0.01172
2357	0.01169
2358	0.01167
2359	0.01165
2360	0.01162
2361	0.0116
2362	0.01158
2363	0.01155
2364	0.01153
2365	0.01151
2366	0.01149
2367	0.01146
2368	0.01144
2369	0.01142
2370	0.01139
2371	0.01137
2372	0.01135
2373	0.01132
2374	0.0113
2375	0.01128
2376	0.01125
2377	0.01123
2378	0.01121
2379	0.01118
2380	0.01116
2381	0.01114
2382	0.01111
2383	0.01109
2384	0.01107
2385	0.01105
2386	0.01102
2387	0.011
2388	0.01098
2389	0.01095
2390	0.01093
2391	0.01091
2392	0.01088
2393	0.01086
2394	0.01084
2395	0.01081
2396	0.01079
2397	0.01077
2398	0.01074
2399	0.01072
2400	0.0107
2401	0.01067
2402	0.01065
2403	0.01063
2404	0.01061
2405	0.01058
2406	0.01085
2407	0.01097
2408	0.01104
2409	0.01115
2410	0.01146
2411	0.01173
2412	0.01166
2413	0.01152
2414	0.01169
2415	0.01211
2416	0.01243
2417	0.01262
2418	0.01281
2419	0.01304
2420	0.01318
2421	0.01321
2422	0.01333
2423	0.01362
2424	0.01392
2425	0.01402
2426	0.01402
2427	0.01414
2428	0.01446
2429	0.01496
2430	0.01538
2431	0.01559
2432	0.01594
2433	0.01645
2434	0.01701
2435	0.01732
2436	0.01745
2437	0.01758
2438	0.01788
2439	0.01812
2440	0.01829
2441	0.01845
2442	0.01879
2443	0.01921
2444	0.01962
2445	0.01995
2446	0.02016
2447	0.02032
2448	0.02059
2449	0.02083
2450	0.02103
2451	0.02114
2452	0.0213
2453	0.02174
2454	0.02217
2455	0.02228
2456	0.02229
2457	0.02252
2458	0.02293
2459	0.02319
2460	0.02327
2461	0.02351
2462	0.02387
2463	0.02422
2464	0.0244
2465	0.02446
2466	0.02451
2467	0.0249
2468	0.02543
2469	0.02579
2470	0.02593
2471	0.02615
2472	0.02651
2473	0.02677
2474	0.02688
2475	0.02688
2476	0.02693
2477	0.02718
2478	0.02755
2479	0.02781
2480	0.02787
2481	0.028
2482	0.02834
2483	0.02877
2484	0.02892
2485	0.02889
2486	0.02903
2487	0.02947
2488	0.0298
2489	0.02964
2490	0.02953
2491	0.02991
2492	0.03049
2493	0.03074
2494	0.03059
2495	0.03043
2496	0.03066
2497	0.03126
2498	0.03162
2499	0.03147
2500	0.03128
2501	0.0315
2502	0.03202
2503	0.03229
2504	0.03222
2505	0.03229
2506	0.03271
2507	0.03314
2508	0.03314
2509	0.03286
2510	0.03269
2511	0.03302
2512	0.03352
2513	0.03367
2514	0.03344
2515	0.03333
2516	0.03374
2517	0.03431
2518	0.0345
2519	0.03448
2520	0.03454
2521	0.03494
2522	0.03534
2523	0.0354
2524	0.03522
2525	0.03532
2526	0.03575
2527	0.03615
2528	0.03624
2529	0.03616
2530	0.03636
2531	0.03691
2532	0.03741
2533	0.03751
2534	0.03742
2535	0.0376
2536	0.0381
2537	0.0385
2538	0.03855
2539	0.03852
2540	0.03877
2541	0.03922
2542	0.03956
2543	0.03966
2544	0.03976
2545	0.04016
2546	0.04065
2547	0.04089
2548	0.04089
2549	0.04076
2550	0.04092
2551	0.04132
2552	0.04167
2553	0.0417
2554	0.04167
2555	0.04185
2556	0.04224
2557	0.04263
2558	0.0429
2559	0.04307
2560	0.04329
2561	0.0436
2562	0.04384
2563	0.04398
2564	0.04401
2565	0.04413
2566	0.04447
2567	0.04487
2568	0.04526
2569	0.04548
2570	0.04557
2571	0.04573
2572	0.04606
2573	0.04651
2574	0.04683
2575	0.04708
2576	0.04726
2577	0.0477
2578	0.04827
2579	0.04867
2580	0.04877
2581	0.04886
2582	0.04917
2583	0.04961
2584	0.04991
2585	0.05009
2586	0.0502
2587	0.05043
2588	0.05076
2589	0.05097
2590	0.05107
2591	0.05124
2592	0.05169
2593	0.05225
2594	0.05263
2595	0.05274
2596	0.05278
2597	0.05297
2598	0.05342
2599	0.05392
2600	0.05423
2601	0.05428
2602	0.05448
2603	0.05505
2604	0.05551
2605	0.05546
2606	0.05534
2607	0.05579
2608	0.05654
2609	0.05697
2610	0.05702
2611	0.05722
2612	0.05773
2613	0.05827
2614	0.05851
2615	0.05852
2616	0.05868
2617	0.05929
2618	0.06023
2619	0.06092
2620	0.06111
2621	0.06114
2622	0.06158
2623	0.06237
2624	0.06302
2625	0.06318
2626	0.06354
2627	0.06442
2628	0.06532
2629	0.06571
2630	0.06576
2631	0.06601
2632	0.06673
2633	0.06759
2634	0.06807
2635	0.06825
2636	0.06872
2637	0.06954
2638	0.07028
2639	0.07067
2640	0.07081
2641	0.07114
2642	0.07192
2643	0.07279
2644	0.07323
2645	0.07342
2646	0.07384
2647	0.07455
2648	0.07516
2649	0.07542
2650	0.07563
2651	0.07613
2652	0.07689
2653	0.07755
2654	0.07776
2655	0.07788
2656	0.07837
2657	0.07913
2658	0.07978
2659	0.08022
2660	0.08066
2661	0.08126
2662	0.08188
2663	0.08231
2664	0.08249
2665	0.0828
2666	0.08341
2667	0.08398
2668	0.08427
2669	0.08449
2670	0.08483
2671	0.08531
2672	0.08583
2673	0.0863
2674	0.0866
2675	0.08692
2676	0.08746
2677	0.08793
2678	0.08828
2679	0.08855
2680	0.08905
2681	0.08949
2682	0.08968
2683	0.08973
2684	0.08992
2685	0.09042
2686	0.09105
2687	0.09156
2688	0.09188
2689	0.09203
2690	0.09227
2691	0.09264
2692	0.09291
2693	0.09315
2694	0.09343
2695	0.0938
2696	0.09425
2697	0.09466
2698	0.09506
2699	0.0955
2700	0.09605
2701	0.09648
2702	0.09657
2703	0.09679
2704	0.09734
2705	0.09804
2706	0.09844
2707	0.09859
2708	0.09889
2709	0.09955
2710	0.10049
2711	0.1013
2712	0.10175
2713	0.10217
2714	0.10272
2715	0.10332
2716	0.10376
2717	0.10407
2718	0.10442
2719	0.10499
2720	0.10576
2721	0.10641
2722	0.10682
2723	0.10727
2724	0.10793
2725	0.1087
2726	0.10916
2727	0.1093
2728	0.10962
2729	0.11037
2730	0.11115
2731	0.11158
2732	0.11158
2733	0.11183
2734	0.11259
2735	0.11352
2736	0.114
2737	0.11428
2738	0.11466
2739	0.11526
2740	0.11591
2741	0.11632
2742	0.11646
2743	0.11664
2744	0.1172
2745	0.11803
2746	0.11874
2747	0.1192
2748	0.11949
2749	0.11994
2750	0.12051
2751	0.12082
2752	0.12089
2753	0.12108
2754	0.12153
2755	0.12205
2756	0.12241
2757	0.12258
2758	0.12285
2759	0.12328
2760	0.12374
2761	0.12388
2762	0.12399
2763	0.12433
2764	0.12491
2765	0.12536
2766	0.1255
2767	0.12567
2768	0.12618
2769	0.12674
2770	0.12707
2771	0.12725
2772	0.12745
2773	0.1278
2774	0.12828
2775	0.12873
2776	0.12896
2777	0.12915
2778	0.12966
2779	0.13017
2780	0.13049
2781	0.13072
2782	0.13117
2783	0.13189
2784	0.1327
2785	0.1333
2786	0.13359
2787	0.13369
2788	0.13409
2789	0.13472
2790	0.1353
2791	0.13594
2792	0.13656
2793	0.13709
2794	0.13768
2795	0.1384
2796	0.13939
2797	0.14037
2798	0.14108
2799	0.1416
2800	0.14225
2801	0.14317
2802	0.1442
2803	0.14517
2804	0.14598
2805	0.14678
2806	0.14774
2807	0.14882
2808	0.15
2809	0.15124
2810	0.15254
2811	0.15386
2812	0.15501
2813	0.15621
2814	0.1574
2815	0.15866
2816	0.15995
2817	0.16121
2818	0.16247
2819	0.16374
2820	0.16515
2821	0.16666
2822	0.16814
2823	0.16926
2824	0.17004
2825	0.17088
2826	0.17193
2827	0.17275
2828	0.17329
2829	0.17397
2830	0.17493
2831	0.17603
2832	0.17697
2833	0.17755
2834	0.17801
2835	0.17869
2836	0.17949
2837	0.18017
2838	0.1805
2839	0.18089
2840	0.18138
2841	0.18184
2842	0.18197
2843	0.18169
2844	0.18122
2845	0.18064
2846	0.17972
2847	0.17825
2848	0.17657
2849	0.17545
2850	0.17586
2851	0.17794
2852	0.18107
2853	0.18494
2854	0.18944
2855	0.19419
2856	0.19867
2857	0.20258
2858	0.20608
2859	0.20946
2860	0.21268
2861	0.21576
2862	0.21862
2863	0.22136
2864	0.22434
2865	0.22747
2866	0.23049
2867	0.23312
2868	0.23579
2869	0.23882
2870	0.24224
2871	0.24562
2872	0.2487
2873	0.25169
2874	0.25472
2875	0.25761
2876	0.26015
2877	0.26246
2878	0.26466
2879	0.26689
2880	0.26906
2881	0.27095
2882	0.2726
2883	0.27433
2884	0.27624
2885	0.27812
2886	0.27966
2887	0.28096
2888	0.28242
2889	0.28416
2890	0.28588
2891	0.28733
2892	0.28838
2893	0.2896
2894	0.29131
2895	0.29317
2896	0.29461
2897	0.29545
2898	0.29649
2899	0.29801
2900	0.29958
2901	0.30084
2902	0.30188
2903	0.30311
2904	0.30461
2905	0.30611
2906	0.30754
2907	0.30879
2908	0.3099
2909	0.31098
2910	0.31199
2911	0.31254
2912	0.31252
2913	0.31203
2914	0.31121
2915	0.31031
2916	0.30963
2917	0.30965
2918	0.31085
2919	0.31341
2920	0.31717
2921	0.32175
2922	0.32673
2923	0.33179
2924	0.3366
2925	0.341
2926	0.34477
2927	0.34784
2928	0.35038
2929	0.35252
2930	0.35417
2931	0.35526
2932	0.35604
2933	0.35655
2934	0.35653
2935	0.35595
2936	0.35484
2937	0.35341
2938	0.35177
2939	0.34982
2940	0.34733
2941	0.34435
2942	0.34119
2943	0.33792
2944	0.33439
2945	0.33059
2946	0.32653
2947	0.32237
2948	0.31839
2949	0.31446
2950	0.31054
2951	0.30695
2952	0.30361
2953	0.30046
2954	0.29766
2955	0.29532
2956	0.29351
2957	0.29198
2958	0.29064
2959	0.2895
2960	0.28845
2961	0.28734
2962	0.28612
2963	0.28464
2964	0.28315
2965	0.28213
2966	0.28142
2967	0.28069
2968	0.27987
2969	0.27895
2970	0.27812
2971	0.27754
2972	0.27691
2973	0.27605
2974	0.27504
2975	0.27429
2976	0.27364
2977	0.27287
2978	0.27176
2979	0.27025
2980	0.26876
2981	0.26747
2982	0.266
2983	0.2641
2984	0.262
2985	0.26002
2986	0.25799
2987	0.2558
2988	0.25356
2989	0.25119
2990	0.24884
2991	0.24677
2992	0.24478
2993	0.24264
2994	0.24052
2995	0.23874
2996	0.2373
2997	0.23602
2998	0.2347
2999	0.23357
3000	0.23258
3001	0.23172
3002	0.23106
3003	0.23069
3004	0.23041
3005	0.23012
3006	0.22972
3007	0.22939
3008	0.22918
3009	0.2291
3010	0.22913
3011	0.22924
3012	0.22942
3013	0.22969
3014	0.23
3015	0.23038
3016	0.23071
3017	0.2311
3018	0.23165
3019	0.23235
3020	0.23304
3021	0.23368
3022	0.23435
3023	0.23497
3024	0.23559
3025	0.23651
3026	0.23762
3027	0.23865
3028	0.23939
3029	0.24004
3030	0.2409
3031	0.24185
3032	0.24293
3033	0.24417
3034	0.2453
3035	0.24643
3036	0.2475
3037	0.24855
3038	0.24954
3039	0.25051
3040	0.25154
3041	0.25268
3042	0.25397
3043	0.2553
3044	0.25639
3045	0.2573
3046	0.25838
3047	0.25964
3048	0.26081
3049	0.26179
3050	0.2627
3051	0.26376
3052	0.26512
3053	0.26647
3054	0.26738
3055	0.26826
3056	0.26942
3057	0.27078
3058	0.27186
3059	0.27263
3060	0.27359
3061	0.27479
3062	0.27602
3063	0.27715
3064	0.27822
3065	0.27941
3066	0.28075
3067	0.2822
3068	0.28357
3069	0.2847
3070	0.28563
3071	0.28657
3072	0.28769
3073	0.28901
3074	0.29036
3075	0.29156
3076	0.29274
3077	0.29389
3078	0.29507
3079	0.2962
3080	0.29739
3081	0.29873
3082	0.30032
3083	0.30168
3084	0.30264
3085	0.30341
3086	0.30449
3087	0.30606
3088	0.30753
3089	0.30867
3090	0.30963
3091	0.31063
3092	0.31191
3093	0.31349
3094	0.31496
3095	0.31602
3096	0.31712
3097	0.31859
3098	0.32012
3099	0.32127
3100	0.32212
3101	0.32323
3102	0.32484
3103	0.32645
3104	0.32761
3105	0.32867
3106	0.33001
3107	0.3316
3108	0.33312
3109	0.33436
3110	0.33544
3111	0.33668
3112	0.33787
3113	0.33895
3114	0.34014
3115	0.34139
3116	0.34259
3117	0.34385
3118	0.34508
3119	0.34619
3120	0.34731
3121	0.34868
3122	0.35038
3123	0.35211
3124	0.35355
3125	0.35463
3126	0.35558
3127	0.35676
3128	0.35817
3129	0.35953
3130	0.36081
3131	0.36222
3132	0.36386
3133	0.3655
3134	0.36689
3135	0.3681
3136	0.3694
3137	0.37071
3138	0.37198
3139	0.37323
3140	0.37466
3141	0.37617
3142	0.3777
3143	0.379
3144	0.38014
3145	0.38133
3146	0.38259
3147	0.38408
3148	0.38564
3149	0.38695
3150	0.388
3151	0.38911
3152	0.39048
3153	0.39189
3154	0.39314
3155	0.39437
3156	0.39573
3157	0.39725
3158	0.39868
3159	0.39989
3160	0.40097
3161	0.40228
3162	0.40371
3163	0.40499
3164	0.40609
3165	0.40716
3166	0.40823
3167	0.40948
3168	0.41084
3169	0.41208
3170	0.4132
3171	0.41413
3172	0.41504
3173	0.41602
3174	0.41719
3175	0.41838
3176	0.41933
3177	0.42001
3178	0.42069
3179	0.42154
3180	0.42251
3181	0.42352
3182	0.4246
3183	0.42577
3184	0.42681
3185	0.42751
3186	0.42826
3187	0.42927
3188	0.43023
3189	0.43084
3190	0.43134
3191	0.43207
3192	0.43284
3193	0.43367
3194	0.43436
3195	0.43462
3196	0.4348
3197	0.43533
3198	0.4359
3199	0.43645
3200	0.43687
3201	0.43726
3202	0.43775
3203	0.43812
3204	0.43829
3205	0.43847
3206	0.43892
3207	0.43958
3208	0.44021
3209	0.44045
3210	0.44041
3211	0.44058
3212	0.44103
3213	0.44137
3214	0.44146
3215	0.44162
3216	0.44199
3217	0.44238
3218	0.4425
3219	0.44259
3220	0.44285
3221	0.44318
3222	0.44357
3223	0.44383
3224	0.44392
3225	0.44368
3226	0.44336
3227	0.44318
3228	0.44315
3229	0.44316
3230	0.44312
3231	0.44301
3232	0.44277
3233	0.44254
3234	0.4425
3235	0.44265
3236	0.44275
3237	0.4427
3238	0.44268
3239	0.4427
3240	0.44273
3241	0.44293
3242	0.44324
3243	0.44328
3244	0.44287
3245	0.44219
3246	0.44176
3247	0.44182
3248	0.44238
3249	0.443
3250	0.44303
3251	0.44267
3252	0.44253
3253	0.44252
3254	0.44234
3255	0.44224
3256	0.44249
3257	0.44285
3258	0.44303
3259	0.44305
3260	0.44321
3261	0.4436
3262	0.44393
3263	0.444
3264	0.44404
3265	0.44424
3266	0.44446
3267	0.44451
3268	0.44424
3269	0.44366
3270	0.4432
3271	0.44336
3272	0.4439
3273	0.44442
3274	0.44458
3275	0.44473
3276	0.44494
3277	0.44507
3278	0.44494
3279	0.44469
3280	0.44464
3281	0.44485
3282	0.44489
3283	0.44463
3284	0.44431
3285	0.44395
3286	0.4434
3287	0.44289
3288	0.44263
3289	0.44224
3290	0.44142
3291	0.44062
3292	0.44031
3293	0.44004
3294	0.43931
3295	0.43841
3296	0.43784
3297	0.43752
3298	0.43688
3299	0.43583
3300	0.43458
3301	0.43325
3302	0.4321
3303	0.43109
3304	0.42992
3305	0.42862
3306	0.4272
3307	0.42592
3308	0.42473
3309	0.42311
3310	0.42134
3311	0.41989
3312	0.41847
3313	0.41677
3314	0.41488
3315	0.41302
3316	0.41123
3317	0.4094
3318	0.40737
3319	0.40513
3320	0.40281
3321	0.40066
3322	0.39864
3323	0.3964
3324	0.39384
3325	0.39106
3326	0.38825
3327	0.38566
3328	0.38357
3329	0.38149
3330	0.37878
3331	0.37553
3332	0.3722
3333	0.36917
3334	0.36619
3335	0.36293
3336	0.35931
3337	0.35553
3338	0.35212
3339	0.34912
3340	0.34592
3341	0.34231
3342	0.33885
3343	0.33557
3344	0.33194
3345	0.32796
3346	0.3241
3347	0.32041
3348	0.31654
3349	0.31233
3350	0.30808
3351	0.30391
3352	0.2998
3353	0.29554
3354	0.29104
3355	0.2865
3356	0.28209
3357	0.27768
3358	0.27323
3359	0.2689
3360	0.26418
3361	0.25922
3362	0.25454
3363	0.25028
3364	0.24594
3365	0.24124
3366	0.23627
3367	0.23129
3368	0.22651
3369	0.22162
3370	0.21663
3371	0.21196
3372	0.20739
3373	0.20246
3374	0.19766
3375	0.19339
3376	0.18897
3377	0.18416
3378	0.17961
3379	0.1756
3380	0.17162
3381	0.16737
3382	0.16315
3383	0.15922
3384	0.15543
3385	0.15156
3386	0.14744
3387	0.14334
3388	0.1396
3389	0.13599
3390	0.13215
3391	0.12815
3392	0.12419
3393	0.12063
3394	0.11752
3395	0.11426
3396	0.11042
3397	0.10639
3398	0.10278
3399	0.09965
3400	0.09647
3401	0.09306
3402	0.0897
3403	0.08657
3404	0.08348
3405	0.08017
3406	0.0767
3407	0.07326
3408	0.06995
3409	0.06677
3410	0.06372
3411	0.06086
3412	0.0582
3413	0.05521
3414	0.05173
3415	0.04837
3416	0.0456
3417	0.04298
3418	0.04039
3419	0.03793
3420	0.03558
3421	0.03341
3422	0.03165
3423	0.03008
3424	0.02819
3425	0.02606
3426	0.0241
3427	0.02244
3428	0.02082
3429	0.01922
3430	0.01782
3431	0.01639
3432	0.01504
3433	0.01396
3434	0.01304
3435	0.01231
3436	0.01189
3437	0.0116
3438	0.0115
3439	0.01134
3440	0.01104
3441	0.01074
3442	0.01065
3443	0.01035
3444	0.01002
3445	0.01007
3446	0.01035
3447	0.01036
3448	0.01051
3449	0.01116
3450	0.0117
3451	0.0116
3452	0.01142
3453	0.01181
3454	0.01252
3455	0.01318
3456	0.01403
3457	0.01542
3458	0.01686
3459	0.01792
3460	0.01871
3461	0.01938
3462	0.02027
3463	0.02149
3464	0.02284
3465	0.02462
3466	0.0264
3467	0.02756
3468	0.02878
3469	0.03058
3470	0.03203
3471	0.03265
3472	0.03298
3473	0.03373
3474	0.03514
3475	0.03702
3476	0.03869
3477	0.03985
3478	0.04117
3479	0.04306
3480	0.04454
3481	0.04498
3482	0.0454
3483	0.04701
3484	0.04959
3485	0.0518
3486	0.05271
3487	0.05296
3488	0.05373
3489	0.05508
3490	0.05661
3491	0.05801
3492	0.05919
3493	0.06071
3494	0.06263
3495	0.06412
3496	0.06502
3497	0.06624
3498	0.06778
3499	0.06908
3500	0.07015
3501	0.07133
3502	0.07264
3503	0.07376
3504	0.07472
3505	0.07569
3506	0.07657
3507	0.0774
3508	0.07859
3509	0.07994
3510	0.08116
3511	0.08259
3512	0.08413
3513	0.08551
3514	0.08681
3515	0.08794
3516	0.08878
3517	0.08951
3518	0.09048
3519	0.09166
3520	0.09293
3521	0.09401
3522	0.09488
3523	0.096
3524	0.09745
3525	0.09902
3526	0.10016
3527	0.10089
3528	0.1015
3529	0.10235
3530	0.10367
3531	0.10552
3532	0.10748
3533	0.10903
3534	0.11011
3535	0.11114
3536	0.11244
3537	0.11364
3538	0.11461
3539	0.11586
3540	0.11754
3541	0.11928
3542	0.12077
3543	0.12181
3544	0.12291
3545	0.12443
3546	0.12595
3547	0.12736
3548	0.12865
3549	0.13005
3550	0.1318
3551	0.13356
3552	0.13495
3553	0.13628
3554	0.13816
3555	0.14032
3556	0.14226
3557	0.14385
3558	0.14524
3559	0.14673
3560	0.1485
3561	0.15009
3562	0.15119
3563	0.1522
3564	0.15337
3565	0.15451
3566	0.15556
3567	0.15714
3568	0.15956
3569	0.16208
3570	0.16418
3571	0.16614
3572	0.16804
3573	0.16976
3574	0.17142
3575	0.1731
3576	0.17501
3577	0.17691
3578	0.17876
3579	0.18037
3580	0.18197
3581	0.18404
3582	0.18615
3583	0.18771
3584	0.18901
3585	0.19053
3586	0.1922
3587	0.19382
3588	0.19534
3589	0.19697
3590	0.19865
3591	0.2001
3592	0.20119
3593	0.20226
3594	0.20365
3595	0.20552
3596	0.20759
3597	0.20892
3598	0.21009
3599	0.21179
3600	0.21337
3601	0.21469
3602	0.2165
3603	0.21856
3604	0.2203
3605	0.22151
3606	0.22242
3607	0.22352
3608	0.22528
3609	0.22758
3610	0.22951
3611	0.23064
3612	0.2317
3613	0.23277
3614	0.23334
3615	0.23341
3616	0.23327
3617	0.23312
3618	0.23328
3619	0.2341
3620	0.23483
3621	0.23458
3622	0.23418
3623	0.23412
3624	0.23417
3625	0.23411
3626	0.23382
3627	0.23334
3628	0.23362
3629	0.23444
3630	0.23426
3631	0.23382
3632	0.23406
3633	0.2345
3634	0.23477
3635	0.23493
3636	0.23499
3637	0.2348
3638	0.23448
3639	0.23424
3640	0.2338
3641	0.23298
3642	0.23199
3643	0.23112
3644	0.23027
3645	0.22908
3646	0.22746
3647	0.22559
3648	0.22402
3649	0.22268
3650	0.22091
3651	0.22004
3652	0.22043
3653	0.22033
3654	0.21921
3655	0.2173
3656	0.21544
3657	0.21418
3658	0.21308
3659	0.21165
3660	0.20996
3661	0.20858
3662	0.2077
3663	0.20672
3664	0.20525
3665	0.20348
3666	0.20169
3667	0.1999
3668	0.19759
3669	0.19471
3670	0.19242
3671	0.19133
3672	0.19066
3673	0.18959
3674	0.18762
3675	0.18474
3676	0.18225
3677	0.18131
3678	0.18095
3679	0.1803
3680	0.17875
3681	0.17684
3682	0.17535
3683	0.1738
3684	0.17217
3685	0.17027
3686	0.16817
3687	0.16609
3688	0.16419
3689	0.16201
3690	0.15945
3691	0.15754
3692	0.15685
3693	0.15656
3694	0.15565
3695	0.15422
3696	0.15267
3697	0.15114
3698	0.14959
3699	0.1481
3700	0.14695
3701	0.14619
3702	0.14494
3703	0.14341
3704	0.14261
3705	0.14209
3706	0.14131
3707	0.14027
3708	0.13884
3709	0.13689
3710	0.13565
3711	0.13554
3712	0.13554
3713	0.13598
3714	0.13685
3715	0.13688
3716	0.13596
3717	0.1343
3718	0.13217
3719	0.13016
3720	0.12872
3721	0.12715
3722	0.12495
3723	0.12314
3724	0.12209
3725	0.12073
3726	0.11891
3727	0.11772
3728	0.11757
3729	0.11779
3730	0.11743
3731	0.11677
3732	0.11611
3733	0.11491
3734	0.11367
3735	0.11263
3736	0.11193
3737	0.11211
3738	0.11228
3739	0.11238
3740	0.11272
3741	0.11287
3742	0.11296
3743	0.11308
3744	0.11249
3745	0.11081
3746	0.10989
3747	0.10981
3748	0.10932
3749	0.10842
3750	0.10764
3751	0.10752
3752	0.10781
3753	0.10777
3754	0.10748
3755	0.10707
3756	0.1063
3757	0.10534
3758	0.10472
3759	0.10427
3760	0.10377
3761	0.10351
3762	0.10325
3763	0.10301
3764	0.10284
3765	0.10214
3766	0.10087
3767	0.10034
3768	0.10038
3769	0.0998
3770	0.09853
3771	0.09754
3772	0.09715
3773	0.09688
3774	0.09638
3775	0.09555
3776	0.0946
3777	0.09377
3778	0.09287
3779	0.09181
3780	0.0911
3781	0.09099
3782	0.09096
3783	0.09062
3784	0.08978
3785	0.0887
3786	0.08834
3787	0.08864
3788	0.08878
3789	0.08847
3790	0.08791
3791	0.08717
3792	0.08653
3793	0.08567
3794	0.08463
3795	0.08396
3796	0.08335
3797	0.08221
3798	0.08128
3799	0.08092
3800	0.08039
3801	0.07917
3802	0.07789
3803	0.07763
3804	0.07806
3805	0.07808
3806	0.07711
3807	0.07555
3808	0.07508
3809	0.07563
3810	0.07594
3811	0.07592
3812	0.07566
3813	0.07491
3814	0.07411
3815	0.0733
3816	0.07148
3817	0.06984
3818	0.06995
3819	0.06993
3820	0.06914
3821	0.06787
3822	0.06702
3823	0.06736
3824	0.06791
3825	0.06815
3826	0.06778
3827	0.06694
3828	0.06643
3829	0.06642
3830	0.06622
3831	0.06542
3832	0.06442
3833	0.0638
3834	0.06323
3835	0.06233
3836	0.06158
3837	0.06087
3838	0.05945
3839	0.05876
3840	0.05911
3841	0.05944
3842	0.05962
3843	0.05943
3844	0.05877
3845	0.0585
3846	0.05864
3847	0.0584
3848	0.05794
3849	0.05743
3850	0.05711
3851	0.05711
3852	0.05664
3853	0.05517
3854	0.05338
3855	0.05243
3856	0.05235
3857	0.05241
3858	0.05263
3859	0.05297
3860	0.05289
3861	0.05209
3862	0.05091
3863	0.05034
3864	0.05027
3865	0.04958
3866	0.04897
3867	0.04915
3868	0.0494
3869	0.04872
3870	0.04679
3871	0.04642
3872	0.04741
3873	0.04764
3874	0.04682
3875	0.04613
3876	0.04616
3877	0.04602
3878	0.04573
3879	0.04557
3880	0.04463
3881	0.04304
3882	0.04265
3883	0.04294
3884	0.04256
3885	0.04189
3886	0.04151
3887	0.04174
3888	0.04223
3889	0.04262
3890	0.04263
3891	0.04149
3892	0.03981
3893	0.0393
3894	0.03963
3895	0.03979
3896	0.03962
3897	0.03925
3898	0.03881
3899	0.0382
3900	0.03766
3901	0.03735
3902	0.03703
3903	0.03657
3904	0.03567
3905	0.03453
3906	0.03429
3907	0.03491
3908	0.03562
3909	0.03607
3910	0.03608
3911	0.03573
3912	0.0351
3913	0.03465
3914	0.03489
3915	0.0352
3916	0.03449
3917	0.03298
3918	0.03214
3919	0.03213
3920	0.03214
3921	0.03241
3922	0.03299
3923	0.03291
3924	0.03171
3925	0.03033
3926	0.03017
3927	0.03099
3928	0.03141
3929	0.03102
3930	0.03035
3931	0.03003
3932	0.02969
3933	0.02894
3934	0.02821
3935	0.02805
3936	0.02842
3937	0.02891
3938	0.02891
3939	0.02841
3940	0.02789
3941	0.02761
3942	0.02722
3943	0.02663
3944	0.0265
3945	0.02688
3946	0.02704
3947	0.02674
3948	0.02625
3949	0.02564
3950	0.02498
3951	0.02464
3952	0.02476
3953	0.02449
3954	0.02422
3955	0.02424
3956	0.02436
3957	0.02409
3958	0.02358
3959	0.02301
3960	0.02242
3961	0.0221
3962	0.02219
3963	0.02242
3964	0.02245
3965	0.02217
3966	0.02177
3967	0.02154
3968	0.02114
3969	0.02027
3970	0.01951
3971	0.01933
3972	0.01943
3973	0.01945
3974	0.01954
3975	0.01965
3976	0.01956
3977	0.01943
3978	0.01947
3979	0.0194
3980	0.01907
3981	0.01831
3982	0.01751
3983	0.01724
3984	0.01745
3985	0.01772
3986	0.01761
3987	0.01723
3988	0.01692
3989	0.01695
3990	0.01699
3991	0.01663
3992	0.01602
3993	0.01566
3994	0.01578
3995	0.0159
3996	0.01553
3997	0.01498