4000.18193	0.03612
3999.21756	0.03608
3998.2532	0.03622
3997.28884	0.03675
3996.32447	0.03806
3995.36011	0.03938
3994.39574	0.03928
3993.43138	0.03856
3992.46702	0.03886
3991.50265	0.0401
3990.53829	0.04081
3989.57392	0.04011
3988.60956	0.03897
3987.6452	0.03856
3986.68083	0.03874
3985.71647	0.03879
3984.7521	0.03875
3983.78774	0.0394
3982.82338	0.04052
3981.85901	0.04106
3980.89465	0.04084
3979.93028	0.04033
3978.96592	0.03996
3978.00156	0.04026
3977.03719	0.04174
3976.07283	0.04362
3975.10846	0.04433
3974.1441	0.04414
3973.17974	0.0441
3972.21537	0.04388
3971.25101	0.04322
3970.28664	0.04315
3969.32228	0.04342
3968.35792	0.04276
3967.39355	0.04167
3966.42919	0.04143
3965.46482	0.04212
3964.50046	0.04312
3963.5361	0.04478
3962.57173	0.04711
3961.60737	0.04768
3960.643	0.04603
3959.67864	0.04483
3958.71428	0.04516
3957.74991	0.04611
3956.78555	0.04638
3955.82118	0.0457
3954.85682	0.0453
3953.89246	0.04589
3952.92809	0.04662
3951.96373	0.04785
3950.99936	0.05125
3950.035	0.05471
3949.07064	0.05576
3948.10627	0.05548
3947.14191	0.05312
3946.17754	0.04988
3945.21318	0.04963
3944.24882	0.05339
3943.28445	0.05801
3942.32009	0.05727
3941.35572	0.05212
3940.39136	0.04863
3939.427	0.04799
3938.46263	0.048
3937.49827	0.04738
3936.5339	0.04701
3935.56954	0.04827
3934.60518	0.05152
3933.64081	0.0566
3932.67645	0.0616
3931.71208	0.06281
3930.74772	0.06134
3929.78336	0.05917
3928.81899	0.05562
3927.85463	0.05221
3926.89026	0.05235
3925.9259	0.05797
3924.96154	0.06513
3923.99717	0.06476
3923.03281	0.05837
3922.06844	0.05443
3921.10408	0.05597
3920.13972	0.05885
3919.17535	0.05923
3918.21099	0.0615
3917.24662	0.06588
3916.28226	0.06395
3915.3179	0.05724
3914.35353	0.05267
3913.38917	0.05095
3912.4248	0.05027
3911.46044	0.04999
3910.49608	0.05014
3909.53171	0.05067
3908.56735	0.05205
3907.60298	0.05615
3906.63862	0.06458
3905.67426	0.0753
3904.70989	0.08271
3903.74553	0.08478
3902.78116	0.08474
3901.8168	0.08192
3900.85244	0.0782
3899.88807	0.07859
3898.92371	0.07824
3897.95934	0.0709
3896.99498	0.06268
3896.03062	0.05913
3895.06625	0.06082
3894.10189	0.06483
3893.13752	0.06996
3892.17316	0.0768
3891.2088	0.07776
3890.24443	0.0698
3889.28007	0.06301
3888.3157	0.06118
3887.35134	0.06494
3886.38698	0.07382
3885.42261	0.07965
3884.45825	0.07741
3883.49388	0.07387
3882.52952	0.07313
3881.56516	0.07833
3880.60079	0.08422
3879.63643	0.07782
3878.67206	0.06819
3877.7077	0.06313
3876.74333	0.06285
3875.77897	0.06812
3874.81461	0.07901
3873.85024	0.08417
3872.88588	0.08048
3871.92151	0.0815
3870.95715	0.09217
3869.99279	0.10206
3869.02842	0.09117
3868.06406	0.07854
3867.09969	0.07513
3866.13533	0.08159
3865.17097	0.09297
3864.2066	0.09408
3863.24224	0.08905
3862.27787	0.08492
3861.31351	0.07896
3860.34915	0.07283
3859.38478	0.07111
3858.42042	0.07539
3857.45605	0.08321
3856.49169	0.08864
3855.52733	0.09322
3854.56296	0.10808
3853.5986	0.13172
3852.63423	0.12584
3851.66987	0.10571
3850.70551	0.09237
3849.74114	0.08427
3848.77678	0.07733
3847.81241	0.07251
3846.84805	0.07119
3845.88369	0.07361
3844.91932	0.08
3843.95496	0.0868
3842.99059	0.08831
3842.02623	0.09079
3841.06187	0.1003
3840.0975	0.10946
3839.13314	0.11194
3838.16877	0.11031
3837.20441	0.10391
3836.24005	0.09913
3835.27568	0.09629
3834.31132	0.09108
3833.34695	0.08734
3832.38259	0.0887
3831.41823	0.08937
3830.45386	0.08489
3829.4895	0.08177
3828.52513	0.08365
3827.56077	0.08902
3826.59641	0.09172
3825.63204	0.08961
3824.66768	0.0882
3823.70331	0.09083
3822.73895	0.09931
3821.77459	0.11658
3820.81022	0.12433
3819.84586	0.11121
3818.88149	0.10043
3817.91713	0.09762
3816.95277	0.10248
3815.9884	0.10602
3815.02404	0.09752
3814.05967	0.08805
3813.09531	0.0825
3812.13095	0.08058
3811.16658	0.08056
3810.20222	0.08171
3809.23785	0.08505
3808.27349	0.09267
3807.30913	0.10328
3806.34476	0.10354
3805.3804	0.09705
3804.41603	0.09586
3803.45167	0.10339
3802.48731	0.11866
3801.52294	0.12813
3800.55858	0.11726
3799.59421	0.10556
3798.62985	0.10154
3797.66549	0.10397
3796.70112	0.10527
3795.73676	0.09887
3794.77239	0.09137
3793.80803	0.08722
3792.84367	0.08587
3791.8793	0.0858
3790.91494	0.08627
3789.95057	0.087
3788.98621	0.08765
3788.02185	0.08886
3787.05748	0.09205
3786.09312	0.0976
3785.12875	0.10182
3784.16439	0.09965
3783.20003	0.09514
3782.23566	0.09363
3781.2713	0.09615
3780.30693	0.10229
3779.34257	0.10642
3778.37821	0.10293
3777.41384	0.09745
3776.44948	0.09397
3775.48511	0.09283
3774.52075	0.09315
3773.55639	0.09445
3772.59202	0.09745
3771.62766	0.1034
3770.66329	0.11206
3769.69893	0.1155
3768.73457	0.1101
3767.7702	0.10653
3766.80584	0.10917
3765.84147	0.11341
3764.87711	0.11121
3763.91275	0.10649
3762.94838	0.10423
3761.98402	0.10547
3761.01965	0.11188
3760.05529	0.12275
3759.09093	0.12618
3758.12656	0.12234
3757.1622	0.12059
3756.19783	0.11976
3755.23347	0.11933
3754.26911	0.12345
3753.30474	0.13531
3752.34038	0.15516
3751.37601	0.1661
3750.41165	0.16478
3749.44729	0.15757
3748.48292	0.14809
3747.51856	0.14251
3746.55419	0.14198
3745.58983	0.1476
3744.62547	0.15355
3743.6611	0.14396
3742.69674	0.13664
3741.73237	0.13482
3740.76801	0.13347
3739.80365	0.13181
3738.83928	0.13448
3737.87492	0.14247
3736.91055	0.15527
3735.94619	0.17181
3734.98182	0.17284
3734.01746	0.15922
3733.0531	0.15106
3732.08873	0.14551
3731.12437	0.13631
3730.16	0.12821
3729.19564	0.12522
3728.23128	0.12868
3727.26691	0.13667
3726.30255	0.14261
3725.33818	0.14184
3724.37382	0.13967
3723.40946	0.142
3722.44509	0.14434
3721.48073	0.13927
3720.51636	0.13516
3719.552	0.13561
3718.58764	0.13459
3717.62327	0.1312
3716.65891	0.13055
3715.69454	0.13356
3714.73018	0.13835
3713.76582	0.14561
3712.80145	0.15941
3711.83709	0.17206
3710.87272	0.16995
3709.90836	0.16213
3708.944	0.15197
3707.97963	0.14341
3707.01527	0.1393
3706.0509	0.13814
3705.08654	0.13767
3704.12218	0.13876
3703.15781	0.14419
3702.19345	0.15157
3701.22908	0.15105
3700.26472	0.14534
3699.30036	0.14204
3698.33599	0.14215
3697.37163	0.14418
3696.40726	0.14597
3695.4429	0.147
3694.47854	0.1489
3693.51417	0.15267
3692.54981	0.1601
3691.58544	0.1736
3690.62108	0.18449
3689.65672	0.18697
3688.69235	0.18544
3687.72799	0.17609
3686.76362	0.16594
3685.79926	0.16071
3684.8349	0.15941
3683.87053	0.15892
3682.90617	0.15866
3681.9418	0.16078
3680.97744	0.16676
3680.01308	0.175
3679.04871	0.18074
3678.08435	0.18578
3677.11998	0.19694
3676.15562	0.21968
3675.19126	0.2263
3674.22689	0.20414
3673.26253	0.19144
3672.29816	0.19134
3671.3338	0.20356
3670.36944	0.21913
3669.40507	0.21702
3668.44071	0.20326
3667.47634	0.1919
3666.51198	0.18654
3665.54762	0.18519
3664.58325	0.18554
3663.61889	0.1865
3662.65452	0.18796
3661.69016	0.19013
3660.7258	0.19288
3659.76143	0.19538
3658.79707	0.19813
3657.8327	0.20448
3656.86834	0.21503
3655.90398	0.21864
3654.93961	0.21324
3653.97525	0.21065
3653.01088	0.21474
3652.04652	0.22755
3651.08216	0.25102
3650.11779	0.27084
3649.15343	0.27263
3648.18906	0.26975
3647.2247	0.26071
3646.26034	0.24375
3645.29597	0.23054
3644.33161	0.22536
3643.36724	0.22695
3642.40288	0.22968
3641.43852	0.22894
3640.47415	0.2276
3639.50979	0.22904
3638.54542	0.23193
3637.58106	0.23261
3636.6167	0.23199
3635.65233	0.23433
3634.68797	0.24074
3633.7236	0.24557
3632.75924	0.24546
3631.79488	0.24798
3630.83051	0.25898
3629.86615	0.28045
3628.90178	0.29231
3627.93742	0.27729
3626.97306	0.26444
3626.00869	0.25671
3625.04433	0.25167
3624.07996	0.25039
3623.1156	0.25268
3622.15124	0.25828
3621.18687	0.26775
3620.22251	0.27977
3619.25814	0.28806
3618.29378	0.28674
3617.32942	0.27928
3616.36505	0.27623
3615.40069	0.28106
3614.43632	0.28795
3613.47196	0.29153
3612.5076	0.28938
3611.54323	0.28365
3610.57887	0.28291
3609.6145	0.28875
3608.65014	0.29419
3607.68578	0.29466
3606.72141	0.28965
3605.75705	0.28253
3604.79268	0.27944
3603.82832	0.28138
3602.86396	0.28602
3601.89959	0.29179
3600.93523	0.29681
3599.97086	0.29887
3599.0065	0.29904
3598.04214	0.29881
3597.07777	0.30069
3596.11341	0.30552
3595.14904	0.30846
3594.18468	0.30802
3593.22031	0.30612
3592.25595	0.30267
3591.29159	0.30129
3590.32722	0.30539
3589.36286	0.31634
3588.39849	0.33132
3587.43413	0.33862
3586.46977	0.33127
3585.5054	0.32042
3584.54104	0.31527
3583.57667	0.3142
3582.61231	0.31373
3581.64795	0.31442
3580.68358	0.31734
3579.71922	0.31973
3578.75485	0.32051
3577.79049	0.32193
3576.82613	0.32356
3575.86176	0.32465
3574.8974	0.32597
3573.93303	0.32651
3572.96867	0.32629
3572.00431	0.32759
3571.03994	0.33095
3570.07558	0.33626
3569.11121	0.34599
3568.14685	0.36113
3567.18249	0.37338
3566.21812	0.37106
3565.25376	0.35903
3564.28939	0.35034
3563.32503	0.34683
3562.36067	0.34543
3561.3963	0.34585
3560.43194	0.34669
3559.46757	0.34534
3558.50321	0.34362
3557.53885	0.34352
3556.57448	0.34387
3555.61012	0.34496
3554.64575	0.34869
3553.68139	0.35443
3552.71703	0.3591
3551.75266	0.35894
3550.7883	0.35549
3549.82393	0.35417
3548.85957	0.35748
3547.89521	0.36419
3546.93084	0.37072
3545.96648	0.37462
3545.00211	0.37494
3544.03775	0.37176
3543.07339	0.3673
3542.10902	0.36365
3541.14466	0.36205
3540.18029	0.36247
3539.21593	0.36377
3538.25157	0.3664
3537.2872	0.37086
3536.32284	0.37365
3535.35847	0.3721
3534.39411	0.36998
3533.42975	0.37016
3532.46538	0.37227
3531.50102	0.37539
3530.53665	0.37873
3529.57229	0.38268
3528.60793	0.38677
3527.64356	0.38859
3526.6792	0.38766
3525.71483	0.38714
3524.75047	0.38956
3523.78611	0.39284
3522.82174	0.39197
3521.85738	0.38736
3520.89301	0.38435
3519.92865	0.38436
3518.96429	0.3853
3517.99992	0.38544
3517.03556	0.38521
3516.07119	0.38547
3515.10683	0.38638
3514.14247	0.38792
3513.1781	0.38992
3512.21374	0.39225
3511.24937	0.39538
3510.28501	0.39963
3509.32065	0.40168
3508.35628	0.39927
3507.39192	0.39664
3506.42755	0.39727
3505.46319	0.40104
3504.49883	0.40668
3503.53446	0.41145
3502.5701	0.41198
3501.60573	0.40905
3500.64137	0.40603
3499.67701	0.40456
3498.71264	0.40473
3497.74828	0.40673
3496.78391	0.4093
3495.81955	0.41047
3494.85519	0.41023
3493.89082	0.40991
3492.92646	0.41029
3491.96209	0.41144
3490.99773	0.41277
3490.03337	0.41455
3489.069	0.41743
3488.10464	0.41991
3487.14027	0.42054
3486.17591	0.42069
3485.21155	0.42144
3484.24718	0.42307
3483.28282	0.42631
3482.31845	0.42999
3481.35409	0.4315
3480.38973	0.43066
3479.42536	0.42929
3478.461	0.42873
3477.49663	0.42941
3476.53227	0.43129
3475.56791	0.43369
3474.60354	0.43502
3473.63918	0.43518
3472.67481	0.43548
3471.71045	0.43635
3470.74609	0.43765
3469.78172	0.43895
3468.81736	0.44045
3467.85299	0.44258
3466.88863	0.44454
3465.92427	0.44551
3464.9599	0.44635
3463.99554	0.44822
3463.03117	0.45062
3462.06681	0.45209
3461.10245	0.45242
3460.13808	0.45277
3459.17372	0.4538
3458.20935	0.45515
3457.24499	0.45645
3456.28062	0.45751
3455.31626	0.45825
3454.3519	0.45898
3453.38753	0.46001
3452.42317	0.46121
3451.4588	0.46236
3450.49444	0.46341
3449.53008	0.4652
3448.56571	0.4692
3447.60135	0.47399
3446.63698	0.47514
3445.67262	0.47297
3444.70826	0.47174
3443.74389	0.47286
3442.77953	0.47479
3441.81516	0.4753
3440.8508	0.47471
3439.88644	0.47461
3438.92207	0.47505
3437.95771	0.47562
3436.99334	0.47623
3436.02898	0.47682
3435.06462	0.47757
3434.10025	0.47862
3433.13589	0.47998
3432.17152	0.48126
3431.20716	0.48197
3430.2428	0.48221
3429.27843	0.48259
3428.31407	0.48352
3427.3497	0.48448
3426.38534	0.48517
3425.42098	0.48586
3424.45661	0.48695
3423.49225	0.48856
3422.52788	0.4904
3421.56352	0.49203
3420.59916	0.49259
3419.63479	0.49161
3418.67043	0.4903
3417.70606	0.48977
3416.7417	0.48973
3415.77734	0.4898
3414.81297	0.48989
3413.84861	0.4899
3412.88424	0.48983
3411.91988	0.48998
3410.95552	0.4903
3409.99115	0.49047
3409.02679	0.4907
3408.06242	0.49112
3407.09806	0.49157
3406.1337	0.49198
3405.16933	0.49258
3404.20497	0.49309
3403.2406	0.49298
3402.27624	0.49269
3401.31188	0.49274
3400.34751	0.49308
3399.38315	0.49385
3398.41878	0.49549
3397.45442	0.49697
3396.49006	0.49689
3395.52569	0.49607
3394.56133	0.49645
3393.59696	0.49805
3392.6326	0.49889
3391.66824	0.49805
3390.70387	0.4971
3389.73951	0.49715
3388.77514	0.49778
3387.81078	0.49844
3386.84642	0.49931
3385.88205	0.50034
3384.91769	0.50091
3383.95332	0.50069
3382.98896	0.50001
3382.0246	0.4995
3381.06023	0.49944
3380.09587	0.49966
3379.1315	0.49987
3378.16714	0.49959
3377.20278	0.49909
3376.23841	0.49889
3375.27405	0.49894
3374.30968	0.49887
3373.34532	0.49856
3372.38096	0.49809
3371.41659	0.49766
3370.45223	0.49755
3369.48786	0.49778
3368.5235	0.49804
3367.55914	0.4981
3366.59477	0.49809
3365.63041	0.49796
3364.66604	0.49759
3363.70168	0.49726
3362.73732	0.49723
3361.77295	0.49697
3360.80859	0.49623
3359.84422	0.49546
3358.87986	0.49497
3357.9155	0.49486
3356.95113	0.495
3355.98677	0.49484
3355.0224	0.49421
3354.05804	0.49363
3353.09368	0.49314
3352.12931	0.49251
3351.16495	0.49205
3350.20058	0.49192
3349.23622	0.49203
3348.27186	0.49208
3347.30749	0.49188
3346.34313	0.49159
3345.37876	0.49141
3344.4144	0.49125
3343.45004	0.49101
3342.48567	0.49091
3341.52131	0.49094
3340.55694	0.49084
3339.59258	0.49058
3338.62822	0.49072
3337.66385	0.49138
3336.69949	0.49183
3335.73512	0.49163
3334.77076	0.49116
3333.8064	0.49048
3332.84203	0.4898
3331.87767	0.4894
3330.9133	0.48921
3329.94894	0.48911
3328.98458	0.48906
3328.02021	0.48915
3327.05585	0.48914
3326.09148	0.48894
3325.12712	0.48878
3324.16276	0.48859
3323.19839	0.48825
3322.23403	0.48784
3321.26966	0.48758
3320.3053	0.48748
3319.34094	0.48741
3318.37657	0.48731
3317.41221	0.48721
3316.44784	0.48695
3315.48348	0.48679
3314.51911	0.48709
3313.55475	0.48743
3312.59039	0.48737
3311.62602	0.4873
3310.66166	0.48789
3309.69729	0.48891
3308.73293	0.48936
3307.76857	0.48883
3306.8042	0.48809
3305.83984	0.48784
3304.87547	0.48789
3303.91111	0.48788
3302.94675	0.48768
3301.98238	0.48758
3301.01802	0.48773
3300.05365	0.48799
3299.08929	0.48835
3298.12493	0.48864
3297.16056	0.48857
3296.1962	0.48831
3295.23183	0.48852
3294.26747	0.48907
3293.30311	0.48964
3292.33874	0.49006
3291.37438	0.49021
3290.41001	0.49016
3289.44565	0.49021
3288.48129	0.49024
3287.51692	0.49016
3286.55256	0.49027
3285.58819	0.49069
3284.62383	0.49141
3283.65947	0.4921
3282.6951	0.49234
3281.73074	0.49247
3280.76637	0.49292
3279.80201	0.49352
3278.83765	0.49409
3277.87328	0.49504
3276.90892	0.49625
3275.94455	0.49703
3274.98019	0.49776
3274.01583	0.49872
3273.05146	0.49913
3272.0871	0.49912
3271.12273	0.49956
3270.15837	0.50056
3269.19401	0.50171
3268.22964	0.50307
3267.26528	0.50466
3266.30091	0.50645
3265.33655	0.50796
3264.37219	0.50911
3263.40782	0.51035
3262.44346	0.51204
3261.47909	0.51398
3260.51473	0.51582
3259.55037	0.51742
3258.586	0.51933
3257.62164	0.52168
3256.65727	0.52406
3255.69291	0.52644
3254.72855	0.52908
3253.76418	0.5313
3252.79982	0.53299
3251.83545	0.53493
3250.87109	0.53731
3249.90673	0.53983
3248.94236	0.54231
3247.978	0.54498
3247.01363	0.54796
3246.04927	0.55117
3245.08491	0.55374
3244.12054	0.55486
3243.15618	0.55539
3242.19181	0.55623
3241.22745	0.55705
3240.26309	0.55722
3239.29872	0.55663
3238.33436	0.5557
3237.36999	0.55463
3236.40563	0.55274
3235.44127	0.55013
3234.4769	0.5476
3233.51254	0.54546
3232.54817	0.54317
3231.58381	0.54057
3230.61945	0.53816
3229.65508	0.53587
3228.69072	0.53348
3227.72635	0.53091
3226.76199	0.5279
3225.79763	0.52466
3224.83326	0.52182
3223.8689	0.5195
3222.90453	0.51745
3221.94017	0.51534
3220.97581	0.51329
3220.01144	0.51142
3219.04708	0.50941
3218.08271	0.50717
3217.11835	0.5051
3216.15399	0.50359
3215.18962	0.50279
3214.22526	0.50225
3213.26089	0.50118
3212.29653	0.49981
3211.33217	0.49901
3210.3678	0.49875
3209.40344	0.49822
3208.43907	0.49705
3207.47471	0.49579
3206.51035	0.49481
3205.54598	0.49408
3204.58162	0.49321
3203.61725	0.49204
3202.65289	0.49075
3201.68853	0.48937
3200.72416	0.48796
3199.7598	0.48662
3198.79543	0.48538
3197.83107	0.48358
3196.86671	0.4808
3195.90234	0.47778
3194.93798	0.47503
3193.97361	0.47244
3193.00925	0.4698
3192.04489	0.46712
3191.08052	0.46446
3190.11616	0.4618
3189.15179	0.45912
3188.18743	0.45646
3187.22307	0.45396
3186.2587	0.45181
3185.29434	0.44979
3184.32997	0.44729
3183.36561	0.44442
3182.40125	0.44167
3181.43688	0.43916
3180.47252	0.43696
3179.50815	0.43534
3178.54379	0.43371
3177.57943	0.43105
3176.61506	0.42798
3175.6507	0.42553
3174.68633	0.42363
3173.72197	0.42162
3172.7576	0.41947
3171.79324	0.41754
3170.82888	0.41584
3169.86451	0.41408
3168.90015	0.41215
3167.93578	0.41008
3166.97142	0.40821
3166.00706	0.4066
3165.04269	0.405
3164.07833	0.40319
3163.11396	0.40132
3162.1496	0.39962
3161.18524	0.39809
3160.22087	0.3966
3159.25651	0.39511
3158.29214	0.3936
3157.32778	0.39213
3156.36342	0.39091
3155.39905	0.38974
3154.43469	0.38855
3153.47032	0.38738
3152.50596	0.38657
3151.5416	0.3861
3150.57723	0.38579
3149.61287	0.38551
3148.6485	0.38535
3147.68414	0.38563
3146.71978	0.38657
3145.75541	0.38789
3144.79105	0.38948
3143.82668	0.3914
3142.86232	0.39347
3141.89796	0.39476
3140.93359	0.39475
3139.96923	0.39326
3139.00486	0.3906
3138.0405	0.38743
3137.07614	0.38421
3136.11177	0.38104
3135.14741	0.37811
3134.18304	0.37594
3133.21868	0.37416
3132.25432	0.3719
3131.28995	0.36949
3130.32559	0.36746
3129.36122	0.36585
3128.39686	0.36462
3127.4325	0.36372
3126.46813	0.36252
3125.50377	0.36063
3124.5394	0.35885
3123.57504	0.35787
3122.61068	0.35677
3121.64631	0.35463
3120.68195	0.35233
3119.71758	0.35082
3118.75322	0.34952
3117.78886	0.34795
3116.82449	0.3466
3115.86013	0.34532
3114.89576	0.34351
3113.9314	0.34155
3112.96704	0.33999
3112.00267	0.33855
3111.03831	0.33704
3110.07394	0.33548
3109.10958	0.33407
3108.14522	0.33306
3107.18085	0.3321
3106.21649	0.33085
3105.25212	0.32959
3104.28776	0.32869
3103.3234	0.32819
3102.35903	0.32773
3101.39467	0.32698
3100.4303	0.32588
3099.46594	0.3245
3098.50158	0.3233
3097.53721	0.32269
3096.57285	0.32255
3095.60848	0.32218
3094.64412	0.32147
3093.67976	0.32088
3092.71539	0.32045
3091.75103	0.31998
3090.78666	0.31954
3089.8223	0.31923
3088.85794	0.31897
3087.89357	0.31851
3086.92921	0.31779
3085.96484	0.31703
3085.00048	0.31656
3084.03612	0.31642
3083.07175	0.31645
3082.10739	0.31631
3081.14302	0.31611
3080.17866	0.31626
3079.2143	0.31652
3078.24993	0.31667
3077.28557	0.31678
3076.3212	0.3171
3075.35684	0.31791
3074.39248	0.31921
3073.42811	0.3206
3072.46375	0.32192
3071.49938	0.32328
3070.53502	0.32486
3069.57066	0.32661
3068.60629	0.32852
3067.64193	0.33058
3066.67756	0.33248
3065.7132	0.33421
3064.74884	0.33566
3063.78447	0.33619
3062.82011	0.3359
3061.85574	0.33572
3060.89138	0.33552
3059.92702	0.33478
3058.96265	0.33337
3057.99829	0.33172
3057.03392	0.33004
3056.06956	0.32761
3055.1052	0.32417
3054.14083	0.32033
3053.17647	0.31648
3052.2121	0.31264
3051.24774	0.30885
3050.28338	0.30532
3049.31901	0.30181
3048.35465	0.29781
3047.39028	0.29351
3046.42592	0.2894
3045.46156	0.28558
3044.49719	0.28185
3043.53283	0.27825
3042.56846	0.27481
3041.6041	0.27163
3040.63974	0.26867
3039.67537	0.26583
3038.71101	0.26299
3037.74664	0.26024
3036.78228	0.25782
3035.81792	0.25565
3034.85355	0.25339
3033.88919	0.25107
3032.92482	0.24935
3031.96046	0.24816
3030.99609	0.24617
3030.03173	0.24311
3029.06737	0.24024
3028.103	0.23819
3027.13864	0.23672
3026.17427	0.23528
3025.20991	0.23341
3024.24555	0.23149
3023.28118	0.23002
3022.31682	0.22882
3021.35245	0.22739
3020.38809	0.22579
3019.42373	0.22435
3018.45936	0.22321
3017.495	0.22228
3016.53063	0.22158
3015.56627	0.22084
3014.60191	0.22016
3013.63754	0.22
3012.67318	0.21995
3011.70881	0.21952
3010.74445	0.21902
3009.78009	0.21889
3008.81572	0.21897
3007.85136	0.21936
3006.88699	0.2201
3005.92263	0.2211
3004.95827	0.22225
3003.9939	0.22321
3003.02954	0.2238
3002.06517	0.22416
3001.10081	0.22461
3000.13645	0.2253
2999.17208	0.22647
2998.20772	0.22813
2997.24335	0.23019
2996.27899	0.23273
2995.31463	0.23577
2994.35026	0.23911
2993.3859	0.24257
2992.42153	0.2462
2991.45717	0.24993
2990.49281	0.25363
2989.52844	0.25734
2988.56408	0.26074
2987.59971	0.26328
2986.63535	0.26479
2985.67099	0.26588
2984.70662	0.26714
2983.74226	0.26866
2982.77789	0.27029
2981.81353	0.27213
2980.84917	0.27434
2979.8848	0.27704
2978.92044	0.28022
2977.95607	0.28361
2976.99171	0.28678
2976.02735	0.28972
2975.06298	0.29268
2974.09862	0.29539
2973.13425	0.29744
2972.16989	0.29883
2971.20553	0.30003
2970.24116	0.30127
2969.2768	0.30235
2968.31243	0.30308
2967.34807	0.30334
2966.38371	0.30339
2965.41934	0.30329
2964.45498	0.30313
2963.49061	0.30306
2962.52625	0.30323
2961.56189	0.30391
2960.59752	0.30522
2959.63316	0.30694
2958.66879	0.30869
2957.70443	0.31038
2956.74007	0.31235
2955.7757	0.31478
2954.81134	0.31766
2953.84697	0.32078
2952.88261	0.32429
2951.91825	0.32866
2950.95388	0.33407
2949.98952	0.34024
2949.02515	0.34692
2948.06079	0.35412
2947.09643	0.36199
2946.13206	0.37005
2945.1677	0.37746
2944.20333	0.38331
2943.23897	0.38741
2942.27461	0.38999
2941.31024	0.39138
2940.34588	0.39182
2939.38151	0.3916
2938.41715	0.39107
2937.45279	0.3907
2936.48842	0.39075
2935.52406	0.39117
2934.55969	0.39164
2933.59533	0.39202
2932.63097	0.39229
2931.6666	0.39249
2930.70224	0.39251
2929.73787	0.39207
2928.77351	0.39112
2927.80915	0.38992
2926.84478	0.38878
2925.88042	0.38744
2924.91605	0.38554
2923.95169	0.38315
2922.98733	0.38043
2922.02296	0.37751
2921.0586	0.37431
2920.09423	0.37064
2919.12987	0.36661
2918.16551	0.3624
2917.20114	0.35826
2916.23678	0.35411
2915.27241	0.34969
2914.30805	0.34502
2913.34369	0.34051
2912.37932	0.33648
2911.41496	0.33298
2910.45059	0.32983
2909.48623	0.32705
2908.52187	0.32475
2907.5575	0.32292
2906.59314	0.32139
2905.62877	0.31982
2904.66441	0.31805
2903.70005	0.31624
2902.73568	0.31447
2901.77132	0.31236
2900.80695	0.30973
2899.84259	0.3068
2898.87823	0.30396
2897.91386	0.3013
2896.9495	0.2988
2895.98513	0.29623
2895.02077	0.29372
2894.05641	0.29146
2893.09204	0.28951
2892.12768	0.2877
2891.16331	0.28595
2890.19895	0.28406
2889.23458	0.28207
2888.27022	0.28017
2887.30586	0.27845
2886.34149	0.27662
2885.37713	0.2746
2884.41276	0.27261
2883.4484	0.27093
2882.48404	0.26937
2881.51967	0.26759
2880.55531	0.26567
2879.59094	0.26395
2878.62658	0.26266
2877.66222	0.26161
2876.69785	0.26039
2875.73349	0.25892
2874.76912	0.25729
2873.80476	0.2558
2872.8404	0.2542
2871.87603	0.25221
2870.91167	0.24974
2869.9473	0.24711
2868.98294	0.24461
2868.01858	0.24213
2867.05421	0.23963
2866.08985	0.23714
2865.12548	0.23501
2864.16112	0.23339
2863.19676	0.23204
2862.23239	0.23075
2861.26803	0.22958
2860.30366	0.22866
2859.3393	0.2281
2858.37494	0.22772
2857.41057	0.22723
2856.44621	0.22627
2855.48184	0.22499
2854.51748	0.22357
2853.55312	0.22189
2852.58875	0.21954
2851.62439	0.21654
2850.66002	0.21309
2849.69566	0.20934
2848.7313	0.20523
2847.76693	0.20084
2846.80257	0.19642
2845.8382	0.19233
2844.87384	0.1887
2843.90948	0.18542
2842.94511	0.18235
2841.98075	0.17945
2841.01638	0.17679
2840.05202	0.17458
2839.08766	0.17271
2838.12329	0.17095
2837.15893	0.16919
2836.19456	0.16751
2835.2302	0.16604
2834.26584	0.16472
2833.30147	0.1634
2832.33711	0.16211
2831.37274	0.16098
2830.40838	0.16003
2829.44402	0.15914
2828.47965	0.15815
2827.51529	0.1571
2826.55092	0.15612
2825.58656	0.15541
2824.6222	0.15479
2823.65783	0.15405
2822.69347	0.15322
2821.7291	0.15248
2820.76474	0.15186
2819.80038	0.15136
2818.83601	0.15086
2817.87165	0.15043
2816.90728	0.15017
2815.94292	0.15007
2814.97856	0.15
2814.01419	0.1499
2813.04983	0.14964
2812.08546	0.14912
2811.1211	0.14816
2810.15674	0.14685
2809.19237	0.14534
2808.22801	0.14368
2807.26364	0.14207
2806.29928	0.14056
2805.33492	0.13919
2804.37055	0.1378
2803.40619	0.13648
2802.44182	0.13529
2801.47746	0.13421
2800.5131	0.1332
2799.54873	0.13215
2798.58437	0.13101
2797.62	0.12985
2796.65564	0.12878
2795.69128	0.12789
2794.72691	0.12698
2793.76255	0.12603
2792.79818	0.12511
2791.83382	0.12428
2790.86946	0.12348
2789.90509	0.12267
2788.94073	0.12191
2787.97636	0.12117
2787.012	0.12042
2786.04764	0.11968
2785.08327	0.11888
2784.11891	0.11823
2783.15454	0.11761
2782.19018	0.11697
2781.22582	0.11629
2780.26145	0.11567
2779.29709	0.11508
2778.33272	0.11452
2777.36836	0.11399
2776.404	0.11352
2775.43963	0.11309
2774.47527	0.11262
2773.5109	0.11209
2772.54654	0.11151
2771.58218	0.11098
2770.61781	0.11054
2769.65345	0.11022
2768.68908	0.10985
2767.72472	0.10944
2766.76036	0.1091
2765.79599	0.10878
2764.83163	0.10853
2763.86726	0.10825
2762.9029	0.10786
2761.93854	0.10743
2760.97417	0.10708
2760.00981	0.10689
2759.04544	0.10679
2758.08108	0.10669
2757.11672	0.10649
2756.15235	0.10618
2755.18799	0.1058
2754.22362	0.10555
2753.25926	0.10527
2752.2949	0.10492
2751.33053	0.10466
2750.36617	0.10454
2749.4018	0.1044
2748.43744	0.10408
2747.47307	0.10363
2746.50871	0.10312
2745.54435	0.10271
2744.57998	0.10249
2743.61562	0.1022
2742.65125	0.1018
2741.68689	0.10143
2740.72253	0.10112
2739.75816	0.10083
2738.7938	0.10051
2737.82943	0.10023
2736.86507	0.09997
2735.90071	0.09978
2734.93634	0.09952
2733.97198	0.09915
2733.00761	0.09875
2732.04325	0.09846
2731.07889	0.09833
2730.11452	0.09817
2729.15016	0.09786
2728.18579	0.09747
2727.22143	0.09723
2726.25707	0.09703
2725.2927	0.09683
2724.32834	0.09655
2723.36397	0.09612
2722.39961	0.09574
2721.43525	0.09557
2720.47088	0.09545
2719.50652	0.09519
2718.54215	0.09482
2717.57779	0.09435
2716.61343	0.094
2715.64906	0.09368
2714.6847	0.09325
2713.72033	0.09269
2712.75597	0.09214
2711.79161	0.09167
2710.82724	0.09117
2709.86288	0.09043
2708.89851	0.08951
2707.93415	0.08868
2706.96979	0.08815
2706.00542	0.08774
2705.04106	0.08709
2704.07669	0.08617
2703.11233	0.08527
2702.14797	0.08471
2701.1836	0.08437
2700.21924	0.08379
2699.25487	0.08292
2698.29051	0.08218
2697.32615	0.08174
2696.36178	0.0814
2695.39742	0.0809
2694.43305	0.08009
2693.46869	0.07941
2692.50433	0.07901
2691.53996	0.07866
2690.5756	0.07814
2689.61123	0.07743
2688.64687	0.07685
2687.68251	0.0765
2686.71814	0.07618
2685.75378	0.07571
2684.78941	0.07515
2683.82505	0.07462
2682.86069	0.07431
2681.89632	0.07409
2680.93196	0.07368
2679.96759	0.07303
2679.00323	0.07245
2678.03887	0.0721
2677.0745	0.07188
2676.11014	0.07141
2675.14577	0.07079
2674.18141	0.07026
2673.21705	0.06998
2672.25268	0.06972
2671.28832	0.06935
2670.32395	0.06879
2669.35959	0.06832
2668.39523	0.06801
2667.43086	0.06775
2666.4665	0.06732
2665.50213	0.0667
2664.53777	0.0662
2663.57341	0.06597
2662.60904	0.06575
2661.64468	0.06528
2660.68031	0.0647
2659.71595	0.06423
2658.75159	0.06397
2657.78722	0.06366
2656.82286	0.06322
2655.85849	0.0627
2654.89413	0.0622
2653.92977	0.06189
2652.9654	0.06173
2652.00104	0.0614
2651.03667	0.06082
2650.07231	0.06026
2649.10795	0.05989
2648.14358	0.05958
2647.17922	0.05911
2646.21485	0.05849
2645.25049	0.05787
2644.28613	0.05759
2643.32176	0.05741
2642.3574	0.05698
2641.39303	0.05636
2640.42867	0.0559
2639.46431	0.05561
2638.49994	0.05533
2637.53558	0.0548
2636.57121	0.05409
2635.60685	0.05347
2634.64249	0.05303
2633.67812	0.05268
2632.71376	0.05213
2631.74939	0.05136
2630.78503	0.05062
2629.82067	0.05015
2628.8563	0.04981
2627.89194	0.04934
2626.92757	0.04878
2625.96321	0.04829
2624.99885	0.04788
2624.03448	0.04745
2623.07012	0.04698
2622.10575	0.04642
2621.14139	0.04591
2620.17703	0.04557
2619.21266	0.04527
2618.2483	0.04483
2617.28393	0.04437
2616.31957	0.04405
2615.35521	0.04381
2614.39084	0.04363
2613.42648	0.04337
2612.46211	0.04304
2611.49775	0.04274
2610.53339	0.04263
2609.56902	0.04248
2608.60466	0.04218
2607.64029	0.04185
2606.67593	0.04165
2605.71156	0.04163
2604.7472	0.04157
2603.78284	0.04137
2602.81847	0.04104
2601.85411	0.0408
2600.88974	0.0408
2599.92538	0.04078
2598.96102	0.04058
2597.99665	0.04028
2597.03229	0.04016
2596.06792	0.04029
2595.10356	0.04042
2594.1392	0.04027
2593.17483	0.03997
2592.21047	0.03971
2591.2461	0.03957
2590.28174	0.03942
2589.31738	0.03912
2588.35301	0.03882
2587.38865	0.03871
2586.42428	0.03865
2585.45992	0.03844
2584.49556	0.03808
2583.53119	0.03766
2582.56683	0.03743
2581.60246	0.03738
2580.6381	0.03723
2579.67374	0.03687
2578.70937	0.03649
2577.74501	0.03628
2576.78064	0.03613
2575.81628	0.0359
2574.85192	0.03548
2573.88755	0.03506
2572.92319	0.03478
2571.95882	0.03471
2570.99446	0.03446
2570.0301	0.03411
2569.06573	0.03381
2568.10137	0.03366
2567.137	0.03349
2566.17264	0.03323
2565.20828	0.03283
2564.24391	0.03245
2563.27955	0.03224
2562.31518	0.03209
2561.35082	0.03182
2560.38646	0.0315
2559.42209	0.03123
2558.45773	0.03112
2557.49336	0.03107
2556.529	0.03086
2555.56464	0.03056
2554.60027	0.03035
2553.63591	0.0303
2552.67154	0.03018
2551.70718	0.03
2550.74282	0.02979
2549.77845	0.02956
2548.81409	0.02941
2547.84972	0.02928
2546.88536	0.029
2545.921	0.02867
2544.95663	0.0285
2543.99227	0.02847
2543.0279	0.02845
2542.06354	0.02821
2541.09918	0.02792
2540.13481	0.02771
2539.17045	0.02762
2538.20608	0.02751
2537.24172	0.02727
2536.27736	0.02698
2535.31299	0.02689
2534.34863	0.02693
2533.38426	0.0269
2532.4199	0.02667
2531.45554	0.0264
2530.49117	0.02631
2529.52681	0.02632
2528.56244	0.02624
2527.59808	0.02597
2526.63372	0.02567
2525.66935	0.0255
2524.70499	0.02559
2523.74062	0.02563
2522.77626	0.02546
2521.8119	0.02519
2520.84753	0.0251
2519.88317	0.0252
2518.9188	0.02521
2517.95444	0.025
2516.99008	0.02477
2516.02571	0.02477
2515.06135	0.02499
2514.09698	0.02503
2513.13262	0.02473
2512.16826	0.02437
2511.20389	0.02432
2510.23953	0.02448
2509.27516	0.02442
2508.3108	0.02412
2507.34644	0.02379
2506.38207	0.02374
2505.41771	0.0239
2504.45334	0.02388
2503.48898	0.02361
2502.52462	0.02331
2501.56025	0.02332
2500.59589	0.02345
2499.63152	0.0234
2498.66716	0.0231
2497.7028	0.02286
2496.73843	0.02284
2495.77407	0.0229
2494.8097	0.02279
2493.84534	0.02237
2492.88098	0.02201
2491.91661	0.02199
2490.95225	0.02215
2489.98788	0.02215
2489.02352	0.02183
2488.05916	0.02143
2487.09479	0.02132
2486.13043	0.02138
2485.16606	0.02121
2484.2017	0.02079
2483.23734	0.02041
2482.27297	0.02034
2481.30861	0.02051
2480.34424	0.02046
2479.37988	0.02004
2478.41552	0.01952
2477.45115	0.01944
2476.48679	0.01959
2475.52242	0.01957
2474.55806	0.01918
2473.5937	0.01876
2472.62933	0.01865
2471.66497	0.01875
2470.7006	0.01869
2469.73624	0.01827
2468.77187	0.01785
2467.80751	0.01771
2466.84315	0.01786
2465.87878	0.01784
2464.91442	0.01745
2463.95005	0.01701
2462.98569	0.01692
2462.02133	0.01705
2461.05696	0.01694
2460.0926	0.01654
2459.12823	0.01618
2458.16387	0.01616
2457.19951	0.01632
2456.23514	0.01621
2455.27078	0.01575
2454.30641	0.01537
2453.34205	0.0154
2452.37769	0.01565
2451.41332	0.01566
2450.44896	0.01527
2449.48459	0.01485
2448.52023	0.0148
2447.55587	0.01498
2446.5915	0.01502
2445.62714	0.01464
2444.66277	0.01424
2443.69841	0.01419
2442.73405	0.01438
2441.76968	0.01433
2440.80532	0.01387
2439.84095	0.01345
2438.87659	0.01346
2437.91223	0.01362
2436.94786	0.01344
2435.9835	0.01293
2435.01913	0.01251
2434.05477	0.01253
2433.09041	0.01269
2432.12604	0.01262
2431.16168	0.01218
2430.19731	0.01176
2429.23295	0.01176
2428.26859	0.01192
2427.30422	0.01183
2426.33986	0.01145
2425.37549	0.01112
2424.41113	0.01109
2423.44677	0.01119
2422.4824	0.01104
2421.51804	0.01064
2420.55367	0.01024
2419.58931	0.01025
2418.62495	0.0104
2417.66058	0.01029
2416.69622	0.00987
2415.73185	0.00955
2414.76749	0.00955
2413.80313	0.00971
2412.83876	0.00966
2411.8744	0.0093
2410.91003	0.00903
2409.94567	0.00909
2408.98131	0.00935
2408.01694	0.00933
2407.05258	0.00905
2406.08821	0.00894
2405.12385	0.00907
2404.15949	0.00919
2403.19512	0.00912
2402.23076	0.00882
2401.26639	0.00867
2400.30203	0.0088
2399.33767	0.00902
2398.3733	0.00902
2397.40894	0.00876
2396.44457	0.00859
2395.48021	0.00871
2394.51585	0.00902
2393.55148	0.00905
2392.58712	0.00884
2391.62275	0.00871
2390.65839	0.00877
2389.69403	0.00899
2388.72966	0.00903
2387.7653	0.00888
2386.80093	0.00886
2385.83657	0.0091
2384.87221	0.00936
2383.90784	0.00924
2382.94348	0.00888
2381.97911	0.00859
2381.01475	0.00844
2380.05039	0.00812
2379.08602	0.00736
2378.12166	0.00628
2377.15729	0.00506
2376.19293	0.00397
2375.22857	0.00292
2374.2642	0.00161
2373.29984	0
2372.33547	0
2371.37111	0
2370.40675	0
2369.44238	0
2368.47802	0
2367.51365	0
2366.54929	0
2365.58493	0
2364.62056	0
2363.6562	0
2362.69183	0
2361.72747	0
2360.76311	0
2359.79874	0
2358.83438	0
2357.87001	0
2356.90565	0
2355.94129	0
2354.97692	0
2354.01256	0
2353.04819	0
2352.08383	0
2351.11947	0
2350.1551	0
2349.19074	0
2348.22637	0
2347.26201	0
2346.29765	0
2345.33328	0
2344.36892	0
2343.40455	0
2342.44019	0
2341.47583	0
2340.51146	0
2339.5471	0
2338.58273	0
2337.61837	0
2336.65401	0
2335.68964	0
2334.72528	0
2333.76091	0
2332.79655	0
2331.83219	0
2330.86782	0
2329.90346	0
2328.93909	0
2327.97473	0
2327.01036	0
2326.046	0
2325.08164	7.90563E-4
2324.11727	0.00199
2323.15291	0.00305
2322.18854	0.00373
2321.22418	0.00422
2320.25982	0.00505
2319.29545	0.00613
2318.33109	0.00698
2317.36672	0.00739
2316.40236	0.00763
2315.438	0.00804
2314.47363	0.00862
2313.50927	0.00918
2312.5449	0.00951
2311.58054	0.00983
2310.61618	0.01026
2309.65181	0.01076
2308.68745	0.01109
2307.72308	0.01117
2306.75872	0.01123
2305.79436	0.01154
2304.82999	0.01188
2303.86563	0.01207
2302.90126	0.01198
2301.9369	0.0119
2300.97254	0.01206
2300.00817	0.0124
2299.04381	0.0125
2298.07944	0.01229
2297.11508	0.01212
2296.15072	0.01224
2295.18635	0.01255
2294.22199	0.01262
2293.25762	0.01239
2292.29326	0.01224
2291.3289	0.01255
2290.36453	0.01308
2289.40017	0.01327
2288.4358	0.01303
2287.47144	0.01291
2286.50708	0.01323
2285.54271	0.01375
2284.57835	0.01397
2283.61398	0.01374
2282.64962	0.01353
2281.68526	0.01375
2280.72089	0.01414
2279.75653	0.01428
2278.79216	0.01401
2277.8278	0.01377
2276.86344	0.01402
2275.89907	0.01451
2274.93471	0.01474
2273.97034	0.01449
2273.00598	0.01435
2272.04162	0.01475
2271.07725	0.01543
2270.11289	0.01568
2269.14852	0.01538
2268.18416	0.01517
2267.2198	0.01558
2266.25543	0.01622
2265.29107	0.01647
2264.3267	0.01627
2263.36234	0.01614
2262.39798	0.01658
2261.43361	0.01736
2260.46925	0.01773
2259.50488	0.01752
2258.54052	0.01737
2257.57616	0.01774
2256.61179	0.01833
2255.64743	0.01848
2254.68306	0.01816
2253.7187	0.01801
2252.75434	0.0185
2251.78997	0.01921
2250.82561	0.01943
2249.86124	0.01907
2248.89688	0.0189
2247.93252	0.01936
2246.96815	0.02006
2246.00379	0.02034
2245.03942	0.02005
2244.07506	0.0199
2243.1107	0.02037
2242.14633	0.02107
2241.18197	0.0213
2240.2176	0.02096
2239.25324	0.02075
2238.28888	0.02118
2237.32451	0.0219
2236.36015	0.02215
2235.39578	0.02185
2234.43142	0.02167
2233.46706	0.02222
2232.50269	0.02309
2231.53833	0.02331
2230.57396	0.02291
2229.6096	0.02268
2228.64524	0.02326
2227.68087	0.02415
2226.71651	0.02446
2225.75214	0.02414
2224.78778	0.02401
2223.82342	0.02463
2222.85905	0.02546
2221.89469	0.02568
2220.93032	0.02536
2219.96596	0.02521
2219.0016	0.02577
2218.03723	0.02656
2217.07287	0.02681
2216.1085	0.02642
2215.14414	0.02615
2214.17978	0.02662
2213.21541	0.02739
2212.25105	0.02755
2211.28668	0.02706
2210.32232	0.02683
2209.35796	0.02735
2208.39359	0.02821
2207.42923	0.02848
2206.46486	0.0281
2205.5005	0.02783
2204.53614	0.02836
2203.57177	0.02919
2202.60741	0.02944
2201.64304	0.02898
2200.67868	0.02878
2199.71432	0.02936
2198.74995	0.03023
2197.78559	0.0305
2196.82122	0.03005
2195.85686	0.02978
2194.8925	0.03037
2193.92813	0.03131
2192.96377	0.03157
2191.9994	0.03099
2191.03504	0.03067
2190.07068	0.03125
2189.10631	0.03218
2188.14195	0.03243
2187.17758	0.03201
2186.21322	0.03173
2185.24885	0.03229
2184.28449	0.03309
2183.32013	0.03325
2182.35576	0.03277
2181.3914	0.0325
2180.42703	0.03302
2179.46267	0.03388
2178.49831	0.03413
2177.53394	0.03365
2176.56958	0.03341
2175.60521	0.03397
2174.64085	0.03471
2173.67649	0.03481
2172.71212	0.03435
2171.74776	0.03424
2170.78339	0.03492
2169.81903	0.03586
2168.85467	0.03606
2167.8903	0.03554
2166.92594	0.0353
2165.96157	0.03595
2164.99721	0.03681
2164.03285	0.03693
2163.06848	0.03649
2162.10412	0.03638
2161.13975	0.03698
2160.17539	0.03772
2159.21103	0.0378
2158.24666	0.03716
2157.2823	0.03684
2156.31793	0.03735
2155.35357	0.0381
2154.38921	0.0381
2153.42484	0.03747
2152.46048	0.03714
2151.49611	0.03772
2150.53175	0.03853
2149.56739	0.03865
2148.60302	0.03817
2147.63866	0.03793
2146.67429	0.03852
2145.70993	0.03926
2144.74557	0.03926
2143.7812	0.0386
2142.81684	0.03827
2141.85247	0.03885
2140.88811	0.03968
2139.92375	0.03984
2138.95938	0.03931
2137.99502	0.03916
2137.03065	0.03992
2136.06629	0.04078
2135.10193	0.04064
2134.13756	0.03976
2133.1732	0.03934
2132.20883	0.0398
2131.24447	0.04039
2130.28011	0.04021
2129.31574	0.03945
2128.35138	0.03907
2127.38701	0.0395
2126.42265	0.04
2125.45829	0.03981
2124.49392	0.03916
2123.52956	0.03886
2122.56519	0.03929
2121.60083	0.03975
2120.63647	0.03949
2119.6721	0.03879
2118.70774	0.03861
2117.74337	0.03921
2116.77901	0.03991
2115.81465	0.04007
2114.85028	0.03959
2113.88592	0.03923
2112.92155	0.0395
2111.95719	0.04
2110.99283	0.03989
2110.02846	0.03934
2109.0641	0.03919
2108.09973	0.03973
2107.13537	0.04028
2106.17101	0.04016
2105.20664	0.03968
2104.24228	0.03963
2103.27791	0.04016
2102.31355	0.0407
2101.34919	0.04059
2100.38482	0.04011
2099.42046	0.04006
2098.45609	0.04068
2097.49173	0.04122
2096.52737	0.04111
2095.563	0.04066
2094.59864	0.0407
2093.63427	0.04131
2092.66991	0.04178
2091.70555	0.04194
2090.74118	0.04212
2089.77682	0.04237
2088.81245	0.04253
2087.84809	0.04263
2086.88373	0.04237
2085.91936	0.04183
2084.955	0.04176
2083.99063	0.04238
2083.02627	0.04288
2082.06191	0.04276
2081.09754	0.04243
2080.13318	0.04259
2079.16881	0.0433
2078.20445	0.04364
2077.24009	0.04328
2076.27572	0.04286
2075.31136	0.04311
2074.34699	0.04388
2073.38263	0.04425
2072.41827	0.04393
2071.4539	0.04351
2070.48954	0.04363
2069.52517	0.04416
2068.56081	0.04447
2067.59645	0.04441
2066.63208	0.045
2065.66772	0.04656
2064.70335	0.04741
2063.73899	0.04642
2062.77463	0.04499
2061.81026	0.04448
2060.8459	0.04489
2059.88153	0.04543
2058.91717	0.04545
2057.95281	0.04496
2056.98844	0.04467
2056.02408	0.04498
2055.05971	0.04559
2054.09535	0.04584
2053.13099	0.04548
2052.16662	0.04512
2051.20226	0.04537
2050.23789	0.04599
2049.27353	0.04617
2048.30917	0.04575
2047.3448	0.04546
2046.38044	0.04578
2045.41607	0.04638
2044.45171	0.04664
2043.48734	0.04646
2042.52298	0.04705
2041.55862	0.0483
2040.59425	0.04837
2039.62989	0.0471
2038.66552	0.04591
2037.70116	0.04547
2036.7368	0.04569
2035.77243	0.04612
2034.80807	0.0461
2033.8437	0.04556
2032.87934	0.04522
2031.91498	0.04553
2030.95061	0.04609
2029.98625	0.04612
2029.02188	0.04556
2028.05752	0.04522
2027.09316	0.04557
2026.12879	0.04594
2025.16443	0.04573
2024.20006	0.04532
2023.2357	0.04517
2022.27134	0.04545
2021.30697	0.04579
2020.34261	0.0461
2019.37824	0.04672
2018.41388	0.04815
2017.44952	0.05005
2016.48515	0.0502
2015.52079	0.0479
2014.55642	0.04559
2013.59206	0.0449
2012.6277	0.0454
2011.66333	0.04598
2010.69897	0.04605
2009.7346	0.04578
2008.77024	0.04588
2007.80588	0.04649
2006.84151	0.0468
2005.87715	0.04636
2004.91278	0.04565
2003.94842	0.04557
2002.98406	0.0461
2002.01969	0.04656
2001.05533	0.04633
2000.09096	0.04585
1999.1266	0.04596
1998.16224	0.04652
1997.19787	0.0468
1996.23351	0.0464
1995.26914	0.04586
1994.30478	0.04688
1993.34042	0.05078
1992.37605	0.0547
1991.41169	0.05328
1990.44732	0.04918
1989.48296	0.04816
1988.5186	0.04942
1987.55423	0.04906
1986.58987	0.04704
1985.6255	0.04553
1984.66114	0.04527
1983.69678	0.0458
1982.73241	0.04624
1981.76805	0.04585
1980.80368	0.04507
1979.83932	0.04488
1978.87496	0.04553
1977.91059	0.04619
1976.94623	0.04593
1975.98186	0.04524
1975.0175	0.04512
1974.05314	0.04578
1973.08877	0.04625
1972.12441	0.04593
1971.16004	0.0453
1970.19568	0.04549
1969.23132	0.04746
1968.26695	0.05118
1967.30259	0.05372
1966.33822	0.05193
1965.37386	0.04848
1964.4095	0.04685
1963.44513	0.04659
1962.48077	0.04636
1961.5164	0.04598
1960.55204	0.04574
1959.58768	0.04588
1958.62331	0.04607
1957.65895	0.04569
1956.69458	0.0454
1955.73022	0.04615
1954.76586	0.04698
1953.80149	0.04663
1952.83713	0.0454
1951.87276	0.04446
1950.9084	0.04453
1949.94404	0.04533
1948.97967	0.04584
1948.01531	0.04591
1947.05094	0.04666
1946.08658	0.04813
1945.12222	0.04903
1944.15785	0.05083
1943.19349	0.05489
1942.22912	0.05578
1941.26476	0.05097
1940.3004	0.04701
1939.33603	0.04567
1938.37167	0.04483
1937.4073	0.04407
1936.44294	0.04419
1935.47858	0.04501
1934.51421	0.04573
1933.54985	0.04564
1932.58548	0.04503
1931.62112	0.04479
1930.65676	0.04545
1929.69239	0.04588
1928.72803	0.04541
1927.76366	0.04478
1926.7993	0.04506
1925.83494	0.04624
1924.87057	0.04866
1923.90621	0.05341
1922.94184	0.05738
1921.97748	0.05514
1921.01312	0.05066
1920.04875	0.04953
1919.08439	0.05244
1918.12002	0.05559
1917.15566	0.05366
1916.1913	0.04981
1915.22693	0.04774
1914.26257	0.04661
1913.2982	0.04573
1912.33384	0.04636
1911.36948	0.04932
1910.40511	0.05296
1909.44075	0.05376
1908.47638	0.05213
1907.51202	0.05031
1906.54766	0.04884
1905.58329	0.048
1904.61893	0.04746
1903.65456	0.0468
1902.6902	0.04675
1901.72583	0.04738
1900.76147	0.04742
1899.79711	0.04673
1898.83274	0.04632
1897.86838	0.0471
1896.90401	0.04951
1895.93965	0.05293
1894.97529	0.05389
1894.01092	0.05123
1893.04656	0.04922
1892.08219	0.04988
1891.11783	0.05297
1890.15347	0.05754
1889.1891	0.05823
1888.22474	0.05401
1887.26037	0.051
1886.29601	0.05066
1885.33165	0.051
1884.36728	0.05071
1883.40292	0.04999
1882.43855	0.04979
1881.47419	0.04966
1880.50983	0.04927
1879.54546	0.04914
1878.5811	0.04942
1877.61673	0.04979
1876.65237	0.04966
1875.68801	0.04892
1874.72364	0.04847
1873.75928	0.04909
1872.79491	0.05066
1871.83055	0.05331
1870.86619	0.05807
1869.90182	0.06627
1868.93746	0.07435
1867.97309	0.07414
1867.00873	0.06753
1866.04437	0.0599
1865.08	0.05438
1864.11564	0.05239
1863.15127	0.05282
1862.18691	0.0536
1861.22255	0.05345
1860.25818	0.05317
1859.29382	0.05397
1858.32945	0.05477
1857.36509	0.05402
1856.40073	0.0527
1855.43636	0.05225
1854.472	0.05291
1853.50763	0.05396
1852.54327	0.05443
1851.57891	0.05423
1850.61454	0.05466
1849.65018	0.05744
1848.68581	0.06263
1847.72145	0.06611
1846.75709	0.06633
1845.79272	0.06905
1844.82836	0.07704
1843.86399	0.08043
1842.89963	0.07368
1841.93527	0.06646
1840.9709	0.06216
1840.00654	0.06107
1839.04217	0.06258
1838.07781	0.06563
1837.11345	0.06731
1836.14908	0.06596
1835.18472	0.06488
1834.22035	0.06593
1833.25599	0.06719
1832.29163	0.06863
1831.32726	0.07433
1830.3629	0.08667
1829.39853	0.09213
1828.43417	0.08326
1827.46981	0.07636
1826.50544	0.07804
1825.54108	0.08481
1824.57671	0.08595
1823.61235	0.0817
1822.64799	0.07886
1821.68362	0.07796
1820.71926	0.07809
1819.75489	0.07911
1818.79053	0.08088
1817.82617	0.08318
1816.8618	0.08453
1815.89744	0.08515
1814.93307	0.0865
1813.96871	0.08914
1813.00435	0.09381
1812.03998	0.10062
1811.07562	0.10718
1810.11125	0.10892
1809.14689	0.10804
1808.18253	0.10957
1807.21816	0.11253
1806.2538	0.11546
1805.28943	0.11925
1804.32507	0.12446
1803.36071	0.13263
1802.39634	0.14389
1801.43198	0.15355
1800.46761	0.16097
1799.50325	0.16718
1798.53889	0.17048
1797.57452	0.17652
1796.61016	0.18886
1795.64579	0.20058
1794.68143	0.20735
1793.71707	0.2181
1792.7527	0.23984
1791.78834	0.25917
1790.82397	0.26542
1789.85961	0.26903
1788.89525	0.2775
1787.93088	0.29288
1786.96652	0.31324
1786.00215	0.33887
1785.03779	0.37163
1784.07343	0.40523
1783.10906	0.437
1782.1447	0.47529
1781.18033	0.5286
1780.21597	0.59318
1779.25161	0.65468
1778.28724	0.71634
1777.32288	0.78335
1776.35851	0.85739
1775.39415	0.93046
1774.42979	0.97814
1773.46542	1
1772.50106	0.98687
1771.53669	0.91006
1770.57233	0.82564
1769.60797	0.76148
1768.6436	0.69389
1767.67924	0.61376
1766.71487	0.55241
1765.75051	0.51004
1764.78615	0.47652
1763.82178	0.45368
1762.85742	0.44083
1761.89305	0.4259
1760.92869	0.40261
1759.96432	0.38479
1758.99996	0.37571
1758.0356	0.37313
1757.07123	0.37144
1756.10687	0.36531
1755.1425	0.36119
1754.17814	0.36667
1753.21378	0.38272
1752.24941	0.41201
1751.28505	0.46197
1750.32068	0.50459
1749.35632	0.51951
1748.39196	0.51262
1747.42759	0.48957
1746.46323	0.46956
1745.49886	0.46308
1744.5345	0.46633
1743.57014	0.46346
1742.60577	0.44545
1741.64141	0.43196
1740.67704	0.43692
1739.71268	0.46064
1738.74832	0.48105
1737.78395	0.49341
1736.81959	0.50516
1735.85522	0.51662
1734.89086	0.52716
1733.9265	0.50563
1732.96213	0.45041
1731.99777	0.41419
1731.0334	0.38913
1730.06904	0.36021
1729.10468	0.32654
1728.14031	0.30033
1727.17595	0.28135
1726.21158	0.26683
1725.24722	0.25744
1724.28286	0.25213
1723.31849	0.24532
1722.35413	0.23539
1721.38976	0.2274
1720.4254	0.2255
1719.46104	0.23208
1718.49667	0.24806
1717.53231	0.25182
1716.56794	0.23912
1715.60358	0.23244
1714.63922	0.22359
1713.67485	0.20718
1712.71049	0.19313
1711.74612	0.18688
1710.78176	0.18683
1709.8174	0.18591
1708.85303	0.18293
1707.88867	0.18492
1706.9243	0.19397
1705.95994	0.20178
1704.99558	0.20146
1704.03121	0.19623
1703.06685	0.19223
1702.10248	0.19403
1701.13812	0.20492
1700.17376	0.223
1699.20939	0.21902
1698.24503	0.215
1697.28066	0.21886
1696.3163	0.22698
1695.35194	0.22042
1694.38757	0.20683
1693.42321	0.19948
1692.45884	0.19854
1691.49448	0.20398
1690.53012	0.21375
1689.56575	0.2232
1688.60139	0.22881
1687.63702	0.23177
1686.67266	0.23669
1685.7083	0.25024
1684.74393	0.28527
1683.77957	0.30722
1682.8152	0.29101
1681.85084	0.2882
1680.88648	0.29913
1679.92211	0.30879
1678.95775	0.30351
1677.99338	0.29446
1677.02902	0.29103
1676.06466	0.2932
1675.10029	0.29048
1674.13593	0.28027
1673.17156	0.27745
1672.2072	0.28447
1671.24284	0.29571
1670.27847	0.3061
1669.31411	0.31821
1668.34974	0.32114
1667.38538	0.31836
1666.42102	0.32349
1665.45665	0.33892
1664.49229	0.36279
1663.52792	0.40303
1662.56356	0.46824
1661.5992	0.5288
1660.63483	0.58232
1659.67047	0.64864
1658.7061	0.72402
1657.74174	0.79193
1656.77738	0.83476
1655.81301	0.85041
1654.84865	0.85097
1653.88428	0.82513
1652.91992	0.64353
1651.95556	0.52558
1650.99119	0.48135
1650.02683	0.44969
1649.06246	0.42853
1648.0981	0.41792
1647.13374	0.40446
1646.16937	0.37149
1645.20501	0.33831
1644.24064	0.32094
1643.27628	0.31336
1642.31192	0.30984
1641.34755	0.30785
1640.38319	0.3077
1639.41882	0.3114
1638.45446	0.32155
1637.4901	0.33783
1636.52573	0.35531
1635.56137	0.37093
1634.597	0.37265
1633.63264	0.37208
1632.66828	0.38171
1631.70391	0.40351
1630.73955	0.43663
1629.77518	0.47841
1628.81082	0.53085
1627.84646	0.59518
1626.88209	0.64168
1625.91773	0.65982
1624.95336	0.66513
1623.989	0.64932
1623.02464	0.58642
1622.06027	0.51466
1621.09591	0.45741
1620.13154	0.40823
1619.16718	0.37166
1618.20281	0.35013
1617.23845	0.33163
1616.27409	0.29388
1615.30972	0.26145
1614.34536	0.24111
1613.38099	0.22475
1612.41663	0.21093
1611.45227	0.2009
1610.4879	0.19595
1609.52354	0.19219
1608.55917	0.18591
1607.59481	0.17899
1606.63045	0.17203
1605.66608	0.16571
1604.70172	0.16268
1603.73735	0.16172
1602.77299	0.15909
1601.80863	0.15536
1600.84426	0.1526
1599.8799	0.1507
1598.91553	0.14916
1597.95117	0.14906
1596.98681	0.15168
1596.02244	0.15707
1595.05808	0.16345
1594.09371	0.16806
1593.12935	0.172
1592.16499	0.17925
1591.20062	0.18964
1590.23626	0.19811
1589.27189	0.19991
1588.30753	0.1946
1587.34317	0.18588
1586.3788	0.17714
1585.41444	0.16933
1584.45007	0.16298
1583.48571	0.15895
1582.52135	0.15817
1581.55698	0.16031
1580.59262	0.16419
1579.62825	0.16965
1578.66389	0.17877
1577.69953	0.19396
1576.73516	0.21864
1575.7708	0.23816
1574.80643	0.23781
1573.84207	0.24007
1572.87771	0.25183
1571.91334	0.27034
1570.94898	0.2939
1569.98461	0.32921
1569.02025	0.35843
1568.05589	0.36121
1567.09152	0.3625
1566.12716	0.36924
1565.16279	0.37481
1564.19843	0.37072
1563.23407	0.3634
1562.2697	0.36187
1561.30534	0.36735
1560.34097	0.38383
1559.37661	0.41865
1558.41225	0.39298
1557.44788	0.342
1556.48352	0.32133
1555.51915	0.31371
1554.55479	0.30671
1553.59043	0.29198
1552.62606	0.28109
1551.6617	0.28092
1550.69733	0.29183
1549.73297	0.30191
1548.76861	0.29788
1547.80424	0.29205
1546.83988	0.29209
1545.87551	0.29786
1544.91115	0.30274
1543.94679	0.3009
1542.98242	0.29985
1542.01806	0.30235
1541.05369	0.30713
1540.08933	0.31457
1539.12497	0.29143
1538.1606	0.25661
1537.19624	0.2391
1536.23187	0.23214
1535.26751	0.23377
1534.30315	0.24337
1533.33878	0.24934
1532.37442	0.23865
1531.41005	0.22445
1530.44569	0.21572
1529.48133	0.21684
1528.51696	0.22606
1527.5526	0.2326
1526.58823	0.23334
1525.62387	0.23411
1524.65951	0.2327
1523.69514	0.23304
1522.73078	0.24322
1521.76641	0.26027
1520.80205	0.2513
1519.83769	0.22831
1518.87332	0.2199
1517.90896	0.22648
1516.94459	0.23608
1515.98023	0.22569
1515.01587	0.21088
1514.0515	0.20311
1513.08714	0.20248
1512.12277	0.20447
1511.15841	0.20673
1510.19405	0.21514
1509.22968	0.23235
1508.26532	0.25478
1507.30095	0.27813
1506.33659	0.26497
1505.37223	0.22535
1504.40786	0.20469
1503.4435	0.19568
1502.47913	0.19353
1501.51477	0.19475
1500.55041	0.198
1499.58604	0.20525
1498.62168	0.21256
1497.65731	0.21495
1496.69295	0.21797
1495.72859	0.21649
1494.76422	0.20875
1493.79986	0.2038
1492.83549	0.20467
1491.87113	0.21402
1490.90677	0.23597
1489.9424	0.2578
1488.97804	0.25604
1488.01367	0.25071
1487.04931	0.25193
1486.08495	0.25359
1485.12058	0.25561
1484.15622	0.26101
1483.19185	0.2699
1482.22749	0.2816
1481.26312	0.29099
1480.29876	0.29075
1479.3344	0.28457
1478.37003	0.2804
1477.40567	0.28276
1476.4413	0.29035
1475.47694	0.2946
1474.51258	0.29871
1473.54821	0.3119
1472.58385	0.32579
1471.61948	0.31856
1470.65512	0.30686
1469.69076	0.30207
1468.72639	0.30348
1467.76203	0.30915
1466.79766	0.31808
1465.8333	0.33032
1464.86894	0.33977
1463.90457	0.33683
1462.94021	0.33328
1461.97584	0.33584
1461.01148	0.34261
1460.04712	0.35331
1459.08275	0.36966
1458.11839	0.38725
1457.15402	0.3887
1456.18966	0.36854
1455.2253	0.34598
1454.26093	0.32853
1453.29657	0.32017
1452.3322	0.31903
1451.36784	0.31719
1450.40348	0.31342
1449.43911	0.31389
1448.47475	0.3203
1447.51038	0.32369
1446.54602	0.31904
1445.58166	0.31358
1444.61729	0.31073
1443.65293	0.31086
1442.68856	0.31331
1441.7242	0.31515
1440.75984	0.31435
1439.79547	0.31295
1438.83111	0.31492
1437.86674	0.32266
1436.90238	0.33186
1435.93802	0.32387
1434.97365	0.3101
1434.00929	0.3033
1433.04492	0.30091
1432.08056	0.29836
1431.1162	0.29661
1430.15183	0.29574
1429.18747	0.29183
1428.2231	0.28637
1427.25874	0.28166
1426.29438	0.27849
1425.33001	0.28035
1424.36565	0.28773
1423.40128	0.28969
1422.43692	0.28389
1421.47256	0.28159
1420.50819	0.2879
1419.54383	0.30382
1418.57946	0.31367
1417.6151	0.30969
1416.65074	0.30167
1415.68637	0.29384
1414.72201	0.29026
1413.75764	0.29179
1412.79328	0.29521
1411.82892	0.29623
1410.86455	0.29372
1409.90019	0.29001
1408.93582	0.28617
1407.97146	0.28174
1407.0071	0.27877
1406.04273	0.28107
1405.07837	0.2871
1404.114	0.28867
1403.14964	0.28749
1402.18528	0.29019
1401.22091	0.29899
1400.25655	0.31513
1399.29218	0.33643
1398.32782	0.34817
1397.36346	0.3491
1396.39909	0.35373
1395.43473	0.36636
1394.47036	0.3756
1393.506	0.37302
1392.54164	0.36896
1391.57727	0.36845
1390.61291	0.3695
1389.64854	0.37043
1388.68418	0.37327
1387.71982	0.37806
1386.75545	0.37768
1385.79109	0.37258
1384.82672	0.36885
1383.86236	0.36564
1382.898	0.36115
1381.93363	0.35784
1380.96927	0.35892
1380.0049	0.36358
1379.04054	0.36765
1378.07618	0.36793
1377.11181	0.36649
1376.14745	0.36851
1375.18308	0.37439
1374.21872	0.37553
1373.25436	0.36809
1372.28999	0.36195
1371.32563	0.36082
1370.36126	0.36056
1369.3969	0.35598
1368.43254	0.34422
1367.46817	0.33007
1366.50381	0.31999
1365.53944	0.31354
1364.57508	0.31025
1363.61072	0.30949
1362.64635	0.30492
1361.68199	0.29479
1360.71762	0.28359
1359.75326	0.273
1358.7889	0.2653
1357.82453	0.26113
1356.86017	0.26
1355.8958	0.26026
1354.93144	0.25859
1353.96708	0.25392
1353.00271	0.25065
1352.03835	0.25084
1351.07398	0.25192
1350.10962	0.25162
1349.14526	0.25021
1348.18089	0.24983
1347.21653	0.25176
1346.25216	0.25387
1345.2878	0.25391
1344.32344	0.25323
1343.35907	0.25455
1342.39471	0.259
1341.43034	0.2668
1340.46598	0.27557
1339.50161	0.27833
1338.53725	0.2742
1337.57289	0.27008
1336.60852	0.26657
1335.64416	0.26119
1334.67979	0.25643
1333.71543	0.25559
1332.75107	0.25737
1331.7867	0.25832
1330.82234	0.25751
1329.85797	0.25713
1328.89361	0.25972
1327.92925	0.26512
1326.96488	0.27083
1326.00052	0.27602
1325.03615	0.28345
1324.07179	0.29555
1323.10743	0.31068
1322.14306	0.32527
1321.1787	0.33799
1320.21433	0.34966
1319.24997	0.35837
1318.28561	0.35963
1317.32124	0.35152
1316.35688	0.33624
1315.39251	0.31987
1314.42815	0.30744
1313.46379	0.29784
1312.49942	0.28629
1311.53506	0.27246
1310.57069	0.26147
1309.60633	0.25649
1308.64197	0.25492
1307.6776	0.25167
1306.71324	0.24594
1305.74887	0.24148
1304.78451	0.24058
1303.82015	0.24113
1302.85578	0.23936
1301.89142	0.23475
1300.92705	0.23058
1299.96269	0.22941
1298.99833	0.22957
1298.03396	0.22779
1297.0696	0.22364
1296.10523	0.21991
1295.14087	0.21922
1294.17651	0.22002
1293.21214	0.21868
1292.24778	0.21482
1291.28341	0.21213
1290.31905	0.21262
1289.35469	0.21434
1288.39032	0.21414
1287.42596	0.21133
1286.46159	0.20966
1285.49723	0.21272
1284.53287	0.2186
1283.5685	0.22315
1282.60414	0.22632
1281.63977	0.23184
1280.67541	0.24096
1279.71105	0.24985
1278.74668	0.25392
1277.78232	0.25319
1276.81795	0.25157
1275.85359	0.25152
1274.88923	0.25123
1273.92486	0.2481
1272.9605	0.24347
1271.99613	0.24107
1271.03177	0.24225
1270.06741	0.24472
1269.10304	0.24579
1268.13868	0.24657
1267.17431	0.25118
1266.20995	0.2608
1265.24559	0.27106
1264.28122	0.27735
1263.31686	0.2798
1262.35249	0.28216
1261.38813	0.28575
1260.42377	0.28678
1259.4594	0.2814
1258.49504	0.27256
1257.53067	0.26612
1256.56631	0.26376
1255.60195	0.26228
1254.63758	0.25834
1253.67322	0.25328
1252.70885	0.25094
1251.74449	0.25233
1250.78013	0.25365
1249.81576	0.25141
1248.8514	0.24708
1247.88703	0.24505
1246.92267	0.24654
1245.95831	0.24808
1244.99394	0.24645
1244.02958	0.24294
1243.06521	0.24155
1242.10085	0.24344
1241.13649	0.24504
1240.17212	0.24326
1239.20776	0.2402
1238.24339	0.24033
1237.27903	0.24436
1236.31467	0.24842
1235.3503	0.24962
1234.38594	0.25003
1233.42157	0.25384
1232.45721	0.26178
1231.49285	0.27048
1230.52848	0.2775
1229.56412	0.28521
1228.59975	0.29803
1227.63539	0.31605
1226.67103	0.33432
1225.70666	0.34812
1224.7423	0.35662
1223.77793	0.36116
1222.81357	0.36124
1221.84921	0.35407
1220.88484	0.33942
1219.92048	0.32245
1218.95611	0.30917
1217.99175	0.30048
1217.02739	0.29277
1216.06302	0.28374
1215.09866	0.27587
1214.13429	0.27282
1213.16993	0.27404
1212.20557	0.27476
1211.2412	0.2723
1210.27684	0.26961
1209.31247	0.27051
1208.34811	0.27414
1207.38375	0.27592
1206.41938	0.27368
1205.45502	0.27064
1204.49065	0.27078
1203.52629	0.27362
1202.56193	0.27498
1201.59756	0.27323
1200.6332	0.27156
1199.66883	0.27365
1198.70447	0.27853
1197.7401	0.28228
1196.77574	0.28375
1195.81138	0.28638
1194.84701	0.29336
1193.88265	0.30327
1192.91828	0.31158
1191.95392	0.31668
1190.98956	0.32202
1190.02519	0.33149
1189.06083	0.34422
1188.09646	0.35628
1187.1321	0.36597
1186.16774	0.3755
1185.20337	0.38824
1184.23901	0.40379
1183.27464	0.41811
1182.31028	0.42853
1181.34592	0.43639
1180.38155	0.44389
1179.41719	0.45026
1178.45282	0.45319
1177.48846	0.45257
1176.5241	0.45161
1175.55973	0.45326
1174.59537	0.45671
1173.631	0.45886
1172.66664	0.46021
1171.70228	0.46491
1170.73791	0.47551
1169.77355	0.49012
1168.80918	0.50538
1167.84482	0.51999
1166.88046	0.5351
1165.91609	0.55
1164.95173	0.56041
1163.98736	0.56258
1163.023	0.55812
1162.05864	0.55302
1161.09427	0.55155
1160.12991	0.55321
1159.16554	0.55547
1158.20118	0.55806
1157.23682	0.56307
1156.27245	0.57038
1155.30809	0.57617
1154.34372	0.57699
1153.37936	0.5748
1152.415	0.57591
1151.45063	0.58374
1150.48627	0.59309
1149.5219	0.59281
1148.55754	0.57615
1147.59318	0.54759
1146.62881	0.51718
1145.66445	0.49072
1144.70008	0.46856
1143.73572	0.451
1142.77136	0.44037
1141.80699	0.43744
1140.84263	0.43927
1139.87826	0.443
1138.9139	0.44973
1137.94954	0.46307
1136.98517	0.48444
1136.02081	0.51203
1135.05644	0.54377
1134.09208	0.57984
1133.12772	0.62038
1132.16335	0.66107
1131.19899	0.69309
1130.23462	0.70832
1129.27026	0.70519
1128.3059	0.68859
1127.34153	0.66433
1126.37717	0.63565
1125.4128	0.60472
1124.44844	0.57541
1123.48408	0.55168
1122.51971	0.53453
1121.55535	0.52162
1120.59098	0.51058
1119.62662	0.50244
1118.66226	0.50006
1117.69789	0.5039
1116.73353	0.51104
1115.76916	0.51895
1114.8048	0.52768
1113.84044	0.53755
1112.87607	0.54595
1111.91171	0.5483
1110.94734	0.54254
1109.98298	0.53148
1109.01862	0.5202
1108.05425	0.5109
1107.08989	0.50218
1106.12552	0.49295
1105.16116	0.48499
1104.1968	0.48038
1103.23243	0.47841
1102.26807	0.47587
1101.3037	0.47095
1100.33934	0.46564
1099.37498	0.46262
1098.41061	0.46138
1097.44625	0.45914
1096.48188	0.4551
1095.51752	0.45195
1094.55316	0.45255
1093.58879	0.45606
1092.62443	0.45917
1091.66006	0.46095
1090.6957	0.46373
1089.73134	0.46943
1088.76697	0.47656
1087.80261	0.48218
1086.83824	0.486
1085.87388	0.49075
1084.90952	0.49792
1083.94515	0.50535
1082.98079	0.51002
1082.01642	0.5118
1081.05206	0.51348
1080.0877	0.51653
1079.12333	0.51831
1078.15897	0.51578
1077.1946	0.50946
1076.23024	0.50269
1075.26588	0.49698
1074.30151	0.49042
1073.33715	0.48076
1072.37278	0.46985
1071.40842	0.46274
1070.44406	0.462
1069.47969	0.46513
1068.51533	0.46926
1067.55096	0.47497
1066.5866	0.48478
1065.62224	0.49857
1064.65787	0.51279
1063.69351	0.52424
1062.72914	0.53424
1061.76478	0.54629
1060.80042	0.56088
1059.83605	0.57486
1058.87169	0.58592
1057.90732	0.59573
1056.94296	0.608
1055.97859	0.62328
1055.01423	0.63812
1054.04987	0.6503
1053.0855	0.66252
1052.12114	0.67908
1051.15677	0.7003
1050.19241	0.72298
1049.22805	0.74541
1048.26368	0.76901
1047.29932	0.79412
1046.33495	0.81547
1045.37059	0.82613
1044.40623	0.82695
1043.44186	0.82782
1042.4775	0.83894
1041.51313	0.86321
1040.54877	0.89616
1039.58441	0.93065
1038.62004	0.96051
1037.65568	0.98171
1036.69131	0.9912
1035.72695	0.98814
1034.76259	0.97565
1033.79822	0.95972
1032.83386	0.94443
1031.86949	0.9284
1030.90513	0.90722
1029.94077	0.87951
1028.9764	0.85002
1028.01204	0.82487
1027.04767	0.80525
1026.08331	0.78738
1025.11895	0.76838
1024.15458	0.75028
1023.19022	0.73654
1022.22585	0.72651
1021.26149	0.71555
1020.29713	0.70125
1019.33276	0.68721
1018.3684	0.67767
1017.40403	0.67199
1016.43967	0.66549
1015.47531	0.65604
1014.51094	0.64709
1013.54658	0.64251
1012.58221	0.64087
1011.61785	0.63663
1010.65349	0.62703
1009.68912	0.61575
1008.72476	0.60782
1007.76039	0.60294
1006.79603	0.59641
1005.83167	0.58683
1004.8673	0.57882
1003.90294	0.57722
1002.93857	0.58027
1001.97421	0.58214
1001.00985	0.58124
1000.04548	0.58229
999.08112	0.58954
998.11675	0.60096
997.15239	0.61133
996.18803	0.61964
995.22366	0.63134
994.2593	0.65137
993.29493	0.67788
992.33057	0.70443
991.36621	0.72775
990.40184	0.74869
989.43748	0.7661
988.47311	0.7737
987.50875	0.76467
986.54439	0.73952
985.58002	0.70661
984.61566	0.67395
983.65129	0.64242
982.68693	0.60835
981.72257	0.5717
980.7582	0.53819
979.79384	0.51194
978.82947	0.49014
977.86511	0.46667
976.90075	0.44044
975.93638	0.41695
974.97202	0.40058
974.00765	0.38828
973.04329	0.37342
972.07893	0.35517
971.11456	0.33945
970.1502	0.33062
969.18583	0.3257
968.22147	0.31886
967.25711	0.31002
966.29274	0.30526
965.32838	0.30731
964.36401	0.30927
963.39965	0.30167
962.43529	0.28438
961.47092	0.26628
960.50656	0.25409
959.54219	0.24549
958.57783	0.23471
957.61347	0.22201
956.6491	0.21365
955.68474	0.21235
954.72037	0.21219
953.75601	0.20581
952.79165	0.19477
951.82728	0.18782
950.86292	0.18987
949.89855	0.19662
948.93419	0.20162
947.96983	0.20565
947.00546	0.21497
946.0411	0.2312
945.07673	0.24696
944.11237	0.2538
943.14801	0.25165
942.18364	0.24741
941.21928	0.24505
940.25491	0.24104
939.29055	0.23092
938.32619	0.21733
937.36182	0.20804
936.39746	0.20625
935.43309	0.20651
934.46873	0.20242
933.50437	0.19531
932.54	0.19209
931.57564	0.19487
930.61127	0.1979
929.64691	0.19573
928.68255	0.1906
927.71818	0.18909
926.75382	0.192
925.78945	0.19234
924.82509	0.18466
923.86073	0.17265
922.89636	0.16384
921.932	0.15987
920.96763	0.15514
920.00327	0.14538
919.03891	0.13386
918.07454	0.127
917.11018	0.12549
916.14581	0.12315
915.18145	0.11547
914.21708	0.10596
913.25272	0.10127
912.28836	0.10176
911.32399	0.10098
910.35963	0.09451
909.39526	0.08613
908.4309	0.08212
907.46654	0.08238
906.50217	0.08045
905.53781	0.07258
904.57344	0.06316
903.60908	0.05864
902.64472	0.05884
901.68035	0.05772
900.71599	0.05195
899.75162	0.04554
898.78726	0.0442
897.8229	0.04691
896.85853	0.04708
895.89417	0.0418
894.9298	0.03609
893.96544	0.03561
893.00108	0.03895
892.03671	0.03981
891.07235	0.03596
890.10798	0.03208
889.14362	0.03288
888.17926	0.03643
887.21489	0.03701
886.25053	0.03344
885.28616	0.03089
884.3218	0.03392
883.35744	0.04005
882.39307	0.04356
881.42871	0.04317
880.46434	0.04279
879.49998	0.04524
878.53562	0.04808
877.57125	0.04696
876.60689	0.04246
875.64252	0.03992
874.67816	0.0427
873.7138	0.04745
872.74943	0.04926
871.78507	0.04843
870.8207	0.04992
869.85634	0.05635
868.89198	0.06434
867.92761	0.06906
866.96325	0.07115
865.99888	0.07555
865.03452	0.08445
864.07016	0.09465
863.10579	0.10249
862.14143	0.10986
861.17706	0.12151
860.2127	0.13724
859.24834	0.15022
858.28397	0.15307
857.31961	0.14545
856.35524	0.13377
855.39088	0.12325
854.42652	0.11348
853.46215	0.1024
852.49779	0.09187
851.53342	0.08568
850.56906	0.0839
849.6047	0.08213
848.64033	0.0775
847.67597	0.0725
846.7116	0.07119
845.74724	0.07318
844.78288	0.07393
843.81851	0.07064
842.85415	0.06567
841.88978	0.06268
840.92542	0.0616
839.96106	0.05886
838.99669	0.05277
838.03233	0.04649
837.06796	0.04359
836.1036	0.04289
835.13924	0.04038
834.17487	0.03487
833.21051	0.03005
832.24614	0.02931
831.28178	0.03065
830.31742	0.0297
829.35305	0.02642
828.38869	0.0248
827.42432	0.02683
826.45996	0.02995
825.4956	0.0305
824.53123	0.02878
823.56687	0.02884
822.6025	0.0323
821.63814	0.03606
820.67378	0.0367
819.70941	0.03553
818.74505	0.03707
817.78068	0.04251
816.81632	0.04767
815.85196	0.04925
814.88759	0.04909
813.92323	0.05163
812.95886	0.0575
811.9945	0.06254
811.03014	0.06392
810.06577	0.0645
809.10141	0.06884
808.13704	0.07696
807.17268	0.0847
806.20832	0.0892
805.24395	0.09236
804.27959	0.09679
803.31522	0.10061
802.35086	0.09972
801.3865	0.09384
800.42213	0.08805
799.45777	0.08689
798.4934	0.08862
797.52904	0.08815
796.56468	0.08422
795.60031	0.08102
794.63595	0.0825
793.67158	0.08642
792.70722	0.08699
791.74286	0.08321
790.77849	0.08009
789.81413	0.08129
788.84976	0.08385
787.8854	0.0824
786.92104	0.07702
785.95667	0.07326
784.99231	0.0745
784.02794	0.07748
783.06358	0.0771
782.09922	0.0742
781.13485	0.07502
780.17049	0.08316
779.20612	0.0942
778.24176	0.10209
777.2774	0.108
776.31303	0.1186
775.34867	0.1359
774.3843	0.15288
773.41994	0.16081
772.45557	0.15921
771.49121	0.15458
770.52685	0.1515
769.56248	0.14821
768.59812	0.14116
767.63375	0.13307
766.66939	0.13069
765.70503	0.13496
764.74066	0.13894
763.7763	0.13717
762.81193	0.13312
761.84757	0.13409
760.88321	0.14135
759.91884	0.14907
758.95448	0.15265
757.99011	0.1551
757.02575	0.16209
756.06139	0.17303
755.09702	0.17963
754.13266	0.17479
753.16829	0.16203
752.20393	0.15124
751.23957	0.14595
750.2752	0.14065
749.31084	0.13144
748.34647	0.12307
747.38211	0.12215
746.41775	0.12664
745.45338	0.12749
744.48902	0.1207
743.52465	0.11256
742.56029	0.11075
741.59593	0.1134
740.63156	0.1118
739.6672	0.1034
738.70283	0.09597
737.73847	0.09712
736.77411	0.10426
735.80974	0.10921
734.84538	0.11005
733.88101	0.1129
732.91665	0.12147
731.95229	0.1299
730.98792	0.12934
730.02356	0.11987
729.05919	0.11119
728.09483	0.11032
727.13047	0.11321
726.1661	0.11141
725.20174	0.10428
724.23737	0.09967
723.27301	0.10286
722.30865	0.10906
721.34428	0.11021
720.37992	0.10673
719.41555	0.10758
718.45119	0.11693
717.48683	0.12779
716.52246	0.13143
715.5581	0.12886
714.59373	0.12926
713.62937	0.13673
712.66501	0.14466
711.70064	0.14508
710.73628	0.14041
709.77191	0.14037
708.80755	0.14797
707.84319	0.155
706.87882	0.15376
705.91446	0.14795
704.95009	0.147
703.98573	0.15332
703.02137	0.15936
702.057	0.1578
701.09264	0.15165
700.12827	0.14997
699.16391	0.15458
698.19955	0.15691
697.23518	0.14985
696.27082	0.13862
695.30645	0.13422
694.34209	0.13808
693.37773	0.14051
692.41336	0.13466
691.449	0.12607
690.48463	0.1246
689.52027	0.13052
688.55591	0.13393
687.59154	0.12789
686.62718	0.1193
685.66281	0.11889
684.69845	0.12555
683.73409	0.12855
682.76972	0.1228
681.80536	0.1154
680.84099	0.11584
679.87663	0.12259
678.91227	0.12569
677.9479	0.12096
676.98354	0.1159
676.01917	0.11881
675.05481	0.12671
674.09045	0.12959
673.12608	0.12466
672.16172	0.1203
671.19735	0.12382
670.23299	0.13184
669.26863	0.13713
668.30426	0.13509
667.3399	0.13668
666.37553	0.14629
665.41117	0.15586
664.44681	0.15863
663.48244	0.15157
662.51808	0.14324
661.55371	0.14193
660.58935	0.14338
659.62499	0.13811
658.66062	0.12605
657.69626	0.11737
656.73189	0.11852
655.76753	0.12307
654.80317	0.12091
653.8388	0.11256
652.87444	0.10815
651.91007	0.11269
650.94571	0.11853
649.98135	0.11624
649.01698	0.10829
648.05262	0.10524
647.08825	0.11035
646.12389	0.1156
645.15953	0.11354
644.19516	0.10685
643.2308	0.10461
642.26643	0.10984
641.30207	0.11494
640.33771	0.11245
639.37334	0.10568
638.40898	0.10464
637.44461	0.11172
636.48025	0.11837
635.51589	0.11709
634.55152	0.11284
633.58716	0.11592
632.62279	0.12533
631.65843	0.13071
630.69406	0.12729
629.7297	0.1211
628.76534	0.12071
627.80097	0.12587
626.83661	0.12836
625.87224	0.12443
624.90788	0.1194
623.94352	0.12051
622.97915	0.12647
622.01479	0.12923
621.05042	0.12581
620.08606	0.12239
619.1217	0.12524
618.15733	0.13248
617.19297	0.13688
616.2286	0.13559
615.26424	0.13477
614.29988	0.14051
613.33551	0.14981
612.37115	0.15385
611.40678	0.15134
610.44242	0.15033
609.47806	0.15607
608.51369	0.16386
607.54933	0.16564
606.58496	0.16192
605.6206	0.16121
604.65624	0.16753
603.69187	0.17549
602.72751	0.1782
601.76314	0.17669
600.79878	0.17696
599.83442	0.17969
598.87005	0.17962
597.90569	0.17474
596.94132	0.1688
595.97696	0.16727
595.0126	0.17074
594.04823	0.17413
593.08387	0.17504
592.1195	0.1756
591.15514	0.17775
590.19078	0.18185
589.22641	0.18571
588.26205	0.1868
587.29768	0.1874
586.33332	0.19213
585.36896	0.20006
584.40459	0.20489
583.44023	0.20434
582.47586	0.20436
581.5115	0.20894
580.54714	0.21292
579.58277	0.20954
578.61841	0.20159
577.65404	0.19628
576.68968	0.19591
575.72532	0.19471
574.76095	0.18808
573.79659	0.18022
572.83222	0.17576
571.86786	0.17485
570.9035	0.17438
569.93913	0.17133
568.97477	0.16599
568.0104	0.16213
567.04604	0.16084
566.08168	0.15785
565.11731	0.15112
564.15295	0.14435
563.18858	0.1413
562.22422	0.14078
561.25986	0.13876
560.29549	0.13379
559.33113	0.12891
558.36676	0.12756
557.4024	0.12853
556.43804	0.12737
555.47367	0.1238
554.50931	0.12215
553.54494	0.12439
552.58058	0.12745
551.61622	0.12836
550.65185	0.12875
549.68749	0.13242
548.72312	0.1396
547.75876	0.14574
546.7944	0.14682
545.83003	0.14473
544.86567	0.14436
543.9013	0.14713
542.93694	0.15026
541.97258	0.15141
541.00821	0.15252
540.04385	0.1561
539.07948	0.15987
538.11512	0.15913
537.15076	0.15339
536.18639	0.14766
535.22203	0.14586
534.25766	0.14549
533.2933	0.14156
532.32894	0.13479
531.36457	0.13162
530.40021	0.13462
529.43584	0.13876
528.47148	0.13841
527.50712	0.13663
526.54275	0.14044
525.57839	0.14818
524.61402	0.1506
523.64966	0.14646
522.6853	0.14086
521.72093	0.13999
520.75657	0.14534
519.7922	0.14895
518.82784	0.14414
517.86348	0.13695
516.89911	0.13338
515.93475	0.13042
514.97038	0.12366
514.00602	0.1129
513.04166	0.10438
512.07729	0.10498
511.11293	0.10993
510.14856	0.10752
509.1842	0.09793
508.21984	0.09345
507.25547	0.09915
506.29111	0.10459
505.32674	0.10087
504.36238	0.09393
503.39802	0.09368
502.43365	0.10094
501.46929	0.10218
500.50492	0.09237
499.54056	0.08187
498.5762	0.07899
497.61183	0.08353
496.64747	0.08649
495.6831	0.08095
494.71874	0.07282
493.75437	0.07353
492.79001	0.08354
491.82565	0.08962
490.86128	0.08371
489.89692	0.07609
488.93255	0.07678
487.96819	0.08255
487.00383	0.08401
486.03946	0.07861
485.0751	0.07535
484.11073	0.08112
483.14637	0.08765
482.18201	0.08464
481.21764	0.07589
480.25328	0.07224
479.28891	0.0778
478.32455	0.08415
477.36019	0.08209
476.39582	0.07336
475.43146	0.06942
474.46709	0.0776
473.50273	0.09129
472.53837	0.09136
471.574	0.07514
470.60964	0.06843
469.64527	0.07455
468.68091	0.07913
467.71655	0.07032
466.75218	0.05766
465.78782	0.05738
464.82345	0.06589
463.85909	0.06798
462.89473	0.05991
461.93036	0.05276
460.966	0.05645
460.00163	0.06604
459.03727	0.07326
458.07291	0.07399
457.10854	0.06658
456.14418	0.06378
455.17981	0.06702
454.21545	0.06695
453.25109	0.05934
452.28672	0.05142
451.32236	0.05193
450.35799	0.05593
449.39363	0.05325
448.42927	0.04758
447.4649	0.05226
446.50054	0.06415
445.53617	0.06654
444.57181	0.05963
443.60745	0.05447
442.64308	0.05882
441.67872	0.06584
440.71435	0.06115
439.74999	0.04784
438.78563	0.04041
437.82126	0.04748
436.8569	0.0616
435.89253	0.06338
434.92817	0.04916
433.96381	0.0397
432.99944	0.04778
432.03508	0.06018
431.07071	0.05674
430.10635	0.0416
429.14199	0.03612
428.17762	0.04554
427.21326	0.05661
426.24889	0.05776
425.28453	0.05219
424.32017	0.05384
423.3558	0.06483
422.39144	0.06972
421.42707	0.06611
420.46271	0.06919
419.49835	0.09458
418.53398	0.11861
417.56962	0.09487
416.60525	0.06541
415.64089	0.05146
414.67653	0.05571
413.71216	0.06386
412.7478	0.05843
411.78343	0.06541
410.81907	0.05146
409.85471	0.05571
408.89034	0.06386
407.92598	0.05843
406.96161	0.06541
405.99725	0.05146
405.03289	0.05571
404.06852	0.06386
403.10416	0.05843
402.13979	0.06541
401.17543	0.05146
400.21107	0.05571