3999.93888	0.00638
3998.97458	0.00634
3998.01027	0.0063
3997.04597	0.00631
3996.08166	0.00635
3995.11735	0.00638
3994.15305	0.00642
3993.18874	0.00642
3992.22444	0.00641
3991.26013	0.00645
3990.29583	0.00651
3989.33152	0.00656
3988.36722	0.00662
3987.40291	0.00666
3986.43861	0.00668
3985.4743	0.00674
3984.51	0.00678
3983.54569	0.00682
3982.58138	0.00688
3981.61708	0.00692
3980.65277	0.00695
3979.68847	0.00696
3978.72416	0.00702
3977.75986	0.0071
3976.79555	0.00716
3975.83125	0.00716
3974.86694	0.00714
3973.90264	0.00713
3972.93833	0.00715
3971.97402	0.00718
3971.00972	0.00722
3970.04541	0.00722
3969.08111	0.0072
3968.1168	0.00714
3967.1525	0.00713
3966.18819	0.00718
3965.22389	0.00719
3964.25958	0.00719
3963.29528	0.00719
3962.33097	0.00722
3961.36667	0.00725
3960.40236	0.00724
3959.43805	0.00726
3958.47375	0.00732
3957.50944	0.00737
3956.54514	0.00739
3955.58083	0.0074
3954.61653	0.00746
3953.65222	0.00757
3952.68792	0.00767
3951.72361	0.00773
3950.75931	0.00782
3949.795	0.00789
3948.83069	0.00793
3947.86639	0.00803
3946.90208	0.00807
3945.93778	0.00805
3944.97347	0.00808
3944.00917	0.00816
3943.04486	0.00832
3942.08056	0.00841
3941.11625	0.00842
3940.15195	0.00845
3939.18764	0.00851
3938.22333	0.00856
3937.25903	0.00857
3936.29472	0.00861
3935.33042	0.00868
3934.36611	0.00876
3933.40181	0.00885
3932.4375	0.00892
3931.4732	0.00884
3930.50889	0.00874
3929.54459	0.00879
3928.58028	0.00878
3927.61598	0.00873
3926.65167	0.00871
3925.68736	0.00877
3924.72306	0.00883
3923.75875	0.0088
3922.79445	0.00878
3921.83014	0.0088
3920.86584	0.00889
3919.90153	0.00893
3918.93723	0.00885
3917.97292	0.00901
3917.00862	0.00923
3916.04431	0.00918
3915.08	0.00904
3914.1157	0.00898
3913.15139	0.00899
3912.18709	0.00906
3911.22278	0.00917
3910.25848	0.00928
3909.29417	0.00938
3908.32987	0.00944
3907.36556	0.00957
3906.40126	0.00977
3905.43695	0.01009
3904.47265	0.0105
3903.50834	0.01058
3902.54403	0.01063
3901.57973	0.01074
3900.61542	0.0107
3899.65112	0.01091
3898.68681	0.01098
3897.72251	0.01078
3896.7582	0.01074
3895.7939	0.01079
3894.82959	0.01092
3893.86529	0.01101
3892.90098	0.01123
3891.93667	0.01168
3890.97237	0.0119
3890.00806	0.01166
3889.04376	0.01151
3888.07945	0.01161
3887.11515	0.01197
3886.15084	0.01264
3885.18654	0.01282
3884.22223	0.01253
3883.25793	0.01243
3882.29362	0.01254
3881.32932	0.01291
3880.36501	0.01328
3879.4007	0.01324
3878.4364	0.01305
3877.47209	0.01307
3876.50779	0.0132
3875.54348	0.0135
3874.57918	0.01394
3873.61487	0.01406
3872.65057	0.01397
3871.68626	0.01411
3870.72196	0.0147
3869.75765	0.01515
3868.79334	0.01495
3867.82904	0.01464
3866.86473	0.01468
3865.90043	0.01515
3864.93612	0.01556
3863.97182	0.01545
3863.00751	0.01541
3862.04321	0.01567
3861.0789	0.0158
3860.1146	0.01576
3859.15029	0.01582
3858.18599	0.01601
3857.22168	0.01629
3856.25737	0.01651
3855.29307	0.01739
3854.32876	0.01865
3853.36446	0.01872
3852.40015	0.0183
3851.43585	0.01811
3850.47154	0.0179
3849.50724	0.01803
3848.54293	0.01826
3847.57863	0.01846
3846.61432	0.01869
3845.65001	0.01894
3844.68571	0.01938
3843.7214	0.0198
3842.7571	0.02002
3841.79279	0.02027
3840.82849	0.02068
3839.86418	0.02089
3838.89988	0.02135
3837.93557	0.02207
3836.97127	0.02209
3836.00696	0.02202
3835.04266	0.02238
3834.07835	0.02255
3833.11404	0.02269
3832.14974	0.02317
3831.18543	0.02351
3830.22113	0.02357
3829.25682	0.02372
3828.29252	0.02402
3827.32821	0.02443
3826.36391	0.0248
3825.3996	0.02503
3824.4353	0.02527
3823.47099	0.0256
3822.50668	0.02625
3821.54238	0.02701
3820.57807	0.02728
3819.61377	0.02714
3818.64946	0.02715
3817.68516	0.02752
3816.72085	0.02832
3815.75655	0.02885
3814.79224	0.02871
3813.82794	0.0287
3812.86363	0.02902
3811.89932	0.02936
3810.93502	0.02971
3809.97071	0.03004
3809.00641	0.03041
3808.0421	0.0311
3807.0778	0.0319
3806.11349	0.03205
3805.14919	0.03194
3804.18488	0.03222
3803.22058	0.03276
3802.25627	0.03361
3801.29197	0.03434
3800.32766	0.03437
3799.36335	0.03428
3798.39905	0.0346
3797.43474	0.03514
3796.47044	0.03564
3795.50613	0.03588
3794.54183	0.03608
3793.57752	0.03643
3792.61322	0.03681
3791.64891	0.03717
3790.68461	0.03757
3789.7203	0.03799
3788.75599	0.0384
3787.79169	0.0388
3786.82738	0.03921
3785.86308	0.03963
3784.89877	0.04012
3783.93447	0.04052
3782.97016	0.04087
3782.00586	0.0413
3781.04155	0.04178
3780.07725	0.04237
3779.11294	0.04281
3778.14864	0.04301
3777.18433	0.04332
3776.22002	0.04374
3775.25572	0.04423
3774.29141	0.04466
3773.32711	0.04507
3772.3628	0.04549
3771.3985	0.04602
3770.43419	0.04681
3769.46989	0.04732
3768.50558	0.04744
3767.54128	0.0477
3766.57697	0.04824
3765.61266	0.04879
3764.64836	0.04909
3763.68405	0.04939
3762.71975	0.0498
3761.75544	0.05026
3760.79114	0.05087
3759.82683	0.05151
3758.86253	0.05188
3757.89822	0.0522
3756.93392	0.05275
3755.96961	0.05316
3755.00531	0.05347
3754.041	0.05397
3753.07669	0.05502
3752.11239	0.056
3751.14808	0.05621
3750.18378	0.05686
3749.21947	0.05767
3748.25517	0.05761
3747.29086	0.05762
3746.32656	0.05827
3745.36225	0.05986
3744.39795	0.06114
3743.43364	0.06075
3742.46933	0.0603
3741.50503	0.06068
3740.54072	0.06122
3739.57642	0.06179
3738.61211	0.06243
3737.64781	0.0633
3736.6835	0.06422
3735.7192	0.06486
3734.75489	0.0652
3733.79059	0.0654
3732.82628	0.06605
3731.86198	0.06678
3730.89767	0.067
3729.93336	0.06728
3728.96906	0.06785
3728.00475	0.06858
3727.04045	0.06946
3726.07614	0.07012
3725.11184	0.07059
3724.14753	0.07106
3723.18323	0.07172
3722.21892	0.07247
3721.25462	0.07299
3720.29031	0.07353
3719.326	0.07423
3718.3617	0.07484
3717.39739	0.07538
3716.43309	0.07602
3715.46878	0.0768
3714.50448	0.07755
3713.54017	0.07843
3712.57587	0.07957
3711.61156	0.0803
3710.64726	0.08066
3709.68295	0.08141
3708.71865	0.08211
3707.75434	0.0826
3706.79003	0.08328
3705.82573	0.08405
3704.86142	0.08484
3703.89712	0.08561
3702.93281	0.08661
3701.96851	0.08767
3701.0042	0.0884
3700.0399	0.089
3699.07559	0.08974
3698.11129	0.0906
3697.14698	0.09151
3696.18267	0.09244
3695.21837	0.09333
3694.25406	0.09425
3693.28976	0.09524
3692.32545	0.09642
3691.36115	0.09774
3690.39684	0.09877
3689.43254	0.1
3688.46823	0.10147
3687.50393	0.10239
3686.53962	0.1032
3685.57531	0.10446
3684.61101	0.10593
3683.6467	0.10745
3682.6824	0.1089
3681.71809	0.1102
3680.75379	0.11133
3679.78948	0.11234
3678.82518	0.11322
3677.86087	0.11408
3676.89657	0.11544
3675.93226	0.11714
3674.96796	0.1183
3674.00365	0.11892
3673.03934	0.11976
3672.07504	0.12126
3671.11073	0.12324
3670.14643	0.12485
3669.18212	0.1261
3668.21782	0.12739
3667.25351	0.12869
3666.28921	0.13024
3665.3249	0.13192
3664.3606	0.13358
3663.39629	0.13528
3662.43198	0.13698
3661.46768	0.13874
3660.50337	0.14051
3659.53907	0.14232
3658.57476	0.14416
3657.61046	0.14616
3656.64615	0.14846
3655.68185	0.15038
3654.71754	0.15196
3653.75324	0.15376
3652.78893	0.15582
3651.82463	0.15815
3650.86032	0.16048
3649.89601	0.16268
3648.93171	0.16471
3647.9674	0.16664
3647.0031	0.16863
3646.03879	0.17046
3645.07449	0.17228
3644.11018	0.17428
3643.14588	0.17637
3642.18157	0.1785
3641.21727	0.18059
3640.25296	0.18262
3639.28865	0.18466
3638.32435	0.18668
3637.36004	0.18864
3636.39574	0.19056
3635.43143	0.19258
3634.46713	0.19473
3633.50282	0.19675
3632.53852	0.19852
3631.57421	0.20039
3630.60991	0.20266
3629.6456	0.20522
3628.6813	0.20728
3627.71699	0.20863
3626.75268	0.20994
3625.78838	0.21151
3624.82407	0.21322
3623.85977	0.21495
3622.89546	0.2167
3621.93116	0.21845
3620.96685	0.22029
3620.00255	0.22224
3619.03824	0.22396
3618.07394	0.2255
3617.10963	0.22705
3616.14532	0.2286
3615.18102	0.23027
3614.21671	0.23197
3613.25241	0.23371
3612.2881	0.23541
3611.3238	0.23689
3610.35949	0.2387
3609.39519	0.24075
3608.43088	0.24239
3607.46658	0.24393
3606.50227	0.24565
3605.53797	0.24738
3604.57366	0.24922
3603.60935	0.25115
3602.64505	0.25308
3601.68074	0.25502
3600.71644	0.25704
3599.75213	0.25909
3598.78783	0.26119
3597.82352	0.26332
3596.85922	0.26547
3595.89491	0.26773
3594.93061	0.26997
3593.9663	0.27219
3593.00199	0.27453
3592.03769	0.27689
3591.07338	0.27925
3590.10908	0.28175
3589.14477	0.28447
3588.18047	0.28713
3587.21616	0.28965
3586.25186	0.29215
3585.28755	0.29452
3584.32325	0.29701
3583.35894	0.29965
3582.39464	0.30233
3581.43033	0.30508
3580.46602	0.30787
3579.50172	0.31068
3578.53741	0.31339
3577.57311	0.31609
3576.6088	0.31887
3575.6445	0.3217
3574.68019	0.32459
3573.71589	0.32745
3572.75158	0.33031
3571.78728	0.33315
3570.82297	0.33602
3569.85866	0.339
3568.89436	0.34219
3567.93005	0.34537
3566.96575	0.34829
3566.00144	0.35106
3565.03714	0.3538
3564.07283	0.3567
3563.10853	0.35973
3562.14422	0.36276
3561.17992	0.3658
3560.21561	0.36885
3559.2513	0.37189
3558.287	0.37489
3557.32269	0.37797
3556.35839	0.38108
3555.39408	0.38414
3554.42978	0.38714
3553.46547	0.39008
3552.50117	0.39305
3551.53686	0.39596
3550.57256	0.39877
3549.60825	0.40154
3548.64395	0.4043
3547.67964	0.407
3546.71533	0.40945
3545.75103	0.41174
3544.78672	0.41382
3543.82242	0.41561
3542.85811	0.41714
3541.89381	0.41834
3540.9295	0.41924
3539.9652	0.41993
3539.00089	0.42046
3538.03659	0.4208
3537.07228	0.42098
3536.10797	0.42106
3535.14367	0.42107
3534.17936	0.42116
3533.21506	0.42146
3532.25075	0.422
3531.28645	0.42271
3530.32214	0.42357
3529.35784	0.42463
3528.39353	0.42591
3527.42923	0.42738
3526.46492	0.42905
3525.50062	0.43094
3524.53631	0.43296
3523.572	0.43505
3522.6077	0.43721
3521.64339	0.43941
3520.67909	0.44172
3519.71478	0.44416
3518.75048	0.4467
3517.78617	0.44928
3516.82187	0.45183
3515.85756	0.45433
3514.89326	0.45697
3513.92895	0.45975
3512.96464	0.46255
3512.00034	0.46541
3511.03603	0.46829
3510.07173	0.47125
3509.10742	0.47424
3508.14312	0.47723
3507.17881	0.48022
3506.21451	0.48321
3505.2502	0.48623
3504.2859	0.48923
3503.32159	0.49214
3502.35729	0.49496
3501.39298	0.49775
3500.42867	0.50051
3499.46437	0.50311
3498.50006	0.50554
3497.53576	0.50775
3496.57145	0.50971
3495.60715	0.51153
3494.64284	0.51309
3493.67854	0.51427
3492.71423	0.51513
3491.74993	0.51576
3490.78562	0.5162
3489.82131	0.51649
3488.85701	0.51683
3487.8927	0.51724
3486.9284	0.51768
3485.96409	0.5182
3484.99979	0.51887
3484.03548	0.51971
3483.07118	0.52076
3482.10687	0.52195
3481.14257	0.52319
3480.17826	0.52455
3479.21396	0.52598
3478.24965	0.52763
3477.28534	0.52944
3476.32104	0.53128
3475.35673	0.53316
3474.39243	0.53508
3473.42812	0.53704
3472.46382	0.53901
3471.49951	0.54108
3470.53521	0.54318
3469.5709	0.54523
3468.6066	0.54727
3467.64229	0.54932
3466.67798	0.55136
3465.71368	0.55347
3464.74937	0.55566
3463.78507	0.55786
3462.82076	0.55999
3461.85646	0.56205
3460.89215	0.56406
3459.92785	0.5661
3458.96354	0.56818
3457.99924	0.57024
3457.03493	0.57225
3456.07063	0.57423
3455.10632	0.57612
3454.14201	0.57795
3453.17771	0.57983
3452.2134	0.58174
3451.2491	0.58357
3450.28479	0.58533
3449.32049	0.58708
3448.35618	0.58883
3447.39188	0.59054
3446.42757	0.59221
3445.46327	0.59379
3444.49896	0.59539
3443.53465	0.59704
3442.57035	0.59855
3441.60604	0.60002
3440.64174	0.60161
3439.67743	0.60323
3438.71313	0.6048
3437.74882	0.60631
3436.78452	0.60772
3435.82021	0.60908
3434.85591	0.61058
3433.8916	0.6122
3432.92729	0.61379
3431.96299	0.61533
3430.99868	0.61682
3430.03438	0.61827
3429.07007	0.61978
3428.10577	0.62138
3427.14146	0.62305
3426.17716	0.62474
3425.21285	0.62632
3424.24855	0.62784
3423.28424	0.62938
3422.31994	0.63093
3421.35563	0.63248
3420.39132	0.63394
3419.42702	0.63534
3418.46271	0.63674
3417.49841	0.63815
3416.5341	0.63946
3415.5698	0.64068
3414.60549	0.64185
3413.64119	0.64286
3412.67688	0.64365
3411.71258	0.64442
3410.74827	0.64515
3409.78396	0.64581
3408.81966	0.64626
3407.85535	0.64651
3406.89105	0.64666
3405.92674	0.64679
3404.96244	0.64683
3403.99813	0.64675
3403.03383	0.64657
3402.06952	0.64634
3401.10522	0.64614
3400.14091	0.64583
3399.17661	0.64543
3398.2123	0.64515
3397.24799	0.64487
3396.28369	0.64448
3395.31938	0.64407
3394.35508	0.64366
3393.39077	0.64329
3392.42647	0.64295
3391.46216	0.64265
3390.49786	0.64241
3389.53355	0.64217
3388.56925	0.64191
3387.60494	0.6417
3386.64063	0.64147
3385.67633	0.64122
3384.71202	0.64099
3383.74772	0.64086
3382.78341	0.6408
3381.81911	0.64068
3380.8548	0.64057
3379.8905	0.64049
3378.92619	0.64035
3377.96189	0.64027
3376.99758	0.64018
3376.03328	0.64009
3375.06897	0.64005
3374.10466	0.64007
3373.14036	0.63999
3372.17605	0.63985
3371.21175	0.63979
3370.24744	0.63963
3369.28314	0.63943
3368.31883	0.63928
3367.35453	0.63904
3366.39022	0.63872
3365.42592	0.63837
3364.46161	0.63799
3363.4973	0.63766
3362.533	0.63734
3361.56869	0.63699
3360.60439	0.63657
3359.64008	0.63614
3358.67578	0.63571
3357.71147	0.63528
3356.74717	0.63478
3355.78286	0.63415
3354.81856	0.63359
3353.85425	0.63306
3352.88995	0.63248
3351.92564	0.6319
3350.96133	0.63133
3349.99703	0.63075
3349.03272	0.63017
3348.06842	0.62955
3347.10411	0.62895
3346.13981	0.62831
3345.1755	0.62761
3344.2112	0.627
3343.24689	0.62641
3342.28259	0.62575
3341.31828	0.62512
3340.35397	0.62455
3339.38967	0.62389
3338.42536	0.62317
3337.46106	0.62252
3336.49675	0.62194
3335.53245	0.6213
3334.56814	0.62064
3333.60384	0.62001
3332.63953	0.61936
3331.67523	0.61863
3330.71092	0.61792
3329.74661	0.61729
3328.78231	0.61663
3327.818	0.61591
3326.8537	0.61521
3325.88939	0.61442
3324.92509	0.61359
3323.96078	0.61286
3322.99648	0.61212
3322.03217	0.61126
3321.06787	0.61036
3320.10356	0.60947
3319.13926	0.60862
3318.17495	0.60785
3317.21064	0.60699
3316.24634	0.60604
3315.28203	0.60508
3314.31773	0.60415
3313.35342	0.60322
3312.38912	0.60223
3311.42481	0.60121
3310.46051	0.60017
3309.4962	0.59915
3308.5319	0.59816
3307.56759	0.59717
3306.60328	0.59613
3305.63898	0.59508
3304.67467	0.59404
3303.71037	0.59302
3302.74606	0.59201
3301.78176	0.591
3300.81745	0.58997
3299.85315	0.58893
3298.88884	0.58794
3297.92454	0.58696
3296.96023	0.58592
3295.99593	0.58487
3295.03162	0.58383
3294.06731	0.58281
3293.10301	0.58184
3292.1387	0.58096
3291.1744	0.58006
3290.21009	0.57906
3289.24579	0.57801
3288.28148	0.57699
3287.31718	0.57603
3286.35287	0.5751
3285.38857	0.57418
3284.42426	0.57327
3283.45995	0.57234
3282.49565	0.57137
3281.53134	0.57044
3280.56704	0.56961
3279.60273	0.56877
3278.63843	0.5679
3277.67412	0.56708
3276.70982	0.56622
3275.74551	0.56533
3274.78121	0.56445
3273.8169	0.56358
3272.8526	0.56269
3271.88829	0.56178
3270.92398	0.56084
3269.95968	0.55987
3268.99537	0.55895
3268.03107	0.55811
3267.06676	0.55716
3266.10246	0.55606
3265.13815	0.55498
3264.17385	0.55384
3263.20954	0.55259
3262.24524	0.55131
3261.28093	0.55003
3260.31662	0.54876
3259.35232	0.54741
3258.38801	0.54595
3257.42371	0.54446
3256.4594	0.54292
3255.4951	0.54135
3254.53079	0.53976
3253.56649	0.53811
3252.60218	0.5364
3251.63788	0.53465
3250.67357	0.5329
3249.70927	0.53117
3248.74496	0.52938
3247.78065	0.52751
3246.81635	0.52554
3245.85204	0.52357
3244.88774	0.52165
3243.92343	0.51974
3242.95913	0.51781
3241.99482	0.51585
3241.03052	0.51384
3240.06621	0.5118
3239.10191	0.50982
3238.1376	0.50789
3237.17329	0.50593
3236.20899	0.50392
3235.24468	0.50185
3234.28038	0.49975
3233.31607	0.49771
3232.35177	0.49573
3231.38746	0.49374
3230.42316	0.49174
3229.45885	0.48972
3228.49455	0.48767
3227.53024	0.48562
3226.56594	0.48356
3225.60163	0.48155
3224.63732	0.47957
3223.67302	0.47753
3222.70871	0.47541
3221.74441	0.47333
3220.7801	0.47128
3219.8158	0.46926
3218.85149	0.46721
3217.88719	0.4651
3216.92288	0.46297
3215.95858	0.46086
3214.99427	0.45877
3214.02996	0.4567
3213.06566	0.45466
3212.10135	0.4526
3211.13705	0.4505
3210.17274	0.44837
3209.20844	0.4462
3208.24413	0.44404
3207.27983	0.4419
3206.31552	0.43977
3205.35122	0.43767
3204.38691	0.43551
3203.4226	0.43335
3202.4583	0.43122
3201.49399	0.42914
3200.52969	0.42706
3199.56538	0.42492
3198.60108	0.4227
3197.63677	0.42052
3196.67247	0.41839
3195.70816	0.41627
3194.74386	0.41416
3193.77955	0.41204
3192.81525	0.40988
3191.85094	0.40766
3190.88663	0.40545
3189.92233	0.40327
3188.95802	0.40116
3187.99372	0.39903
3187.02941	0.39684
3186.06511	0.39462
3185.1008	0.39241
3184.1365	0.39019
3183.17219	0.38801
3182.20789	0.38583
3181.24358	0.38362
3180.27927	0.38137
3179.31497	0.37911
3178.35066	0.37686
3177.38636	0.37462
3176.42205	0.37237
3175.45775	0.3701
3174.49344	0.36781
3173.52914	0.36548
3172.56483	0.36317
3171.60053	0.36087
3170.63622	0.35857
3169.67192	0.35627
3168.70761	0.35394
3167.7433	0.3516
3166.779	0.34924
3165.81469	0.34691
3164.85039	0.34462
3163.88608	0.34231
3162.92178	0.33999
3161.95747	0.33762
3160.99317	0.33528
3160.02886	0.33295
3159.06456	0.33065
3158.10025	0.32834
3157.13594	0.326
3156.17164	0.32369
3155.20733	0.32138
3154.24303	0.31908
3153.27872	0.31678
3152.31442	0.31449
3151.35011	0.3122
3150.38581	0.3099
3149.4215	0.30761
3148.4572	0.30535
3147.49289	0.30309
3146.52859	0.30089
3145.56428	0.29869
3144.59997	0.29649
3143.63567	0.29429
3142.67136	0.29208
3141.70706	0.28988
3140.74275	0.28772
3139.77845	0.28559
3138.81414	0.28345
3137.84984	0.28131
3136.88553	0.27916
3135.92123	0.27705
3134.95692	0.27498
3133.99261	0.27297
3133.02831	0.27092
3132.064	0.26886
3131.0997	0.26687
3130.13539	0.2649
3129.17109	0.26291
3128.20678	0.26094
3127.24248	0.25903
3126.27817	0.25713
3125.31387	0.25521
3124.34956	0.25331
3123.38526	0.25145
3122.42095	0.24963
3121.45664	0.24781
3120.49234	0.246
3119.52803	0.24421
3118.56373	0.24244
3117.59942	0.24067
3116.63512	0.23893
3115.67081	0.23723
3114.70651	0.23553
3113.7422	0.23389
3112.7779	0.23224
3111.81359	0.23059
3110.84928	0.22896
3109.88498	0.22739
3108.92067	0.22585
3107.95637	0.22432
3106.99206	0.22277
3106.02776	0.22123
3105.06345	0.21974
3104.09915	0.21831
3103.13484	0.21691
3102.17054	0.21551
3101.20623	0.21408
3100.24193	0.21263
3099.27762	0.21122
3098.31331	0.20988
3097.34901	0.20862
3096.3847	0.20738
3095.4204	0.2061
3094.45609	0.20477
3093.49179	0.20345
3092.52748	0.2022
3091.56318	0.201
3090.59887	0.19983
3089.63457	0.19867
3088.67026	0.19749
3087.70595	0.1963
3086.74165	0.19513
3085.77734	0.19402
3084.81304	0.19296
3083.84873	0.19191
3082.88443	0.19085
3081.92012	0.18976
3080.95582	0.18868
3079.99151	0.18762
3079.02721	0.18666
3078.0629	0.1857
3077.09859	0.18473
3076.13429	0.18375
3075.16998	0.18276
3074.20568	0.18178
3073.24137	0.18085
3072.27707	0.17999
3071.31276	0.17909
3070.34846	0.17814
3069.38415	0.1772
3068.41985	0.1763
3067.45554	0.17546
3066.49124	0.17463
3065.52693	0.17379
3064.56262	0.17294
3063.59832	0.17206
3062.63401	0.17118
3061.66971	0.17032
3060.7054	0.16952
3059.7411	0.16874
3058.77679	0.16796
3057.81249	0.16715
3056.84818	0.16631
3055.88388	0.1655
3054.91957	0.16474
3053.95526	0.164
3052.99096	0.16322
3052.02665	0.16239
3051.06235	0.16155
3050.09804	0.16076
3049.13374	0.16002
3048.16943	0.1593
3047.20513	0.15855
3046.24082	0.15782
3045.27652	0.15713
3044.31221	0.15644
3043.34791	0.15582
3042.3836	0.15533
3041.41929	0.1549
3040.45499	0.15444
3039.49068	0.15392
3038.52638	0.15338
3037.56207	0.15279
3036.59777	0.1521
3035.63346	0.15126
3034.66916	0.15031
3033.70485	0.14931
3032.74055	0.1483
3031.77624	0.14735
3030.81193	0.14645
3029.84763	0.14558
3028.88332	0.14472
3027.91902	0.14384
3026.95471	0.14296
3025.99041	0.14204
3025.0261	0.14107
3024.0618	0.14
3023.09749	0.13887
3022.13319	0.1377
3021.16888	0.1365
3020.20458	0.13531
3019.24027	0.1342
3018.27596	0.13313
3017.31166	0.13209
3016.34735	0.13105
3015.38305	0.13
3014.41874	0.12896
3013.45444	0.12799
3012.49013	0.12707
3011.52583	0.12614
3010.56152	0.12524
3009.59722	0.12437
3008.63291	0.12355
3007.6686	0.12282
3006.7043	0.12219
3005.73999	0.1217
3004.77569	0.12134
3003.81138	0.12114
3002.84708	0.12127
3001.88277	0.12179
3000.91847	0.12271
2999.95416	0.12384
2998.98986	0.1248
2998.02555	0.12527
2997.06125	0.12512
2996.09694	0.12456
2995.13263	0.12393
2994.16833	0.12338
2993.20402	0.1229
2992.23972	0.12234
2991.27541	0.12155
2990.31111	0.12054
2989.3468	0.11937
2988.3825	0.11819
2987.41819	0.1171
2986.45389	0.11619
2985.48958	0.11551
2984.52527	0.11507
2983.56097	0.11479
2982.59666	0.11453
2981.63236	0.11409
2980.66805	0.11345
2979.70375	0.11265
2978.73944	0.11181
2977.77514	0.11107
2976.81083	0.11051
2975.84653	0.11019
2974.88222	0.11014
2973.91792	0.11029
2972.95361	0.11062
2971.9893	0.11114
2971.025	0.11191
2970.06069	0.11291
2969.09639	0.11422
2968.13208	0.11589
2967.16778	0.11795
2966.20347	0.12037
2965.23917	0.12328
2964.27486	0.12693
2963.31056	0.13155
2962.34625	0.13736
2961.38194	0.14437
2960.41764	0.15227
2959.45333	0.16023
2958.48903	0.16692
2957.52472	0.17103
2956.56042	0.17223
2955.59611	0.17156
2954.63181	0.17074
2953.6675	0.17104
2952.7032	0.17268
2951.73889	0.17515
2950.77458	0.17772
2949.81028	0.17979
2948.84597	0.18123
2947.88167	0.18243
2946.91736	0.18409
2945.95306	0.18686
2944.98875	0.19111
2944.02445	0.19675
2943.06014	0.20354
2942.09584	0.21107
2941.13153	0.21845
2940.16723	0.22439
2939.20292	0.22805
2938.23861	0.22984
2937.27431	0.23132
2936.31	0.234
2935.3457	0.23875
2934.38139	0.24549
2933.41709	0.25337
2932.45278	0.26163
2931.48848	0.27047
2930.52417	0.28032
2929.55987	0.28989
2928.59556	0.296
2927.63125	0.29685
2926.66695	0.29398
2925.70264	0.2901
2924.73834	0.28676
2923.77403	0.2842
2922.80973	0.28177
2921.84542	0.27872
2920.88112	0.27498
2919.91681	0.27101
2918.95251	0.26653
2917.9882	0.26025
2917.0239	0.25151
2916.05959	0.24136
2915.09528	0.23153
2914.13098	0.22303
2913.16667	0.21598
2912.20237	0.2101
2911.23806	0.20517
2910.27376	0.20125
2909.30945	0.19833
2908.34515	0.19615
2907.38084	0.19426
2906.41654	0.19259
2905.45223	0.19138
2904.48792	0.19085
2903.52362	0.19078
2902.55931	0.19058
2901.59501	0.18973
2900.6307	0.1882
2899.6664	0.18653
2898.70209	0.1855
2897.73779	0.18545
2896.77348	0.18596
2895.80918	0.18607
2894.84487	0.18503
2893.88057	0.18291
2892.91626	0.1804
2891.95195	0.17818
2890.98765	0.1765
2890.02334	0.17524
2889.05904	0.17414
2888.09473	0.17283
2887.13043	0.17099
2886.16612	0.16859
2885.20182	0.16582
2884.23751	0.16292
2883.27321	0.16007
2882.3089	0.15739
2881.34459	0.15491
2880.38029	0.1525
2879.41598	0.15011
2878.45168	0.14774
2877.48737	0.14535
2876.52307	0.1429
2875.55876	0.14042
2874.59446	0.13796
2873.63015	0.13559
2872.66585	0.13336
2871.70154	0.13133
2870.73724	0.12957
2869.77293	0.128
2868.80862	0.12658
2867.84432	0.1253
2866.88001	0.12417
2865.91571	0.12323
2864.9514	0.12251
2863.9871	0.12193
2863.02279	0.12143
2862.05849	0.12094
2861.09418	0.12046
2860.12988	0.12004
2859.16557	0.11972
2858.20126	0.11944
2857.23696	0.11913
2856.27265	0.11872
2855.30835	0.11819
2854.34404	0.11761
2853.37974	0.11708
2852.41543	0.11655
2851.45113	0.11594
2850.48682	0.11522
2849.52252	0.11434
2848.55821	0.1134
2847.59391	0.11245
2846.6296	0.11154
2845.66529	0.11065
2844.70099	0.10971
2843.73668	0.1087
2842.77238	0.1077
2841.80807	0.10679
2840.84377	0.106
2839.87946	0.10528
2838.91516	0.10457
2837.95085	0.10382
2836.98655	0.10307
2836.02224	0.10239
2835.05793	0.10176
2834.09363	0.10117
2833.12932	0.10055
2832.16502	0.09988
2831.20071	0.09916
2830.23641	0.09846
2829.2721	0.09782
2828.3078	0.0972
2827.34349	0.09658
2826.37919	0.09592
2825.41488	0.0952
2824.45057	0.09448
2823.48627	0.09383
2822.52196	0.0932
2821.55766	0.09253
2820.59335	0.09183
2819.62905	0.0911
2818.66474	0.09039
2817.70044	0.08969
2816.73613	0.08904
2815.77183	0.08838
2814.80752	0.08768
2813.84322	0.08694
2812.87891	0.08618
2811.9146	0.08547
2810.9503	0.08481
2809.98599	0.08415
2809.02169	0.08348
2808.05738	0.08283
2807.09308	0.08221
2806.12877	0.08159
2805.16447	0.08098
2804.20016	0.08045
2803.23586	0.07996
2802.27155	0.07946
2801.30724	0.07894
2800.34294	0.07842
2799.37863	0.07791
2798.41433	0.07743
2797.45002	0.07698
2796.48572	0.07654
2795.52141	0.07607
2794.55711	0.07562
2793.5928	0.0752
2792.6285	0.07481
2791.66419	0.07447
2790.69989	0.07416
2789.73558	0.07384
2788.77127	0.0735
2787.80697	0.07322
2786.84266	0.07299
2785.87836	0.07277
2784.91405	0.07258
2783.94975	0.07237
2782.98544	0.07214
2782.02114	0.07189
2781.05683	0.07165
2780.09253	0.07142
2779.12822	0.07116
2778.16391	0.0709
2777.19961	0.07068
2776.2353	0.07044
2775.271	0.07019
2774.30669	0.06998
2773.34239	0.06982
2772.37808	0.06968
2771.41378	0.06957
2770.44947	0.06945
2769.48517	0.06933
2768.52086	0.06927
2767.55656	0.06924
2766.59225	0.06921
2765.62794	0.06919
2764.66364	0.06915
2763.69933	0.06908
2762.73503	0.069
2761.77072	0.06894
2760.80642	0.06894
2759.84211	0.06892
2758.87781	0.06887
2757.9135	0.06879
2756.9492	0.06868
2755.98489	0.06859
2755.02058	0.0685
2754.05628	0.0684
2753.09197	0.06824
2752.12767	0.06802
2751.16336	0.06778
2750.19906	0.06756
2749.23475	0.06738
2748.27045	0.06722
2747.30614	0.06705
2746.34184	0.06688
2745.37753	0.0667
2744.41323	0.06654
2743.44892	0.0664
2742.48461	0.06633
2741.52031	0.06627
2740.556	0.06614
2739.5917	0.06596
2738.62739	0.06577
2737.66309	0.06559
2736.69878	0.06546
2735.73448	0.0653
2734.77017	0.06505
2733.80587	0.0647
2732.84156	0.06434
2731.87725	0.06399
2730.91295	0.06369
2729.94864	0.06337
2728.98434	0.063
2728.02003	0.06256
2727.05573	0.06209
2726.09142	0.06165
2725.12712	0.06125
2724.16281	0.06087
2723.19851	0.06042
2722.2342	0.05991
2721.2699	0.05939
2720.30559	0.05887
2719.34128	0.0584
2718.37698	0.05797
2717.41267	0.05751
2716.44837	0.05698
2715.48406	0.0564
2714.51976	0.05583
2713.55545	0.05532
2712.59115	0.05485
2711.62684	0.0544
2710.66254	0.05391
2709.69823	0.05341
2708.73392	0.05294
2707.76962	0.05254
2706.80531	0.05223
2705.84101	0.05195
2704.8767	0.05165
2703.9124	0.05131
2702.94809	0.05096
2701.98379	0.05062
2701.01948	0.05031
2700.05518	0.05001
2699.09087	0.04966
2698.12656	0.04922
2697.16226	0.0487
2696.19795	0.04818
2695.23365	0.04768
2694.26934	0.04721
2693.30504	0.04673
2692.34073	0.0462
2691.37643	0.04564
2690.41212	0.04513
2689.44782	0.04469
2688.48351	0.04424
2687.51921	0.04378
2686.5549	0.04327
2685.59059	0.04274
2684.62629	0.04223
2683.66198	0.0418
2682.69768	0.04143
2681.73337	0.04107
2680.76907	0.04069
2679.80476	0.04032
2678.84046	0.04001
2677.87615	0.03977
2676.91185	0.03956
2675.94754	0.03934
2674.98323	0.03909
2674.01893	0.03882
2673.05462	0.03857
2672.09032	0.0383
2671.12601	0.03801
2670.16171	0.03774
2669.1974	0.03745
2668.2331	0.03712
2667.26879	0.03683
2666.30449	0.03655
2665.34018	0.03626
2664.37588	0.03597
2663.41157	0.03569
2662.44726	0.0354
2661.48296	0.03506
2660.51865	0.03469
2659.55435	0.03431
2658.59004	0.03395
2657.62574	0.03362
2656.66143	0.03327
2655.69713	0.0329
2654.73282	0.03252
2653.76852	0.03217
2652.80421	0.03183
2651.8399	0.03147
2650.8756	0.03111
2649.91129	0.03077
2648.94699	0.03042
2647.98268	0.0301
2647.01838	0.02982
2646.05407	0.02953
2645.08977	0.02924
2644.12546	0.02895
2643.16116	0.02869
2642.19685	0.02842
2641.23255	0.02814
2640.26824	0.02787
2639.30393	0.02758
2638.33963	0.02725
2637.37532	0.02689
2636.41102	0.02651
2635.44671	0.02609
2634.48241	0.02565
2633.5181	0.02519
2632.5538	0.02472
2631.58949	0.02422
2630.62519	0.02372
2629.66088	0.02321
2628.69657	0.02273
2627.73227	0.02229
2626.76796	0.02189
2625.80366	0.02148
2624.83935	0.0211
2623.87505	0.02073
2622.91074	0.02036
2621.94644	0.02001
2620.98213	0.01969
2620.01783	0.01939
2619.05352	0.01909
2618.08922	0.01881
2617.12491	0.01852
2616.1606	0.01824
2615.1963	0.01795
2614.23199	0.01766
2613.26769	0.01737
2612.30338	0.01711
2611.33908	0.01687
2610.37477	0.01666
2609.41047	0.01645
2608.44616	0.01629
2607.48186	0.01615
2606.51755	0.01605
2605.55324	0.01594
2604.58894	0.01584
2603.62463	0.01572
2602.66033	0.0156
2601.69602	0.01554
2600.73172	0.01551
2599.76741	0.01546
2598.80311	0.01543
2597.8388	0.0154
2596.8745	0.01536
2595.91019	0.01532
2594.94589	0.01529
2593.98158	0.01526
2593.01727	0.01521
2592.05297	0.01514
2591.08866	0.01506
2590.12436	0.01498
2589.16005	0.0149
2588.19575	0.01486
2587.23144	0.0148
2586.26714	0.01472
2585.30283	0.01463
2584.33853	0.01455
2583.37422	0.01447
2582.40991	0.01442
2581.44561	0.0144
2580.4813	0.01435
2579.517	0.01426
2578.55269	0.01417
2577.58839	0.01413
2576.62408	0.01415
2575.65978	0.01418
2574.69547	0.01422
2573.73117	0.01422
2572.76686	0.01421
2571.80255	0.01426
2570.83825	0.01433
2569.87394	0.0144
2568.90964	0.01445
2567.94533	0.01445
2566.98103	0.01437
2566.01672	0.01431
2565.05242	0.01429
2564.08811	0.01426
2563.12381	0.01423
2562.1595	0.01417
2561.1952	0.01408
2560.23089	0.01398
2559.26658	0.01393
2558.30228	0.01396
2557.33797	0.01399
2556.37367	0.01395
2555.40936	0.01386
2554.44506	0.01378
2553.48075	0.01372
2552.51645	0.01371
2551.55214	0.0137
2550.58784	0.01364
2549.62353	0.01352
2548.65922	0.01338
2547.69492	0.01325
2546.73061	0.01318
2545.76631	0.01314
2544.802	0.01302
2543.8377	0.0128
2542.87339	0.01255
2541.90909	0.01236
2540.94478	0.01221
2539.98048	0.01211
2539.01617	0.01202
2538.05187	0.0118
2537.08756	0.01154
2536.12325	0.01131
2535.15895	0.01113
2534.19464	0.01093
2533.23034	0.0107
2532.26603	0.01043
2531.30173	0.01014
2530.33742	0.00988
2529.37312	0.0097
2528.40881	0.00956
2527.44451	0.00942
2526.4802	0.00925
2525.51589	0.00903
2524.55159	0.00882
2523.58728	0.00868
2522.62298	0.0086
2521.65867	0.00854
2520.69437	0.00842
2519.73006	0.00823
2518.76576	0.00802
2517.80145	0.00784
2516.83715	0.00772
2515.87284	0.00765
2514.90854	0.0075
2513.94423	0.0073
2512.97992	0.0071
2512.01562	0.00695
2511.05131	0.00688
2510.08701	0.00685
2509.1227	0.00681
2508.1584	0.00672
2507.19409	0.00663
2506.22979	0.0066
2505.26548	0.00662
2504.30118	0.0067
2503.33687	0.0068
2502.37256	0.00684
2501.40826	0.00684
2500.44395	0.00688
2499.47965	0.00699
2498.51534	0.00714
2497.55104	0.00725
2496.58673	0.00731
2495.62243	0.00734
2494.65812	0.00738
2493.69382	0.00746
2492.72951	0.00758
2491.76521	0.00768
2490.8009	0.00773
2489.83659	0.00774
2488.87229	0.00773
2487.90798	0.00774
2486.94368	0.00779
2485.97937	0.00785
2485.01507	0.00787
2484.05076	0.00784
2483.08646	0.00778
2482.12215	0.00773
2481.15785	0.00769
2480.19354	0.00768
2479.22923	0.00765
2478.26493	0.00758
2477.30062	0.00747
2476.33632	0.00734
2475.37201	0.00726
2474.40771	0.00721
2473.4434	0.00716
2472.4791	0.00708
2471.51479	0.00696
2470.55049	0.00687
2469.58618	0.00684
2468.62188	0.00683
2467.65757	0.0068
2466.69326	0.00675
2465.72896	0.0067
2464.76465	0.00669
2463.80035	0.00668
2462.83604	0.00667
2461.87174	0.00666
2460.90743	0.00664
2459.94313	0.00659
2458.97882	0.00651
2458.01452	0.00642
2457.05021	0.00634
2456.0859	0.00624
2455.1216	0.00614
2454.15729	0.00605
2453.19299	0.00596
2452.22868	0.00586
2451.26438	0.00579
2450.30007	0.00575
2449.33577	0.00571
2448.37146	0.00566
2447.40716	0.00559
2446.44285	0.0055
2445.47854	0.00539
2444.51424	0.00529
2443.54993	0.00519
2442.58563	0.00508
2441.62132	0.00496
2440.65702	0.0048
2439.69271	0.00464
2438.72841	0.00448
2437.7641	0.00432
2436.7998	0.00416
2435.83549	0.00398
2434.87119	0.00379
2433.90688	0.00359
2432.94257	0.0034
2431.97827	0.00322
2431.01396	0.00301
2430.04966	0.00281
2429.08535	0.00263
2428.12105	0.00245
2427.15674	0.00229
2426.19244	0.00212
2425.22813	0.00197
2424.26383	0.00181
2423.29952	0.00167
2422.33521	0.00154
2421.37091	0.00141
2420.4066	0.00129
2419.4423	0.00117
2418.47799	0.00106
2417.51369	9.53906E-4
2416.54938	8.27799E-4
2415.58508	7.12572E-4
2414.62077	6.08226E-4
2413.65647	4.93E-4
2412.69216	3.99535E-4
2411.72786	3.16951E-4
2410.76355	2.45247E-4
2409.79924	1.73544E-4
2408.83494	1.23602E-4
2407.87063	8.45409E-5
2406.90633	3.4599E-5
2405.94202	6.41874E-6
2404.97772	0
2404.01341	4.46209E-6
2403.04911	1.98049E-5
2402.0848	4.60286E-5
2401.1205	7.22522E-5
2400.15619	8.75951E-5
2399.19188	1.02938E-4
2398.22758	1.29162E-4
2397.26327	1.66266E-4
2396.29897	2.0337E-4
2395.33466	2.51356E-4
2394.37036	2.99341E-4
2393.40605	3.58207E-4
2392.44175	4.27954E-4
2391.47744	5.08581E-4
2390.51314	5.89209E-4
2389.54883	6.58956E-4
2388.58453	7.06941E-4
2387.62022	7.87568E-4
2386.65591	8.79077E-4
2385.69161	9.59704E-4
2384.7273	0.00102
2383.763	0.00108
2382.79869	0.00111
2381.83439	0.00118
2380.87008	0.00128
2379.90578	0.00133
2378.94147	0.00136
2377.97717	0.00138
2377.01286	0.00139
2376.04855	0.00143
2375.08425	0.00145
2374.11994	0.00147
2373.15564	0.0015
2372.19133	0.00151
2371.22703	0.00154
2370.26272	0.0016
2369.29842	0.00167
2368.33411	0.00173
2367.36981	0.00174
2366.4055	0.00177
2365.4412	0.0018
2364.47689	0.00181
2363.51258	0.00181
2362.54828	0.00182
2361.58397	0.00181
2360.61967	0.00177
2359.65536	0.00174
2358.69106	0.00175
2357.72675	0.00177
2356.76245	0.00181
2355.79814	0.00185
2354.83384	0.00183
2353.86953	0.00177
2352.90522	0.00174
2351.94092	0.00174
2350.97661	0.00173
2350.01231	0.0017
2349.048	0.00163
2348.0837	0.00151
2347.11939	0.00141
2346.15509	0.00135
2345.19078	0.00134
2344.22648	0.00134
2343.26217	0.00131
2342.29786	0.00123
2341.33356	0.00119
2340.36925	0.00122
2339.40495	0.0013
2338.44064	0.00136
2337.47634	0.00135
2336.51203	0.00132
2335.54773	0.00132
2334.58342	0.00134
2333.61912	0.00137
2332.65481	0.00141
2331.69051	0.00141
2330.7262	0.00137
2329.76189	0.00134
2328.79759	0.00133
2327.83328	0.00139
2326.86898	0.0015
2325.90467	0.00156
2324.94037	0.00152
2323.97606	0.00147
2323.01176	0.00148
2322.04745	0.00152
2321.08315	0.00159
2320.11884	0.00163
2319.15453	0.00162
2318.19023	0.00158
2317.22592	0.00157
2316.26162	0.00162
2315.29731	0.0017
2314.33301	0.00178
2313.3687	0.00183
2312.4044	0.00182
2311.44009	0.0018
2310.47579	0.00184
2309.51148	0.00191
2308.54718	0.00197
2307.58287	0.00198
2306.61856	0.00197
2305.65426	0.00197
2304.68995	0.00205
2303.72565	0.00218
2302.76134	0.00227
2301.79704	0.00231
2300.83273	0.00233
2299.86843	0.00237
2298.90412	0.00246
2297.93982	0.00258
2296.97551	0.0027
2296.0112	0.00275
2295.0469	0.00274
2294.08259	0.00275
2293.11829	0.00282
2292.15398	0.0029
2291.18968	0.00296
2290.22537	0.00294
2289.26107	0.00286
2288.29676	0.00281
2287.33246	0.00285
2286.36815	0.00293
2285.40385	0.00302
2284.43954	0.00306
2283.47523	0.00304
2282.51093	0.00303
2281.54662	0.00308
2280.58232	0.00322
2279.61801	0.00335
2278.65371	0.00341
2277.6894	0.00342
2276.7251	0.00342
2275.76079	0.00349
2274.79649	0.00365
2273.83218	0.00382
2272.86787	0.00389
2271.90357	0.00388
2270.93926	0.00386
2269.97496	0.00392
2269.01065	0.00406
2268.04635	0.00425
2267.08204	0.00438
2266.11774	0.00442
2265.15343	0.00442
2264.18913	0.00451
2263.22482	0.00467
2262.26052	0.0049
2261.29621	0.00513
2260.3319	0.00523
2259.3676	0.00525
2258.40329	0.00531
2257.43899	0.00547
2256.47468	0.00568
2255.51038	0.00586
2254.54607	0.00596
2253.58177	0.00598
2252.61746	0.00598
2251.65316	0.0061
2250.68885	0.00628
2249.72454	0.00646
2248.76024	0.00659
2247.79593	0.00661
2246.83163	0.00663
2245.86732	0.00672
2244.90302	0.0069
2243.93871	0.0071
2242.97441	0.00725
2242.0101	0.00727
2241.0458	0.00725
2240.08149	0.00728
2239.11719	0.00744
2238.15288	0.00765
2237.18857	0.00778
2236.22427	0.00779
2235.25996	0.00776
2234.29566	0.00778
2233.33135	0.00788
2232.36705	0.00803
2231.40274	0.00816
2230.43844	0.00823
2229.47413	0.00822
2228.50983	0.00823
2227.54552	0.0083
2226.58121	0.00842
2225.61691	0.0086
2224.6526	0.00871
2223.6883	0.00875
2222.72399	0.00879
2221.75969	0.00888
2220.79538	0.00906
2219.83108	0.00928
2218.86677	0.00945
2217.90247	0.00953
2216.93816	0.00956
2215.97385	0.00966
2215.00955	0.00982
2214.04524	0.01005
2213.08094	0.01023
2212.11663	0.01035
2211.15233	0.01042
2210.18802	0.01051
2209.22372	0.01067
2208.25941	0.01089
2207.29511	0.01112
2206.3308	0.01132
2205.3665	0.01149
2204.40219	0.01163
2203.43788	0.01185
2202.47358	0.0121
2201.50927	0.01238
2200.54497	0.0126
2199.58066	0.01278
2198.61636	0.0129
2197.65205	0.01304
2196.68775	0.0132
2195.72344	0.01342
2194.75914	0.01359
2193.79483	0.01373
2192.83052	0.01384
2191.86622	0.01395
2190.90191	0.01407
2189.93761	0.01424
2188.9733	0.01443
2188.009	0.01457
2187.04469	0.01467
2186.08039	0.01479
2185.11608	0.0149
2184.15178	0.01504
2183.18747	0.01519
2182.22317	0.01533
2181.25886	0.01541
2180.29455	0.0155
2179.33025	0.01559
2178.36594	0.01568
2177.40164	0.01577
2176.43733	0.01591
2175.47303	0.01602
2174.50872	0.01608
2173.54442	0.01612
2172.58011	0.0162
2171.61581	0.0163
2170.6515	0.0164
2169.68719	0.01653
2168.72289	0.01663
2167.75858	0.0167
2166.79428	0.01678
2165.82997	0.01687
2164.86567	0.01696
2163.90136	0.01707
2162.93706	0.01715
2161.97275	0.01718
2161.00845	0.0172
2160.04414	0.01723
2159.07984	0.01726
2158.11553	0.01726
2157.15122	0.01721
2156.18692	0.01715
2155.22261	0.01707
2154.25831	0.01699
2153.294	0.01691
2152.3297	0.01683
2151.36539	0.01672
2150.40109	0.01663
2149.43678	0.01655
2148.47248	0.01644
2147.50817	0.01637
2146.54386	0.01631
2145.57956	0.01628
2144.61525	0.01624
2143.65095	0.01616
2142.68664	0.01609
2141.72234	0.01602
2140.75803	0.01597
2139.79373	0.01594
2138.82942	0.0159
2137.86512	0.01583
2136.90081	0.01578
2135.93651	0.01576
2134.9722	0.01575
2134.00789	0.01577
2133.04359	0.01576
2132.07928	0.01571
2131.11498	0.01567
2130.15067	0.01566
2129.18637	0.01565
2128.22206	0.01564
2127.25776	0.01563
2126.29345	0.01558
2125.32915	0.01554
2124.36484	0.01555
2123.40053	0.01559
2122.43623	0.01559
2121.47192	0.01558
2120.50762	0.01555
2119.54331	0.01551
2118.57901	0.01547
2117.6147	0.01545
2116.6504	0.01544
2115.68609	0.01542
2114.72179	0.01536
2113.75748	0.01529
2112.79318	0.01523
2111.82887	0.0152
2110.86456	0.01522
2109.90026	0.01524
2108.93595	0.01524
2107.97165	0.01521
2107.00734	0.01519
2106.04304	0.01516
2105.07873	0.01516
2104.11443	0.0152
2103.15012	0.01522
2102.18582	0.01519
2101.22151	0.01514
2100.2572	0.0151
2099.2929	0.0151
2098.32859	0.01517
2097.36429	0.01526
2096.39998	0.01532
2095.43568	0.01534
2094.47137	0.01535
2093.50707	0.01542
2092.54276	0.0155
2091.57846	0.0156
2090.61415	0.01564
2089.64984	0.01563
2088.68554	0.01558
2087.72123	0.01557
2086.75693	0.01561
2085.79262	0.01564
2084.82832	0.01567
2083.86401	0.01563
2082.89971	0.01556
2081.9354	0.0155
2080.9711	0.0155
2080.00679	0.01551
2079.04249	0.0155
2078.07818	0.01548
2077.11387	0.01542
2076.14957	0.01536
2075.18526	0.01537
2074.22096	0.01545
2073.25665	0.01553
2072.29235	0.0156
2071.32804	0.01562
2070.36374	0.01564
2069.39943	0.01571
2068.43513	0.01584
2067.47082	0.016
2066.50651	0.01611
2065.54221	0.01617
2064.5779	0.0162
2063.6136	0.01621
2062.64929	0.01631
2061.68499	0.01643
2060.72068	0.01651
2059.75638	0.01649
2058.79207	0.01643
2057.82777	0.01636
2056.86346	0.01629
2055.89916	0.01624
2054.93485	0.01619
2053.97054	0.01607
2053.00624	0.01588
2052.04193	0.01569
2051.07763	0.01555
2050.11332	0.01547
2049.14902	0.01539
2048.18471	0.01526
2047.22041	0.01506
2046.2561	0.01483
2045.2918	0.01463
2044.32749	0.01452
2043.36318	0.01437
2042.39888	0.01418
2041.43457	0.01391
2040.47027	0.01357
2039.50596	0.01324
2038.54166	0.01301
2037.57735	0.01283
2036.61305	0.01261
2035.64874	0.01231
2034.68444	0.01195
2033.72013	0.01162
2032.75583	0.01136
2031.79152	0.01117
2030.82721	0.01096
2029.86291	0.01068
2028.8986	0.01036
2027.9343	0.01005
2026.96999	0.00979
2026.00569	0.00959
2025.04138	0.00939
2024.07708	0.00914
2023.11277	0.00888
2022.14847	0.0086
2021.18416	0.00837
2020.21985	0.0082
2019.25555	0.00811
2018.29124	0.00799
2017.32694	0.00783
2016.36263	0.00764
2015.39833	0.00748
2014.43402	0.00741
2013.46972	0.00742
2012.50541	0.00743
2011.54111	0.00737
2010.5768	0.00725
2009.6125	0.00716
2008.64819	0.0071
2007.68388	0.00707
2006.71958	0.00705
2005.75527	0.007
2004.79097	0.00689
2003.82666	0.00679
2002.86236	0.00675
2001.89805	0.00677
2000.93375	0.00681
1999.96944	0.00681
1999.00514	0.00677
1998.04083	0.0067
1997.07652	0.00664
1996.11222	0.00665
1995.14791	0.00667
1994.18361	0.00669
1993.2193	0.00666
1992.255	0.00664
1991.29069	0.00654
1990.32639	0.00644
1989.36208	0.00644
1988.39778	0.00645
1987.43347	0.00641
1986.46917	0.00637
1985.50486	0.00633
1984.54055	0.00632
1983.57625	0.00635
1982.61194	0.00639
1981.64764	0.00641
1980.68333	0.00641
1979.71903	0.00642
1978.75472	0.00641
1977.79042	0.00643
1976.82611	0.00652
1975.86181	0.00658
1974.8975	0.00659
1973.93319	0.00658
1972.96889	0.00659
1972.00458	0.00661
1971.04028	0.0067
1970.07597	0.00682
1969.11167	0.00691
1968.14736	0.00699
1967.18306	0.00709
1966.21875	0.00713
1965.25445	0.00719
1964.29014	0.00732
1963.32583	0.00745
1962.36153	0.00754
1961.39722	0.0076
1960.43292	0.00769
1959.46861	0.0078
1958.50431	0.00792
1957.54	0.00805
1956.5757	0.00816
1955.61139	0.00822
1954.64709	0.00827
1953.68278	0.00833
1952.71848	0.00844
1951.75417	0.00856
1950.78986	0.00864
1949.82556	0.00865
1948.86125	0.00861
1947.89695	0.00856
1946.93264	0.00857
1945.96834	0.0086
1945.00403	0.0086
1944.03973	0.00858
1943.07542	0.00861
1942.11112	0.00854
1941.14681	0.00841
1940.1825	0.00839
1939.2182	0.00838
1938.25389	0.00833
1937.28959	0.00823
1936.32528	0.00812
1935.36098	0.00803
1934.39667	0.00801
1933.43237	0.008
1932.46806	0.00793
1931.50376	0.00782
1930.53945	0.00768
1929.57515	0.00759
1928.61084	0.00759
1927.64653	0.00764
1926.68223	0.00761
1925.71792	0.00753
1924.75362	0.00744
1923.78931	0.00741
1922.82501	0.00741
1921.8607	0.00736
1920.8964	0.0073
1919.93209	0.00726
1918.96779	0.00731
1918.00348	0.00736
1917.03917	0.0072
1916.07487	0.00705
1915.11056	0.00708
1914.14626	0.00708
1913.18195	0.00704
1912.21765	0.00698
1911.25334	0.00697
1910.28904	0.00705
1909.32473	0.00712
1908.36043	0.00717
1907.39612	0.00718
1906.43182	0.00714
1905.46751	0.00714
1904.5032	0.00721
1903.5389	0.0073
1902.57459	0.00737
1901.61029	0.00739
1900.64598	0.00734
1899.68168	0.00726
1898.71737	0.00722
1897.75307	0.00723
1896.78876	0.00725
1895.82446	0.00731
1894.86015	0.00733
1893.89584	0.00728
1892.93154	0.00728
1891.96723	0.00736
1891.00293	0.00748
1890.03862	0.0077
1889.07432	0.00782
1888.11001	0.0078
1887.14571	0.00777
1886.1814	0.00778
1885.2171	0.00786
1884.25279	0.00794
1883.28849	0.00802
1882.32418	0.00806
1881.35987	0.00804
1880.39557	0.008
1879.43126	0.00801
1878.46696	0.0081
1877.50265	0.00816
1876.53835	0.00816
1875.57404	0.0081
1874.60974	0.00804
1873.64543	0.00801
1872.68113	0.00802
1871.71682	0.00806
1870.75251	0.00818
1869.78821	0.00836
1868.8239	0.00835
1867.8596	0.00817
1866.89529	0.00802
1865.93099	0.00797
1864.96668	0.00796
1864.00238	0.00792
1863.03807	0.00783
1862.07377	0.00773
1861.10946	0.00768
1860.14516	0.0077
1859.18085	0.00776
1858.21654	0.0078
1857.25224	0.00773
1856.28793	0.00758
1855.32363	0.00747
1854.35932	0.00746
1853.39502	0.00755
1852.43071	0.00761
1851.46641	0.00757
1850.5021	0.00742
1849.5378	0.00733
1848.57349	0.00743
1847.60918	0.00761
1846.64488	0.00774
1845.68057	0.00789
1844.71627	0.0082
1843.75196	0.00814
1842.78766	0.00782
1841.82335	0.00784
1840.85905	0.00802
1839.89474	0.00808
1838.93044	0.00801
1837.96613	0.00792
1837.00182	0.00795
1836.03752	0.00806
1835.07321	0.00826
1834.10891	0.00841
1833.1446	0.00842
1832.1803	0.00833
1831.21599	0.00842
1830.25169	0.00883
1829.28738	0.00912
1828.32308	0.00917
1827.35877	0.00916
1826.39447	0.00921
1825.43016	0.00938
1824.46585	0.00944
1823.50155	0.00956
1822.53724	0.00985
1821.57294	0.00999
1820.60863	0.00993
1819.64433	0.00986
1818.68002	0.00999
1817.71572	0.01033
1816.75141	0.01067
1815.78711	0.01086
1814.8228	0.01084
1813.85849	0.01077
1812.89419	0.01087
1811.92988	0.01122
1810.96558	0.01167
1810.00127	0.0119
1809.03697	0.01184
1808.07266	0.01173
1807.10836	0.01172
1806.14405	0.01191
1805.17975	0.0123
1804.21544	0.01261
1803.25114	0.01276
1802.28683	0.0128
1801.32252	0.0128
1800.35822	0.01303
1799.39391	0.01341
1798.42961	0.01364
1797.4653	0.01377
1796.501	0.01383
1795.53669	0.01381
1794.57239	0.01395
1793.60808	0.01458
1792.64378	0.0153
1791.67947	0.01548
1790.71516	0.01532
1789.75086	0.01512
1788.78655	0.01516
1787.82225	0.01554
1786.85794	0.016
1785.89364	0.0164
1784.92933	0.01659
1783.96503	0.01644
1783.00072	0.01641
1782.03642	0.0168
1781.07211	0.01743
1780.10781	0.01783
1779.1435	0.01781
1778.17919	0.01773
1777.21489	0.01783
1776.25058	0.01829
1775.28628	0.01882
1774.32197	0.01922
1773.35767	0.01973
1772.39336	0.02003
1771.42906	0.02004
1770.46475	0.02012
1769.50045	0.02061
1768.53614	0.02137
1767.57183	0.02166
1766.60753	0.02151
1765.64322	0.02156
1764.67892	0.02192
1763.71461	0.02247
1762.75031	0.02323
1761.786	0.02386
1760.8217	0.02391
1759.85739	0.02387
1758.89309	0.02417
1757.92878	0.0248
1756.96448	0.02559
1756.00017	0.02599
1755.03586	0.02609
1754.07156	0.02627
1753.10725	0.02665
1752.14295	0.02756
1751.17864	0.02853
1750.21434	0.02892
1749.25003	0.0292
1748.28573	0.02952
1747.32142	0.0298
1746.35712	0.03029
1745.39281	0.03095
1744.4285	0.03168
1743.4642	0.03229
1742.49989	0.03257
1741.53559	0.03288
1740.57128	0.03367
1739.60698	0.03455
1738.64267	0.03505
1737.67837	0.03547
1736.71406	0.03587
1735.74976	0.03652
1734.78545	0.03768
1733.82115	0.03858
1732.85684	0.03887
1731.89253	0.03911
1730.92823	0.03957
1729.96392	0.04006
1728.99962	0.04039
1728.03531	0.04087
1727.07101	0.04158
1726.1067	0.04224
1725.1424	0.04273
1724.17809	0.04309
1723.21379	0.04344
1722.24948	0.04384
1721.28517	0.04438
1720.32087	0.04505
1719.35656	0.04576
1718.39226	0.04638
1717.42795	0.04654
1716.46365	0.04656
1715.49934	0.047
1714.53504	0.04759
1713.57073	0.04779
1712.60643	0.04779
1711.64212	0.0479
1710.67781	0.04823
1709.71351	0.04872
1708.7492	0.04921
1707.7849	0.04984
1706.82059	0.05042
1705.85629	0.05074
1704.89198	0.05102
1703.92768	0.05146
1702.96337	0.05203
1701.99907	0.05294
1701.03476	0.05432
1700.07046	0.05505
1699.10615	0.05485
1698.14184	0.05502
1697.17754	0.05601
1696.21323	0.05744
1695.24893	0.05832
1694.28462	0.05853
1693.32032	0.059
1692.35601	0.05982
1691.39171	0.06093
1690.4274	0.06225
1689.4631	0.06346
1688.49879	0.0645
1687.53448	0.06537
1686.57018	0.06635
1685.60587	0.06792
1684.64157	0.06982
1683.67726	0.0713
1682.71296	0.07223
1681.74865	0.07308
1680.78435	0.0743
1679.82004	0.07574
1678.85574	0.07726
1677.89143	0.07888
1676.92713	0.08057
1675.96282	0.08247
1674.99851	0.08412
1674.03421	0.08528
1673.0699	0.08691
1672.1056	0.08912
1671.14129	0.09119
1670.17699	0.09319
1669.21268	0.09526
1668.24838	0.09708
1667.28407	0.09907
1666.31977	0.10154
1665.35546	0.10417
1664.39115	0.10689
1663.42685	0.10986
1662.46254	0.11291
1661.49824	0.11595
1660.53393	0.11933
1659.56963	0.123
1658.60532	0.1267
1657.64102	0.13044
1656.67671	0.13416
1655.71241	0.13802
1654.7481	0.14205
1653.7838	0.14589
1652.81949	0.14877
1651.85518	0.15014
1650.89088	0.15088
1649.92657	0.15172
1648.96227	0.15273
1647.99796	0.15379
1647.03366	0.15486
1646.06935	0.15607
1645.10505	0.15712
1644.14074	0.15824
1643.17644	0.15943
1642.21213	0.15998
1641.24782	0.15936
1640.28352	0.15733
1639.31921	0.15401
1638.35491	0.14993
1637.3906	0.14554
1636.4263	0.14122
1635.46199	0.13718
1634.49769	0.13284
1633.53338	0.12871
1632.56908	0.12526
1631.60477	0.12214
1630.64047	0.11917
1629.67616	0.11616
1628.71185	0.11312
1627.74755	0.10983
1626.78324	0.10613
1625.81894	0.10242
1624.85463	0.09894
1623.89033	0.09564
1622.92602	0.09201
1621.96172	0.0882
1620.99741	0.08464
1620.03311	0.08132
1619.0688	0.07822
1618.10449	0.0755
1617.14019	0.07318
1616.17588	0.0706
1615.21158	0.06778
1614.24727	0.06538
1613.28297	0.06337
1612.31866	0.06155
1611.35436	0.05987
1610.39005	0.05837
1609.42575	0.057
1608.46144	0.05568
1607.49714	0.05452
1606.53283	0.0535
1605.56852	0.0526
1604.60422	0.05179
1603.63991	0.05107
1602.67561	0.0504
1601.7113	0.04977
1600.747	0.04924
1599.78269	0.04873
1598.81839	0.04823
1597.85408	0.04778
1596.88978	0.04735
1595.92547	0.04694
1594.96116	0.04659
1593.99686	0.0463
1593.03255	0.04606
1592.06825	0.04584
1591.10394	0.04563
1590.13964	0.04543
1589.17533	0.04524
1588.21103	0.04516
1587.24672	0.04517
1586.28242	0.0452
1585.31811	0.04519
1584.3538	0.04514
1583.3895	0.04518
1582.42519	0.04527
1581.46089	0.04548
1580.49658	0.04568
1579.53228	0.04586
1578.56797	0.04601
1577.60367	0.04628
1576.63936	0.04682
1575.67506	0.04707
1574.71075	0.047
1573.74645	0.0471
1572.78214	0.04726
1571.81783	0.04739
1570.85353	0.04777
1569.88922	0.04838
1568.92492	0.04864
1567.96061	0.0486
1566.99631	0.04874
1566.032	0.04903
1565.0677	0.04942
1564.10339	0.04968
1563.13909	0.04989
1562.17478	0.05025
1561.21047	0.05085
1560.24617	0.05165
1559.28186	0.05216
1558.31756	0.05255
1557.35325	0.05272
1556.38895	0.05256
1555.42464	0.05288
1554.46034	0.05348
1553.49603	0.05362
1552.53173	0.05368
1551.56742	0.05411
1550.60312	0.05486
1549.63881	0.05541
1548.6745	0.0556
1547.7102	0.05582
1546.74589	0.05626
1545.78159	0.05699
1544.81728	0.05768
1543.85298	0.05814
1542.88867	0.05886
1541.92437	0.05949
1540.96006	0.05976
1539.99576	0.0603
1539.03145	0.06085
1538.06714	0.06103
1537.10284	0.06117
1536.13853	0.0615
1535.17423	0.06203
1534.20992	0.06279
1533.24562	0.06341
1532.28131	0.06372
1531.31701	0.06409
1530.3527	0.0645
1529.3884	0.06495
1528.42409	0.06557
1527.45979	0.06614
1526.49548	0.06681
1525.53117	0.06752
1524.56687	0.06795
1523.60256	0.06835
1522.63826	0.0691
1521.67395	0.07008
1520.70965	0.07075
1519.74534	0.07093
1518.78104	0.07122
1517.81673	0.07203
1516.85243	0.07265
1515.88812	0.07295
1514.92381	0.07341
1513.95951	0.07396
1512.9952	0.07472
1512.0309	0.07537
1511.06659	0.07576
1510.10229	0.07637
1509.13798	0.07717
1508.17368	0.07814
1507.20937	0.07916
1506.24507	0.07988
1505.28076	0.08021
1504.31646	0.08049
1503.35215	0.08113
1502.38784	0.08208
1501.42354	0.08308
1500.45923	0.08407
1499.49493	0.08524
1498.53062	0.08628
1497.56632	0.08715
1496.60201	0.08846
1495.63771	0.08974
1494.6734	0.09079
1493.7091	0.092
1492.74479	0.09332
1491.78048	0.09489
1490.81618	0.09681
1489.85187	0.0987
1488.88757	0.1004
1487.92326	0.10225
1486.95896	0.10423
1485.99465	0.10618
1485.03035	0.10842
1484.06604	0.11103
1483.10174	0.1139
1482.13743	0.11703
1481.17313	0.12036
1480.20882	0.12395
1479.24451	0.12793
1478.28021	0.13217
1477.3159	0.13632
1476.3516	0.13953
1475.38729	0.1412
1474.42299	0.14228
1473.45868	0.14382
1472.49438	0.1458
1471.53007	0.14819
1470.56577	0.15097
1469.60146	0.15427
1468.63715	0.15795
1467.67285	0.16191
1466.70854	0.16644
1465.74424	0.17174
1464.77993	0.17768
1463.81563	0.18364
1462.85132	0.18917
1461.88702	0.19339
1460.92271	0.19544
1459.95841	0.19592
1458.9941	0.19561
1458.02979	0.19526
1457.06549	0.19503
1456.10118	0.19447
1455.13688	0.19423
1454.17257	0.19572
1453.20827	0.19947
1452.24396	0.20449
1451.27966	0.2083
1450.31535	0.20846
1449.35105	0.20519
1448.38674	0.20075
1447.42244	0.19689
1446.45813	0.19431
1445.49382	0.19312
1444.52952	0.19294
1443.56521	0.19331
1442.60091	0.19409
1441.6366	0.19518
1440.6723	0.19643
1439.70799	0.19778
1438.74369	0.19913
1437.77938	0.20072
1436.81508	0.20226
1435.85077	0.20297
1434.88646	0.2034
1433.92216	0.20428
1432.95785	0.20536
1431.99355	0.20648
1431.02924	0.20782
1430.06494	0.20939
1429.10063	0.21105
1428.13633	0.21288
1427.17202	0.21504
1426.20772	0.21727
1425.24341	0.21958
1424.27911	0.22202
1423.3148	0.22436
1422.35049	0.22669
1421.38619	0.22924
1420.42188	0.23222
1419.45758	0.23531
1418.49327	0.23791
1417.52897	0.24051
1416.56466	0.24342
1415.60036	0.24643
1414.63605	0.2496
1413.67175	0.25275
1412.70744	0.25571
1411.74313	0.25812
1410.77883	0.25949
1409.81452	0.25945
1408.85022	0.25795
1407.88591	0.25553
1406.92161	0.25311
1405.9573	0.25138
1404.993	0.24999
1404.02869	0.24781
1403.06439	0.244
1402.10008	0.23802
1401.13578	0.23007
1400.17147	0.22131
1399.20716	0.213
1398.24286	0.20589
1397.27855	0.20027
1396.31425	0.19598
1395.34994	0.19262
1394.38564	0.1898
1393.42133	0.18756
1392.45703	0.18648
1391.49272	0.18674
1390.52842	0.18803
1389.56411	0.18999
1388.5998	0.19213
1387.6355	0.19347
1386.67119	0.19262
1385.70689	0.18954
1384.74258	0.18549
1383.77828	0.18174
1382.81397	0.17919
1381.84967	0.17805
1380.88536	0.17829
1379.92106	0.17982
1378.95675	0.18257
1377.99245	0.18632
1377.02814	0.1907
1376.06383	0.19556
1375.09953	0.20079
1374.13522	0.20626
1373.17092	0.21184
1372.20661	0.2176
1371.24231	0.22376
1370.278	0.23042
1369.3137	0.23777
1368.34939	0.24569
1367.38509	0.2536
1366.42078	0.2603
1365.45647	0.26391
1364.49217	0.26294
1363.52786	0.2572
1362.56356	0.24794
1361.59925	0.2373
1360.63495	0.22698
1359.67064	0.21776
1358.70634	0.21022
1357.74203	0.20489
1356.77773	0.20201
1355.81342	0.20137
1354.84911	0.20222
1353.88481	0.2038
1352.9205	0.20572
1351.9562	0.20804
1350.99189	0.21096
1350.02759	0.21453
1349.06328	0.21861
1348.09898	0.22306
1347.13467	0.22761
1346.17037	0.23192
1345.20606	0.23578
1344.24176	0.23895
1343.27745	0.24101
1342.31314	0.24149
1341.34884	0.24002
1340.38453	0.23674
1339.42023	0.2326
1338.45592	0.22912
1337.49162	0.22741
1336.52731	0.22756
1335.56301	0.22879
1334.5987	0.23004
1333.6344	0.2306
1332.67009	0.2302
1331.70578	0.2291
1330.74148	0.22757
1329.77717	0.22559
1328.81287	0.22321
1327.84856	0.2205
1326.88426	0.2172
1325.91995	0.21288
1324.95565	0.20752
1323.99134	0.20163
1323.02704	0.19552
1322.06273	0.18891
1321.09843	0.1815
1320.13412	0.17387
1319.16981	0.16695
1318.20551	0.16137
1317.2412	0.15696
1316.2769	0.15314
1315.31259	0.14964
1314.34829	0.14687
1313.38398	0.14522
1312.41968	0.14463
1311.45537	0.14495
1310.49107	0.14607
1309.52676	0.14777
1308.56245	0.14981
1307.59815	0.1524
1306.63384	0.15593
1305.66954	0.16013
1304.70523	0.16365
1303.74093	0.16473
1302.77662	0.16274
1301.81232	0.15861
1300.84801	0.15416
1299.88371	0.15065
1298.9194	0.14839
1297.9551	0.14696
1296.99079	0.14555
1296.02648	0.14376
1295.06218	0.14171
1294.09787	0.1399
1293.13357	0.13886
1292.16926	0.13888
1291.20496	0.14012
1290.24065	0.14236
1289.27635	0.14484
1288.31204	0.1464
1287.34774	0.14609
1286.38343	0.14391
1285.41912	0.14066
1284.45482	0.13744
1283.49051	0.13505
1282.52621	0.13365
1281.5619	0.1328
1280.5976	0.13186
1279.63329	0.13051
1278.66899	0.12874
1277.70468	0.12685
1276.74038	0.12509
1275.77607	0.12345
1274.81177	0.12181
1273.84746	0.1203
1272.88315	0.11931
1271.91885	0.11916
1270.95454	0.12002
1269.99024	0.12183
1269.02593	0.12436
1268.06163	0.12742
1267.09732	0.13098
1266.13302	0.1349
1265.16871	0.13885
1264.20441	0.14244
1263.2401	0.14551
1262.27579	0.148
1261.31149	0.14997
1260.34718	0.15146
1259.38288	0.15248
1258.41857	0.15312
1257.45427	0.15346
1256.48996	0.15366
1255.52566	0.15384
1254.56135	0.15423
1253.59705	0.15513
1252.63274	0.15655
1251.66844	0.15835
1250.70413	0.16022
1249.73982	0.16184
1248.77552	0.1629
1247.81121	0.16333
1246.84691	0.16323
1245.8826	0.16269
1244.9183	0.16184
1243.95399	0.1608
1242.98969	0.15961
1242.02538	0.15799
1241.06108	0.15543
1240.09677	0.15173
1239.13246	0.14711
1238.16816	0.14212
1237.20385	0.13747
1236.23955	0.13367
1235.27524	0.13087
1234.31094	0.12899
1233.34663	0.12776
1232.38233	0.12688
1231.41802	0.12632
1230.45372	0.12617
1229.48941	0.12646
1228.5251	0.12715
1227.5608	0.12814
1226.59649	0.12933
1225.63219	0.13064
1224.66788	0.13219
1223.70358	0.13413
1222.73927	0.13636
1221.77497	0.13851
1220.81066	0.14039
1219.84636	0.14198
1218.88205	0.14354
1217.91775	0.14544
1216.95344	0.1478
1215.98913	0.15062
1215.02483	0.15362
1214.06052	0.15639
1213.09622	0.15869
1212.13191	0.16062
1211.16761	0.16257
1210.2033	0.16484
1209.239	0.16762
1208.27469	0.17092
1207.31039	0.17465
1206.34608	0.17871
1205.38177	0.18302
1204.41747	0.18722
1203.45316	0.19048
1202.48886	0.1919
1201.52455	0.19113
1200.56025	0.18872
1199.59594	0.18592
1198.63164	0.18384
1197.66733	0.18294
1196.70303	0.18297
1195.73872	0.18362
1194.77442	0.18473
1193.81011	0.18631
1192.8458	0.18838
1191.8815	0.19105
1190.91719	0.19415
1189.95289	0.19747
1188.98858	0.20111
1188.02428	0.20512
1187.05997	0.20946
1186.09567	0.21428
1185.13136	0.2196
1184.16706	0.22531
1183.20275	0.23131
1182.23844	0.23765
1181.27414	0.24452
1180.30983	0.25208
1179.34553	0.26036
1178.38122	0.26931
1177.41692	0.27891
1176.45261	0.28918
1175.48831	0.30032
1174.524	0.31269
1173.5597	0.3265
1172.59539	0.34171
1171.63109	0.35831
1170.66678	0.37635
1169.70247	0.39594
1168.73817	0.41738
1167.77386	0.44105
1166.80956	0.46717
1165.84525	0.49571
1164.88095	0.52648
1163.91664	0.55913
1162.95234	0.5932
1161.98803	0.62797
1161.02373	0.66228
1160.05942	0.69371
1159.09511	0.71897
1158.13081	0.73501
1157.1665	0.74034
1156.2022	0.73571
1155.23789	0.72321
1154.27359	0.70555
1153.30928	0.68488
1152.34498	0.66214
1151.38067	0.63729
1150.41637	0.6102
1149.45206	0.58152
1148.48776	0.5524
1147.52345	0.52368
1146.55914	0.4959
1145.59484	0.46948
1144.63053	0.44443
1143.66623	0.42093
1142.70192	0.39989
1141.73762	0.3824
1140.77331	0.36879
1139.80901	0.35841
1138.8447	0.34999
1137.8804	0.3426
1136.91609	0.33587
1135.95178	0.33002
1134.98748	0.32531
1134.02317	0.32191
1133.05887	0.32028
1132.09456	0.32122
1131.13026	0.32484
1130.16595	0.3301
1129.20165	0.33513
1128.23734	0.33835
1127.27304	0.33961
1126.30873	0.33986
1125.34443	0.34016
1124.38012	0.34107
1123.41581	0.3426
1122.45151	0.34472
1121.4872	0.34736
1120.5229	0.35046
1119.55859	0.35413
1118.59429	0.35844
1117.62998	0.36321
1116.66568	0.36822
1115.70137	0.37358
1114.73707	0.37969
1113.77276	0.3869
1112.80845	0.39501
1111.84415	0.40367
1110.87984	0.41284
1109.91554	0.42248
1108.95123	0.43141
1107.98693	0.43792
1107.02262	0.44152
1106.05832	0.4436
1105.09401	0.4467
1104.12971	0.45267
1103.1654	0.46163
1102.20109	0.47212
1101.23679	0.48259
1100.27248	0.49261
1099.30818	0.50269
1098.34387	0.51288
1097.37957	0.52236
1096.41526	0.53019
1095.45096	0.53569
1094.48665	0.53821
1093.52235	0.53708
1092.55804	0.53325
1091.59374	0.53015
1090.62943	0.53181
1089.66512	0.54
1088.70082	0.55354
1087.73651	0.56994
1086.77221	0.58703
1085.8079	0.60367
1084.8436	0.61976
1083.87929	0.636
1082.91499	0.65324
1081.95068	0.6717
1080.98638	0.69069
1080.02207	0.70851
1079.05776	0.72337
1078.09346	0.73301
1077.12915	0.73424
1076.16485	0.72461
1075.20054	0.70422
1074.23624	0.67619
1073.27193	0.64421
1072.30763	0.61106
1071.34332	0.5793
1070.37902	0.55232
1069.41471	0.53412
1068.45041	0.52784
1067.4861	0.53507
1066.52179	0.55549
1065.55749	0.58732
1064.59318	0.6279
1063.62888	0.67399
1062.66457	0.72131
1061.70027	0.7647
1060.73596	0.79944
1059.77166	0.82218
1058.80735	0.83207
1057.84305	0.83061
1056.87874	0.81961
1055.91443	0.80032
1054.95013	0.77617
1053.98582	0.75393
1053.02152	0.73964
1052.05721	0.73636
1051.09291	0.74391
1050.1286	0.75971
1049.1643	0.78062
1048.19999	0.80501
1047.23569	0.83336
1046.27138	0.86538
1045.30708	0.89797
1044.34277	0.92524
1043.37846	0.94186
1042.41416	0.94764
1041.44985	0.94746
1040.48555	0.94754
1039.52124	0.95066
1038.55694	0.95607
1037.59263	0.96235
1036.62833	0.96841
1035.66402	0.97352
1034.69972	0.97768
1033.73541	0.98175
1032.7711	0.98609
1031.8068	0.99011
1030.84249	0.99281
1029.87819	0.99406
1028.91388	0.99526
1027.94958	0.99773
1026.98527	1
1026.02097	0.99792
1025.05666	0.98797
1024.09236	0.96957
1023.12805	0.94467
1022.16375	0.91665
1021.19944	0.88872
1020.23513	0.86225
1019.27083	0.83584
1018.30652	0.80754
1017.34222	0.77769
1016.37791	0.74846
1015.41361	0.72185
1014.4493	0.69886
1013.485	0.67962
1012.52069	0.66384
1011.55639	0.65087
1010.59208	0.63965
1009.62777	0.62876
1008.66347	0.61712
1007.69916	0.60476
1006.73486	0.59334
1005.77055	0.58587
1004.80625	0.58484
1003.84194	0.59032
1002.87764	0.60033
1001.91333	0.61298
1000.94903	0.62648
999.98472	0.63743
999.02042	0.64169
998.05611	0.63696
997.0918	0.62372
996.1275	0.60387
995.16319	0.57975
994.19889	0.55341
993.23458	0.52616
992.27028	0.49891
991.30597	0.4722
990.34167	0.44621
989.37736	0.42114
988.41306	0.39717
987.44875	0.37456
986.48444	0.35377
985.52014	0.33496
984.55583	0.31783
983.59153	0.30198
982.62722	0.287
981.66292	0.27294
980.69861	0.26001
979.73431	0.24813
978.77	0.23722
977.8057	0.22701
976.84139	0.21724
975.87708	0.20777
974.91278	0.19869
973.94847	0.19031
972.98417	0.18263
972.01986	0.17538
971.05556	0.16831
970.09125	0.16128
969.12695	0.15447
968.16264	0.14814
967.19834	0.14238
966.23403	0.13718
965.26973	0.13235
964.30542	0.12762
963.34111	0.12322
962.37681	0.11964
961.4125	0.11731
960.4482	0.11656
959.48389	0.11766
958.51959	0.12105
957.55528	0.12771
956.59098	0.13877
955.62667	0.15482
954.66237	0.17482
953.69806	0.19488
952.73375	0.20923
951.76945	0.21343
950.80514	0.20711
949.84084	0.19355
948.87653	0.17686
947.91223	0.16022
946.94792	0.14562
945.98362	0.1341
945.01931	0.1264
944.05501	0.12311
943.0907	0.12461
942.1264	0.13004
941.16209	0.13711
940.19778	0.1431
939.23348	0.14608
938.26917	0.14552
937.30487	0.14173
936.34056	0.13545
935.37626	0.12731
934.41195	0.11791
933.44765	0.10809
932.48334	0.09875
931.51904	0.09068
930.55473	0.08447
929.59042	0.08021
928.62612	0.07746
927.66181	0.0756
926.69751	0.07389
925.7332	0.07158
924.7689	0.06857
923.80459	0.06546
922.84029	0.0628
921.87598	0.06063
920.91168	0.05857
919.94737	0.05602
918.98307	0.05274
918.01876	0.04904
917.05445	0.04533
916.09015	0.04189
915.12584	0.03895
914.16154	0.03686
913.19723	0.03562
912.23293	0.03463
911.26862	0.03326
910.30432	0.03135
909.34001	0.0294
908.37571	0.02814
907.4114	0.02853
906.44709	0.03078
905.48279	0.03397
904.51848	0.03672
903.55418	0.03795
902.58987	0.03717
901.62557	0.03448
900.66126	0.03073
899.69696	0.02654
898.73265	0.02209
897.76835	0.01771
896.80404	0.01376
895.83974	0.01064
894.87543	0.0086
893.91112	0.00757
892.94682	0.00728
891.98251	0.00731
891.01821	0.00727
890.0539	0.00702
889.0896	0.0067
888.12529	0.0063
887.16099	0.00587
886.19668	0.00509
885.23238	0.00382
884.26807	0.0025
883.30376	0.00163
882.33946	0.00163
881.37515	0.00249
880.41085	0.00374
879.44654	0.00487
878.48224	0.00581
877.51793	0.0069
876.55363	0.00861
875.58932	0.01116
874.62502	0.01432
873.66071	0.01774
872.69641	0.0215
871.7321	0.02623
870.76779	0.03287
869.80349	0.04196
868.83918	0.05295
867.87488	0.06413
866.91057	0.07298
865.94627	0.07732
864.98196	0.07682
864.01766	0.07308
863.05335	0.06816
862.08905	0.06325
861.12474	0.0588
860.16043	0.05512
859.19613	0.05277
858.23182	0.05238
857.26752	0.05393
856.30321	0.05665
855.33891	0.05914
854.3746	0.06002
853.4103	0.05902
852.44599	0.05732
851.48169	0.05635
850.51738	0.05692
849.55307	0.05913
848.58877	0.06281
847.62446	0.06744
846.66016	0.07228
845.69585	0.07657
844.73155	0.07979
843.76724	0.08151
842.80294	0.08139
841.83863	0.07937
840.87433	0.07599
839.91002	0.0725
838.94572	0.06959
837.98141	0.06675
837.0171	0.06322
836.0528	0.05897
835.08849	0.05453
834.12419	0.05076
833.15988	0.04828
832.19558	0.04655
831.23127	0.04469
830.26697	0.04236
829.30266	0.03998
828.33836	0.03845
827.37405	0.03809
826.40974	0.03862
825.44544	0.03932
824.48113	0.03943
823.51683	0.03895
822.55252	0.03877
821.58822	0.03972
820.62391	0.04153
819.65961	0.04337
818.6953	0.04451
817.731	0.04482
816.76669	0.04506
815.80239	0.04612
814.83808	0.04804
813.87377	0.05016
812.90947	0.05159
811.94516	0.05194
810.98086	0.05195
810.01655	0.05267
809.05225	0.05438
808.08794	0.05628
807.12364	0.05747
806.15933	0.0577
805.19503	0.05747
804.23072	0.05767
803.26641	0.05892
802.30211	0.06088
801.3378	0.06257
800.3735	0.06317
799.40919	0.06264
798.44489	0.06178
797.48058	0.0613
796.51628	0.06138
795.55197	0.06141
794.58767	0.06044
793.62336	0.05864
792.65906	0.05694
791.69475	0.05629
790.73044	0.05711
789.76614	0.05848
788.80183	0.05902
787.83753	0.05856
786.87322	0.05806
785.90892	0.05832
784.94461	0.05943
783.98031	0.06048
783.016	0.06034
782.0517	0.05885
781.08739	0.05714
780.12308	0.05643
779.15878	0.05711
778.19447	0.05862
777.23017	0.05985
776.26586	0.06022
775.30156	0.06016
774.33725	0.06089
773.37295	0.0632
772.40864	0.0667
771.44434	0.07045
770.48003	0.07387
769.51573	0.07739
768.55142	0.08201
767.58711	0.08875
766.62281	0.09777
765.6585	0.1079
764.6942	0.1177
763.72989	0.12626
762.76559	0.13326
761.80128	0.13824
760.83698	0.14012
759.87267	0.13728
758.90837	0.1292
757.94406	0.11802
756.97975	0.107
756.01545	0.09853
755.05114	0.09358
754.08684	0.0916
753.12253	0.09084
752.15823	0.09011
751.19392	0.08938
750.22962	0.08896
749.26531	0.08895
748.30101	0.08868
747.3367	0.08749
746.3724	0.08488
745.40809	0.08112
744.44378	0.07782
743.47948	0.07608
742.51517	0.07589
741.55087	0.0764
740.58656	0.07665
739.62226	0.07649
738.65795	0.0767
737.69365	0.07784
736.72934	0.07993
735.76504	0.08244
734.80073	0.08448
733.83642	0.08591
732.87212	0.08716
731.90781	0.08905
730.94351	0.09205
729.9792	0.09537
729.0149	0.09838
728.05059	0.10102
727.08629	0.1035
726.12198	0.10636
725.15768	0.11007
724.19337	0.11482
723.22906	0.11996
722.26476	0.12492
721.30045	0.12998
720.33615	0.13563
719.37184	0.14247
718.40754	0.15067
717.44323	0.15949
716.47893	0.16812
715.51462	0.17627
714.55032	0.18393
713.58601	0.19103
712.62171	0.19708
711.6574	0.2011
710.69309	0.20195
709.72879	0.19925
708.76448	0.19386
707.80018	0.18724
706.83587	0.18041
705.87157	0.17364
704.90726	0.16686
703.94296	0.16
702.97865	0.15319
702.01435	0.14711
701.05004	0.14247
700.08573	0.13908
699.12143	0.13622
698.15712	0.13358
697.19282	0.13125
696.22851	0.12934
695.26421	0.12804
694.2999	0.12741
693.3356	0.12711
692.37129	0.12683
691.40699	0.12642
690.44268	0.12576
689.47838	0.12507
688.51407	0.1249
687.54976	0.12528
686.58546	0.12542
685.62115	0.12503
684.65685	0.12441
683.69254	0.12373
682.72824	0.12335
681.76393	0.12342
680.79963	0.12363
679.83532	0.12351
678.87102	0.12304
677.90671	0.12252
676.9424	0.12206
675.9781	0.12184
675.01379	0.12172
674.04949	0.12117
673.08518	0.12003
672.12088	0.11853
671.15657	0.11673
670.19227	0.11488
669.22796	0.11336
668.26366	0.1119
667.29935	0.11033
666.33505	0.10885
665.37074	0.10776
664.40643	0.10704
663.44213	0.10662
662.47782	0.10647
661.51352	0.10614
660.54921	0.10558
659.58491	0.10515
658.6206	0.10494
657.6563	0.10483
656.69199	0.10497
655.72769	0.10532
654.76338	0.10548
653.79907	0.10568
652.83477	0.10625
651.87046	0.10703
650.90616	0.10766
649.94185	0.10774
648.97755	0.1069
648.01324	0.10519
647.04894	0.10343
646.08463	0.10204
645.12033	0.10105
644.15602	0.10031
643.19172	0.09964
642.22741	0.09883
641.2631	0.09778
640.2988	0.09703
639.33449	0.09677
638.37019	0.09666
637.40588	0.09665
636.44158	0.09653
635.47727	0.09594
634.51297	0.09515
633.54866	0.09498
632.58436	0.09541
631.62005	0.09564
630.65574	0.09544
629.69144	0.09511
628.72713	0.09468
627.76283	0.09454
626.79852	0.09539
625.83422	0.09686
624.86991	0.09821
623.90561	0.09934
622.9413	0.10084
621.977	0.10301
621.01269	0.10605
620.04839	0.11027
619.08408	0.11523
618.11977	0.1205
617.15547	0.12597
616.19116	0.13134
615.22686	0.13642
614.26255	0.14161
613.29825	0.14671
612.33394	0.15149
611.36964	0.1567
610.40533	0.16247
609.44103	0.16826
608.47672	0.17384
607.51241	0.17927
606.54811	0.18348
605.5838	0.18498
604.6195	0.18384
603.65519	0.18081
602.69089	0.17662
601.72658	0.17188
600.76228	0.16699
599.79797	0.16204
598.83367	0.15701
597.86936	0.15199
596.90505	0.14749
595.94075	0.14406
594.97644	0.14113
594.01214	0.13862
593.04783	0.13687
592.08353	0.13592
591.11922	0.13626
590.15492	0.13776
589.19061	0.14016
588.22631	0.14368
587.262	0.14862
586.2977	0.15531
585.33339	0.16439
584.36908	0.17706
583.40478	0.19318
582.44047	0.21086
581.47617	0.22759
580.51186	0.2403
579.54756	0.24742
578.58325	0.25129
577.61895	0.25472
576.65464	0.25931
575.69034	0.26584
574.72603	0.27414
573.76172	0.28436
572.79742	0.29415
571.83311	0.29965
570.86881	0.29977
569.9045	0.29473
568.9402	0.28418
567.97589	0.26939
567.01159	0.253
566.04728	0.23558
565.08298	0.21733
564.11867	0.19928
563.15437	0.18219
562.19006	0.16676
561.22575	0.15355
560.26145	0.14278
559.29714	0.13405
558.33284	0.12661
557.36853	0.11964
556.40423	0.11308
555.43992	0.10783
554.47562	0.10427
553.51131	0.10146
552.54701	0.09839
551.5827	0.09493
550.61839	0.09133
549.65409	0.08818
548.68978	0.08635
547.72548	0.08543
546.76117	0.0844
545.79687	0.08316
544.83256	0.082
543.86826	0.08135
542.90395	0.08188
541.93965	0.08347
540.97534	0.08617
540.01104	0.08999
539.04673	0.09482
538.08242	0.1013
537.11812	0.10941
536.15381	0.11809
535.18951	0.12479
534.2252	0.12706
533.2609	0.12602
532.29659	0.12458
531.33229	0.12375
530.36798	0.1235
529.40368	0.12478
528.43937	0.12755
527.47506	0.13087
526.51076	0.134
525.54645	0.13581
524.58215	0.13556
523.61784	0.1335
522.65354	0.12974
521.68923	0.12408
520.72493	0.11774
519.76062	0.11221
518.79632	0.10792
517.83201	0.10437
516.86771	0.10045
515.9034	0.0961
514.93909	0.09152
513.97479	0.08725
513.01048	0.08421
512.04618	0.08208
511.08187	0.07998
510.11757	0.07799
509.15326	0.07608
508.18896	0.07374
507.22465	0.07183
506.26035	0.07097
505.29604	0.07106
504.33173	0.07103
503.36743	0.0694
502.40312	0.0673
501.43882	0.06629
500.47451	0.06629
499.51021	0.06616
498.5459	0.06527
497.5816	0.064
496.61729	0.0625
495.65299	0.06097
494.68868	0.06027
493.72438	0.06137
492.76007	0.06348
491.79576	0.0652
490.83146	0.06665
489.86715	0.06873
488.90285	0.07167
487.93854	0.07485
486.97424	0.07779
486.00993	0.08004
485.04563	0.08077
484.08132	0.07943
483.11702	0.0772
482.15271	0.07516
481.1884	0.07231
480.2241	0.06844
479.25979	0.06377
478.29549	0.05874
477.33118	0.05456
476.36688	0.05148
475.40257	0.04859
474.43827	0.04504
473.47396	0.04116
472.50966	0.03695
471.54535	0.03253
470.58104	0.02941
469.61674	0.02842
468.65243	0.02808
467.68813	0.02781
466.72382	0.02898
465.75952	0.03136
464.79521	0.03412
463.83091	0.03673
462.8666	0.03837
461.9023	0.03834
460.93799	0.03689
459.97369	0.03608
459.00938	0.03784
458.04507	0.0415
457.08077	0.04502
456.11646	0.04863
455.15216	0.05326
454.18785	0.05924
453.22355	0.06601
452.25924	0.07131
451.29494	0.07437
450.33063	0.07456
449.36633	0.0713
448.40202	0.06679
447.43771	0.0631
446.47341	0.05968
445.5091	0.05471
444.5448	0.04796
443.58049	0.0404
442.61619	0.03305
441.65188	0.02758
440.68758	0.02442
439.72327	0.02188
438.75897	0.0192
437.79466	0.01705
436.83036	0.01692
435.86605	0.01906
434.90174	0.02111
433.93744	0.022
432.97313	0.02124
432.00883	0.01798
431.04452	0.01391
430.08022	0.01094
429.11591	0.00949
428.15161	0.00856
427.1873	0.00603
426.223	0.00248
425.25869	4.8622E-4
424.29438	0.00128
423.33008	0.00472
422.36577	0.00957
421.40147	0.01501
420.43716	0.0212
419.47286	0.02885
418.50855	0.0397
417.54425	0.05152
416.57994	0.0603
415.61564	0.06479
414.65133	0.06451
413.68703	0.06177
412.72272	0.05886
411.75841	0.05546
410.79411	0.05087
409.8298	0.0468
408.8655	0.0442
407.90119	0.04193
406.93689	0.0421
405.97258	0.04616
405.00828	0.05164
404.04397	0.05476
403.07967	0.05407
402.11536	0.05083
401.15105	0.04743
400.18675	0.04724