3999.93888	0.00404
3998.97458	0.00402
3998.01027	0.00401
3997.04597	0.00407
3996.08166	0.00418
3995.11735	0.00418
3994.15305	0.00405
3993.18874	0.00397
3992.22444	0.00397
3991.26013	0.004
3990.29583	0.00402
3989.33152	0.00396
3988.36722	0.00386
3987.40291	0.00384
3986.43861	0.00386
3985.4743	0.00386
3984.51	0.00379
3983.54569	0.00372
3982.58138	0.0037
3981.61708	0.00366
3980.65277	0.00361
3979.68847	0.0036
3978.72416	0.00366
3977.75986	0.00373
3976.79555	0.00373
3975.83125	0.00368
3974.86694	0.00364
3973.90264	0.00363
3972.93833	0.00367
3971.97402	0.00365
3971.00972	0.00357
3970.04541	0.00356
3969.08111	0.00359
3968.1168	0.00359
3967.1525	0.00358
3966.18819	0.00358
3965.22389	0.00358
3964.25958	0.00351
3963.29528	0.00352
3962.33097	0.0036
3961.36667	0.0036
3960.40236	0.00354
3959.43805	0.00349
3958.47375	0.00348
3957.50944	0.00346
3956.54514	0.00342
3955.58083	0.00344
3954.61653	0.00344
3953.65222	0.00343
3952.68792	0.00344
3951.72361	0.00346
3950.75931	0.00357
3949.795	0.00363
3948.83069	0.0036
3947.86639	0.00361
3946.90208	0.0035
3945.93778	0.00337
3944.97347	0.00336
3944.00917	0.00349
3943.04486	0.00373
3942.08056	0.00362
3941.11625	0.00331
3940.15195	0.0032
3939.18764	0.00322
3938.22333	0.00327
3937.25903	0.00325
3936.29472	0.00323
3935.33042	0.00326
3934.36611	0.0033
3933.40181	0.0035
3932.4375	0.00371
3931.4732	0.00356
3930.50889	0.00335
3929.54459	0.0033
3928.58028	0.00322
3927.61598	0.00308
3926.65167	0.00308
3925.68736	0.00334
3924.72306	0.00352
3923.75875	0.00336
3922.79445	0.00318
3921.83014	0.00308
3920.86584	0.00325
3919.90153	0.00335
3918.93723	0.00323
3917.97292	0.00356
3917.00862	0.0038
3916.04431	0.00343
3915.08	0.00304
3914.1157	0.00296
3913.15139	0.00304
3912.18709	0.0031
3911.22278	0.0032
3910.25848	0.00325
3909.29417	0.00333
3908.32987	0.00339
3907.36556	0.00358
3906.40126	0.00397
3905.43695	0.00467
3904.47265	0.00546
3903.50834	0.0054
3902.54403	0.00543
3901.57973	0.00556
3900.61542	0.00536
3899.65112	0.00583
3898.68681	0.00577
3897.72251	0.00508
3896.7582	0.00484
3895.7939	0.00486
3894.82959	0.00507
3893.86529	0.00526
3892.90098	0.00572
3891.93667	0.0066
3890.97237	0.00688
3890.00806	0.00619
3889.04376	0.0058
3888.07945	0.00592
3887.11515	0.00666
3886.15084	0.00814
3885.18654	0.00828
3884.22223	0.00745
3883.25793	0.00729
3882.29362	0.00755
3881.32932	0.00844
3880.36501	0.00923
3879.4007	0.00897
3878.4364	0.00848
3877.47209	0.00858
3876.50779	0.00889
3875.54348	0.00953
3874.57918	0.01046
3873.61487	0.01061
3872.65057	0.01029
3871.68626	0.01067
3870.72196	0.01215
3869.75765	0.0131
3868.79334	0.01245
3867.82904	0.01168
3866.86473	0.01179
3865.90043	0.01284
3864.93612	0.01364
3863.97182	0.01336
3863.00751	0.01331
3862.04321	0.01393
3861.0789	0.014
3860.1146	0.01373
3859.15029	0.01389
3858.18599	0.01435
3857.22168	0.01492
3856.25737	0.01531
3855.29307	0.01744
3854.32876	0.02025
3853.36446	0.01992
3852.40015	0.01874
3851.43585	0.01806
3850.47154	0.01725
3849.50724	0.01721
3848.54293	0.01728
3847.57863	0.01745
3846.61432	0.01777
3845.65001	0.01815
3844.68571	0.01893
3843.7214	0.01954
3842.7571	0.01962
3841.79279	0.01996
3840.82849	0.02071
3839.86418	0.02092
3838.89988	0.02174
3837.93557	0.02291
3836.97127	0.02245
3836.00696	0.02211
3835.04266	0.02264
3834.07835	0.02252
3833.11404	0.02256
3832.14974	0.02348
3831.18543	0.02388
3830.22113	0.02358
3829.25682	0.02359
3828.29252	0.02405
3827.32821	0.02479
3826.36391	0.02525
3825.3996	0.02529
3824.4353	0.02545
3823.47099	0.02591
3822.50668	0.02712
3821.54238	0.02859
3820.57807	0.02877
3819.61377	0.02804
3818.64946	0.02763
3817.68516	0.02817
3816.72085	0.02983
3815.75655	0.03059
3814.79224	0.02969
3813.82794	0.02928
3812.86363	0.02961
3811.89932	0.03
3810.93502	0.03038
3809.97071	0.03067
3809.00641	0.03116
3808.0421	0.03242
3807.0778	0.03378
3806.11349	0.03356
3805.14919	0.03292
3804.18488	0.03322
3803.22058	0.034
3802.25627	0.03556
3801.29197	0.03661
3800.32766	0.03605
3799.36335	0.03546
3798.39905	0.0357
3797.43474	0.0365
3796.47044	0.03722
3795.50613	0.03729
3794.54183	0.03725
3793.57752	0.0376
3792.61322	0.03801
3791.64891	0.03837
3790.68461	0.03878
3789.7203	0.03928
3788.75599	0.03979
3787.79169	0.04023
3786.82738	0.04071
3785.86308	0.04125
3784.89877	0.04182
3783.93447	0.04217
3782.97016	0.04249
3782.00586	0.04294
3781.04155	0.04355
3780.07725	0.04451
3779.11294	0.04504
3778.14864	0.04501
3777.18433	0.04521
3776.22002	0.04564
3775.25572	0.04615
3774.29141	0.0466
3773.32711	0.04707
3772.3628	0.04755
3771.3985	0.04833
3770.43419	0.04963
3769.46989	0.05021
3768.50558	0.04998
3767.54128	0.05016
3766.57697	0.05107
3765.61266	0.05185
3764.64836	0.05195
3763.68405	0.05214
3762.71975	0.05263
3761.75544	0.05322
3760.79114	0.05419
3759.82683	0.05522
3758.86253	0.0555
3757.89822	0.05572
3756.93392	0.05651
3755.96961	0.0569
3755.00531	0.05709
3754.041	0.05784
3753.07669	0.05976
3752.11239	0.06124
3751.14808	0.06104
3750.18378	0.06219
3749.21947	0.06338
3748.25517	0.06242
3747.29086	0.06188
3746.32656	0.06303
3745.36225	0.06636
3744.39795	0.06847
3743.43364	0.06661
3742.46933	0.06509
3741.50503	0.06547
3740.54072	0.06606
3739.57642	0.06669
3738.61211	0.06755
3737.64781	0.06905
3736.6835	0.07057
3735.7192	0.0714
3734.75489	0.07155
3733.79059	0.0715
3732.82628	0.07244
3731.86198	0.07332
3730.89767	0.07305
3729.93336	0.07305
3728.96906	0.07364
3728.00475	0.07467
3727.04045	0.07604
3726.07614	0.07686
3725.11184	0.07726
3724.14753	0.07775
3723.18323	0.07871
3722.21892	0.07977
3721.25462	0.08023
3720.29031	0.08079
3719.326	0.08169
3718.3617	0.08238
3717.39739	0.08298
3716.43309	0.08377
3715.46878	0.08476
3714.50448	0.0857
3713.54017	0.08704
3712.57587	0.08902
3711.61156	0.08989
3710.64726	0.09007
3709.68295	0.09114
3708.71865	0.09182
3707.75434	0.09212
3706.79003	0.09294
3705.82573	0.09391
3704.86142	0.09494
3703.89712	0.09596
3702.93281	0.09743
3701.96851	0.09905
3701.0042	0.09987
3700.0399	0.10038
3699.07559	0.10131
3698.11129	0.10246
3697.14698	0.10366
3696.18267	0.10498
3695.21837	0.10619
3694.25406	0.10746
3693.28976	0.10878
3692.32545	0.11057
3691.36115	0.11263
3690.39684	0.11385
3689.43254	0.11568
3688.46823	0.11791
3687.50393	0.11847
3686.53962	0.11882
3685.57531	0.12014
3684.61101	0.12176
3683.6467	0.12341
3682.6824	0.12499
3681.71809	0.12663
3680.75379	0.12854
3679.78948	0.13062
3678.82518	0.13231
3677.86087	0.13401
3676.89657	0.13683
3675.93226	0.14007
3674.96796	0.14185
3674.00365	0.14236
3673.03934	0.14322
3672.07504	0.14554
3671.11073	0.14876
3670.14643	0.15095
3669.18212	0.15239
3668.21782	0.15392
3667.25351	0.15527
3666.28921	0.15715
3665.3249	0.15933
3664.3606	0.16144
3663.39629	0.1636
3662.43198	0.16568
3661.46768	0.16788
3660.50337	0.17005
3659.53907	0.17227
3658.57476	0.1745
3657.61046	0.17719
3656.64615	0.18029
3655.68185	0.18221
3654.71754	0.18352
3653.75324	0.18544
3652.78893	0.18792
3651.82463	0.19096
3650.86032	0.1939
3649.89601	0.19641
3648.93171	0.19849
3647.9674	0.20042
3647.0031	0.20239
3646.03879	0.20383
3645.07449	0.2054
3644.11018	0.20747
3643.14588	0.20966
3642.18157	0.21178
3641.21727	0.21381
3640.25296	0.21601
3639.28865	0.2183
3638.32435	0.2205
3637.36004	0.22259
3636.39574	0.22468
3635.43143	0.227
3634.46713	0.2296
3633.50282	0.232
3632.53852	0.23393
3631.57421	0.23611
3630.60991	0.23929
3629.6456	0.24303
3628.6813	0.2455
3627.71699	0.24652
3626.75268	0.24781
3625.78838	0.24971
3624.82407	0.25178
3623.85977	0.25395
3622.89546	0.25631
3621.93116	0.2588
3620.96685	0.26162
3620.00255	0.26463
3619.03824	0.26697
3618.07394	0.26893
3617.10963	0.27088
3616.14532	0.27295
3615.18102	0.27547
3614.21671	0.27803
3613.25241	0.28067
3612.2881	0.28309
3611.3238	0.28489
3610.35949	0.28759
3609.39519	0.29076
3608.43088	0.29288
3607.46658	0.29482
3606.50227	0.29688
3605.53797	0.29882
3604.57366	0.30109
3603.60935	0.30354
3602.64505	0.30601
3601.68074	0.30852
3600.71644	0.31096
3599.75213	0.31321
3598.78783	0.31556
3597.82352	0.31805
3596.85922	0.32052
3595.89491	0.32313
3594.93061	0.32551
3593.9663	0.32778
3593.00199	0.33011
3592.03769	0.33233
3591.07338	0.33461
3590.10908	0.33728
3589.14477	0.34036
3588.18047	0.34295
3587.21616	0.3452
3586.25186	0.34745
3585.28755	0.34935
3584.32325	0.35146
3583.35894	0.35373
3582.39464	0.35597
3581.43033	0.35831
3580.46602	0.36074
3579.50172	0.36322
3578.53741	0.36554
3577.57311	0.36787
3576.6088	0.37012
3575.6445	0.37243
3574.68019	0.37485
3573.71589	0.37713
3572.75158	0.37936
3571.78728	0.38165
3570.82297	0.38401
3569.85866	0.38645
3568.89436	0.38929
3567.93005	0.39219
3566.96575	0.39456
3566.00144	0.39658
3565.03714	0.3983
3564.07283	0.40024
3563.10853	0.40247
3562.14422	0.40466
3561.17992	0.40697
3560.21561	0.40928
3559.2513	0.41152
3558.287	0.41364
3557.32269	0.41577
3556.35839	0.41794
3555.39408	0.4202
3554.42978	0.42257
3553.46547	0.42489
3552.50117	0.42723
3551.53686	0.42932
3550.57256	0.43124
3549.60825	0.43332
3548.64395	0.4356
3547.67964	0.43804
3546.71533	0.44037
3545.75103	0.44253
3544.78672	0.44456
3543.82242	0.44648
3542.85811	0.44849
3541.89381	0.45061
3540.9295	0.45271
3539.9652	0.45478
3539.00089	0.45688
3538.03659	0.45904
3537.07228	0.46134
3536.10797	0.46352
3535.14367	0.46547
3534.17936	0.46747
3533.21506	0.46954
3532.25075	0.47162
3531.28645	0.47372
3530.32214	0.47577
3529.35784	0.47787
3528.39353	0.47999
3527.42923	0.48209
3526.46492	0.48409
3525.50062	0.48608
3524.53631	0.48823
3523.572	0.4903
3522.6077	0.49224
3521.64339	0.49411
3520.67909	0.49594
3519.71478	0.49794
3518.75048	0.50003
3517.78617	0.50198
3516.82187	0.50386
3515.85756	0.50581
3514.89326	0.50781
3513.92895	0.50984
3512.96464	0.51184
3512.00034	0.51374
3511.03603	0.51571
3510.07173	0.51779
3509.10742	0.51968
3508.14312	0.52135
3507.17881	0.52316
3506.21451	0.52515
3505.2502	0.52712
3504.2859	0.52906
3503.32159	0.53091
3502.35729	0.5326
3501.39298	0.53435
3500.42867	0.5362
3499.46437	0.53802
3498.50006	0.53986
3497.53576	0.54162
3496.57145	0.54331
3495.60715	0.54503
3494.64284	0.54676
3493.67854	0.5486
3492.71423	0.55044
3491.74993	0.55213
3490.78562	0.55371
3489.82131	0.55532
3488.85701	0.55715
3487.8927	0.55898
3486.9284	0.56075
3485.96409	0.56251
3484.99979	0.5642
3484.03548	0.56578
3483.07118	0.56741
3482.10687	0.56914
3481.14257	0.5708
3480.17826	0.57238
3479.21396	0.57393
3478.24965	0.57548
3477.28534	0.57711
3476.32104	0.57881
3475.35673	0.58047
3474.39243	0.58211
3473.42812	0.5837
3472.46382	0.58526
3471.49951	0.5867
3470.53521	0.58821
3469.5709	0.58984
3468.6066	0.59139
3467.64229	0.59282
3466.67798	0.59419
3465.71368	0.59559
3464.74937	0.59715
3463.78507	0.59879
3462.82076	0.60033
3461.85646	0.6019
3460.89215	0.60336
3459.92785	0.60461
3458.96354	0.60592
3457.99924	0.60728
3457.03493	0.60875
3456.07063	0.61026
3455.10632	0.61158
3454.14201	0.61284
3453.17771	0.61408
3452.2134	0.61537
3451.2491	0.61677
3450.28479	0.61815
3449.32049	0.61947
3448.35618	0.62078
3447.39188	0.62207
3446.42757	0.62312
3445.46327	0.62416
3444.49896	0.62538
3443.53465	0.62666
3442.57035	0.62786
3441.60604	0.62901
3440.64174	0.63013
3439.67743	0.63116
3438.71313	0.63229
3437.74882	0.6335
3436.78452	0.63455
3435.82021	0.63549
3434.85591	0.6364
3433.8916	0.63736
3432.92729	0.63845
3431.96299	0.63951
3430.99868	0.64042
3430.03438	0.64127
3429.07007	0.64214
3428.10577	0.64297
3427.14146	0.64379
3426.17716	0.64475
3425.21285	0.64572
3424.24855	0.64658
3423.28424	0.64737
3422.31994	0.64806
3421.35563	0.64876
3420.39132	0.64945
3419.42702	0.65005
3418.46271	0.65074
3417.49841	0.65149
3416.5341	0.65215
3415.5698	0.65282
3414.60549	0.65348
3413.64119	0.65413
3412.67688	0.65472
3411.71258	0.65523
3410.74827	0.65572
3409.78396	0.65617
3408.81966	0.65665
3407.85535	0.65717
3406.89105	0.65759
3405.92674	0.65805
3404.96244	0.6586
3403.99813	0.65902
3403.03383	0.65919
3402.06952	0.65933
3401.10522	0.6597
3400.14091	0.66017
3399.17661	0.66041
3398.2123	0.6606
3397.24799	0.66095
3396.28369	0.66117
3395.31938	0.66124
3394.35508	0.66132
3393.39077	0.66154
3392.42647	0.66179
3391.46216	0.66186
3390.49786	0.66181
3389.53355	0.66192
3388.56925	0.66219
3387.60494	0.66233
3386.64063	0.66227
3385.67633	0.6621
3384.71202	0.66187
3383.74772	0.66182
3382.78341	0.66186
3381.81911	0.6617
3380.8548	0.66144
3379.8905	0.66118
3378.92619	0.66089
3377.96189	0.66059
3376.99758	0.6604
3376.03328	0.66021
3375.06897	0.65998
3374.10466	0.65964
3373.14036	0.65914
3372.17605	0.65869
3371.21175	0.65836
3370.24744	0.65801
3369.28314	0.6575
3368.31883	0.65697
3367.35453	0.65646
3366.39022	0.65585
3365.42592	0.65526
3364.46161	0.65467
3363.4973	0.65409
3362.533	0.65353
3361.56869	0.65283
3360.60439	0.65209
3359.64008	0.65135
3358.67578	0.6506
3357.71147	0.64996
3356.74717	0.64934
3355.78286	0.64864
3354.81856	0.64787
3353.85425	0.647
3352.88995	0.6461
3351.92564	0.64528
3350.96133	0.64449
3349.99703	0.64361
3349.03272	0.64272
3348.06842	0.64187
3347.10411	0.64095
3346.13981	0.63999
3345.1755	0.63909
3344.2112	0.63829
3343.24689	0.6374
3342.28259	0.63636
3341.31828	0.63537
3340.35397	0.63444
3339.38967	0.63358
3338.42536	0.6327
3337.46106	0.63168
3336.49675	0.63066
3335.53245	0.62964
3334.56814	0.62854
3333.60384	0.62744
3332.63953	0.62638
3331.67523	0.62537
3330.71092	0.62431
3329.74661	0.62317
3328.78231	0.62206
3327.818	0.62097
3326.8537	0.61992
3325.88939	0.61884
3324.92509	0.61771
3323.96078	0.61659
3322.99648	0.61548
3322.03217	0.61439
3321.06787	0.61332
3320.10356	0.6122
3319.13926	0.611
3318.17495	0.60976
3317.21064	0.60855
3316.24634	0.60741
3315.28203	0.60626
3314.31773	0.6051
3313.35342	0.60394
3312.38912	0.60278
3311.42481	0.60159
3310.46051	0.60027
3309.4962	0.59903
3308.5319	0.59797
3307.56759	0.59689
3306.60328	0.59564
3305.63898	0.59435
3304.67467	0.59314
3303.71037	0.59194
3302.74606	0.59072
3301.78176	0.58948
3300.81745	0.58827
3299.85315	0.58703
3298.88884	0.58574
3297.92454	0.58446
3296.96023	0.58321
3295.99593	0.58193
3295.03162	0.58063
3294.06731	0.57935
3293.10301	0.57806
3292.1387	0.57677
3291.1744	0.57557
3290.21009	0.57443
3289.24579	0.57322
3288.28148	0.57183
3287.31718	0.57042
3286.35287	0.56903
3285.38857	0.56761
3284.42426	0.56627
3283.45995	0.56506
3282.49565	0.56386
3281.53134	0.56258
3280.56704	0.56123
3279.60273	0.5598
3278.63843	0.55837
3277.67412	0.55704
3276.70982	0.55575
3275.74551	0.5544
3274.78121	0.55298
3273.8169	0.55156
3272.8526	0.55011
3271.88829	0.54865
3270.92398	0.54724
3269.95968	0.54581
3268.99537	0.54432
3268.03107	0.54286
3267.06676	0.54145
3266.10246	0.53997
3265.13815	0.53848
3264.17385	0.53705
3263.20954	0.53553
3262.24524	0.53403
3261.28093	0.53254
3260.31662	0.53103
3259.35232	0.52952
3258.38801	0.528
3257.42371	0.52649
3256.4594	0.52493
3255.4951	0.52324
3254.53079	0.52156
3253.56649	0.51997
3252.60218	0.5184
3251.63788	0.51685
3250.67357	0.51517
3249.70927	0.51346
3248.74496	0.51178
3247.78065	0.51012
3246.81635	0.50849
3245.85204	0.50686
3244.88774	0.50517
3243.92343	0.50344
3242.95913	0.50166
3241.99482	0.49989
3241.03052	0.49817
3240.06621	0.49647
3239.10191	0.49476
3238.1376	0.49298
3237.17329	0.49118
3236.20899	0.48936
3235.24468	0.48748
3234.28038	0.48563
3233.31607	0.48384
3232.35177	0.48204
3231.38746	0.48021
3230.42316	0.47835
3229.45885	0.47645
3228.49455	0.47459
3227.53024	0.47275
3226.56594	0.47084
3225.60163	0.46889
3224.63732	0.467
3223.67302	0.46506
3222.70871	0.46302
3221.74441	0.46108
3220.7801	0.45916
3219.8158	0.45721
3218.85149	0.45518
3217.88719	0.45313
3216.92288	0.45114
3215.95858	0.44918
3214.99427	0.44717
3214.02996	0.44516
3213.06566	0.44311
3212.10135	0.44106
3211.13705	0.439
3210.17274	0.43695
3209.20844	0.43489
3208.24413	0.43279
3207.27983	0.43064
3206.31552	0.42853
3205.35122	0.42644
3204.38691	0.42434
3203.4226	0.42219
3202.4583	0.42004
3201.49399	0.41789
3200.52969	0.4158
3199.56538	0.41373
3198.60108	0.41159
3197.63677	0.40939
3196.67247	0.40712
3195.70816	0.40494
3194.74386	0.40284
3193.77955	0.40066
3192.81525	0.39848
3191.85094	0.39628
3190.88663	0.39402
3189.92233	0.39178
3188.95802	0.38958
3187.99372	0.38742
3187.02941	0.38522
3186.06511	0.38301
3185.1008	0.38077
3184.1365	0.37848
3183.17219	0.37623
3182.20789	0.37404
3181.24358	0.37194
3180.27927	0.36974
3179.31497	0.36742
3178.35066	0.36515
3177.38636	0.36288
3176.42205	0.36064
3175.45775	0.35842
3174.49344	0.35613
3173.52914	0.35386
3172.56483	0.35158
3171.60053	0.34931
3170.63622	0.34711
3169.67192	0.34489
3168.70761	0.34264
3167.7433	0.3404
3166.779	0.33816
3165.81469	0.33595
3164.85039	0.33371
3163.88608	0.33144
3162.92178	0.32921
3161.95747	0.32697
3160.99317	0.32475
3160.02886	0.3225
3159.06456	0.32021
3158.10025	0.31801
3157.13594	0.31588
3156.17164	0.31369
3155.20733	0.31142
3154.24303	0.30913
3153.27872	0.3069
3152.31442	0.30468
3151.35011	0.30247
3150.38581	0.30027
3149.4215	0.29803
3148.4572	0.2958
3147.49289	0.29358
3146.52859	0.29136
3145.56428	0.2892
3144.59997	0.28706
3143.63567	0.28487
3142.67136	0.28264
3141.70706	0.28045
3140.74275	0.27829
3139.77845	0.27614
3138.81414	0.27406
3137.84984	0.27196
3136.88553	0.26982
3135.92123	0.26768
3134.95692	0.26555
3133.99261	0.26342
3133.02831	0.26132
3132.064	0.25925
3131.0997	0.25716
3130.13539	0.25505
3129.17109	0.25292
3128.20678	0.25087
3127.24248	0.24887
3126.27817	0.24685
3125.31387	0.24479
3124.34956	0.24273
3123.38526	0.24067
3122.42095	0.23862
3121.45664	0.23655
3120.49234	0.23453
3119.52803	0.23257
3118.56373	0.23059
3117.59942	0.22856
3116.63512	0.22656
3115.67081	0.22459
3114.70651	0.22262
3113.7422	0.22067
3112.7779	0.21876
3111.81359	0.21678
3110.84928	0.21481
3109.88498	0.21286
3108.92067	0.21093
3107.95637	0.20904
3106.99206	0.20718
3106.02776	0.20531
3105.06345	0.20341
3104.09915	0.20154
3103.13484	0.19968
3102.17054	0.19782
3101.20623	0.196
3100.24193	0.19419
3099.27762	0.19234
3098.31331	0.19045
3097.34901	0.18862
3096.3847	0.18688
3095.4204	0.18514
3094.45609	0.18337
3093.49179	0.18156
3092.52748	0.17975
3091.56318	0.17795
3090.59887	0.17617
3089.63457	0.17444
3088.67026	0.17277
3087.70595	0.1711
3086.74165	0.16938
3085.77734	0.16763
3084.81304	0.16588
3083.84873	0.16418
3082.88443	0.16256
3081.92012	0.16095
3080.95582	0.1593
3079.99151	0.15764
3079.02721	0.15597
3078.0629	0.15429
3077.09859	0.15268
3076.13429	0.15114
3075.16998	0.1496
3074.20568	0.14803
3073.24137	0.14645
3072.27707	0.14485
3071.31276	0.14328
3070.34846	0.14178
3069.38415	0.14027
3068.41985	0.13874
3067.45554	0.13723
3066.49124	0.13573
3065.52693	0.13423
3064.56262	0.13279
3063.59832	0.13136
3062.63401	0.12995
3061.66971	0.12849
3060.7054	0.12698
3059.7411	0.12556
3058.77679	0.12418
3057.81249	0.12284
3056.84818	0.1215
3055.88388	0.12009
3054.91957	0.11868
3053.95526	0.11731
3052.99096	0.11597
3052.02665	0.11469
3051.06235	0.11347
3050.09804	0.11221
3049.13374	0.11092
3048.16943	0.1096
3047.20513	0.10827
3046.24082	0.10701
3045.27652	0.10582
3044.31221	0.10464
3043.34791	0.10344
3042.3836	0.10223
3041.41929	0.10103
3040.45499	0.09985
3039.49068	0.09872
3038.52638	0.09765
3037.56207	0.09659
3036.59777	0.09548
3035.63346	0.09434
3034.66916	0.09322
3033.70485	0.0922
3032.74055	0.09125
3031.77624	0.09029
3030.81193	0.08927
3029.84763	0.08818
3028.88332	0.08713
3027.91902	0.08615
3026.95471	0.08523
3025.99041	0.08438
3025.0261	0.0835
3024.0618	0.08258
3023.09749	0.08164
3022.13319	0.08075
3021.16888	0.07993
3020.20458	0.07919
3019.24027	0.07846
3018.27596	0.07772
3017.31166	0.07694
3016.34735	0.07616
3015.38305	0.07544
3014.41874	0.07481
3013.45444	0.07424
3012.49013	0.07363
3011.52583	0.07299
3010.56152	0.07236
3009.59722	0.07182
3008.63291	0.07137
3007.6686	0.07098
3006.7043	0.07063
3005.73999	0.07029
3004.77569	0.06994
3003.81138	0.06962
3002.84708	0.06945
3001.88277	0.06942
3000.91847	0.06944
2999.95416	0.06942
2998.98986	0.0694
2998.02555	0.06949
2997.06125	0.0697
2996.09694	0.07005
2995.13263	0.07048
2994.16833	0.07095
2993.20402	0.07143
2992.23972	0.07197
2991.27541	0.07266
2990.31111	0.07348
2989.3468	0.07434
2988.3825	0.07525
2987.41819	0.07626
2986.45389	0.07733
2985.48958	0.07847
2984.52527	0.07967
2983.56097	0.08097
2982.59666	0.08239
2981.63236	0.08384
2980.66805	0.08531
2979.70375	0.08676
2978.73944	0.08821
2977.77514	0.08972
2976.81083	0.09131
2975.84653	0.09293
2974.88222	0.0945
2973.91792	0.09603
2972.95361	0.0975
2971.9893	0.09907
2971.025	0.10077
2970.06069	0.10257
2969.09639	0.10434
2968.13208	0.10608
2967.16778	0.10789
2966.20347	0.10983
2965.23917	0.11192
2964.27486	0.11413
2963.31056	0.11642
2962.34625	0.11874
2961.38194	0.12112
2960.41764	0.12362
2959.45333	0.12631
2958.48903	0.12917
2957.52472	0.13214
2956.56042	0.13519
2955.59611	0.13827
2954.63181	0.14142
2953.6675	0.1447
2952.7032	0.14808
2951.73889	0.15152
2950.77458	0.155
2949.81028	0.15842
2948.84597	0.16181
2947.88167	0.16519
2946.91736	0.16859
2945.95306	0.17194
2944.98875	0.17516
2944.02445	0.17817
2943.06014	0.18097
2942.09584	0.18358
2941.13153	0.18604
2940.16723	0.1884
2939.20292	0.1906
2938.23861	0.19252
2937.27431	0.19422
2936.31	0.19577
2935.3457	0.19717
2934.38139	0.19853
2933.41709	0.19991
2932.45278	0.2012
2931.48848	0.20234
2930.52417	0.20333
2929.55987	0.20418
2928.59556	0.20487
2927.63125	0.20543
2926.66695	0.20578
2925.70264	0.20575
2924.73834	0.20529
2923.77403	0.20444
2922.80973	0.20328
2921.84542	0.20193
2920.88112	0.20037
2919.91681	0.19863
2918.95251	0.19672
2917.9882	0.19468
2917.0239	0.19253
2916.05959	0.19037
2915.09528	0.18827
2914.13098	0.18617
2913.16667	0.18401
2912.20237	0.18174
2911.23806	0.17944
2910.27376	0.17713
2909.30945	0.17486
2908.34515	0.17262
2907.38084	0.17036
2906.41654	0.16798
2905.45223	0.16551
2904.48792	0.16305
2903.52362	0.16071
2902.55931	0.15849
2901.59501	0.15628
2900.6307	0.15408
2899.6664	0.15191
2898.70209	0.14983
2897.73779	0.14793
2896.77348	0.14612
2895.80918	0.14439
2894.84487	0.14268
2893.88057	0.14096
2892.91626	0.13924
2891.95195	0.13758
2890.98765	0.13604
2890.02334	0.13459
2889.05904	0.13316
2888.09473	0.13173
2887.13043	0.13027
2886.16612	0.12875
2885.20182	0.12723
2884.23751	0.12576
2883.27321	0.12428
2882.3089	0.12274
2881.34459	0.12116
2880.38029	0.11958
2879.41598	0.11802
2878.45168	0.11653
2877.48737	0.11517
2876.52307	0.11387
2875.55876	0.11252
2874.59446	0.11112
2873.63015	0.10972
2872.66585	0.10834
2871.70154	0.10698
2870.73724	0.10565
2869.77293	0.10425
2868.80862	0.10273
2867.84432	0.10116
2866.88001	0.09957
2865.91571	0.09805
2864.9514	0.0966
2863.9871	0.09516
2863.02279	0.09366
2862.05849	0.09211
2861.09418	0.09062
2860.12988	0.08923
2859.16557	0.08795
2858.20126	0.08669
2857.23696	0.08544
2856.27265	0.08419
2855.30835	0.08296
2854.34404	0.0818
2853.37974	0.08076
2852.41543	0.07981
2851.45113	0.07887
2850.48682	0.07793
2849.52252	0.07704
2848.55821	0.07626
2847.59391	0.07557
2846.6296	0.07494
2845.66529	0.07433
2844.70099	0.07367
2843.73668	0.07293
2842.77238	0.07213
2841.80807	0.07135
2840.84377	0.07062
2839.87946	0.06992
2838.91516	0.06919
2837.95085	0.06839
2836.98655	0.06755
2836.02224	0.06671
2835.05793	0.06594
2834.09363	0.06521
2833.12932	0.06449
2832.16502	0.06374
2831.20071	0.06291
2830.23641	0.06203
2829.2721	0.06123
2828.3078	0.06052
2827.34349	0.05983
2826.37919	0.05911
2825.41488	0.05834
2824.45057	0.05752
2823.48627	0.05673
2822.52196	0.05602
2821.55766	0.05537
2820.59335	0.05474
2819.62905	0.05406
2818.66474	0.05335
2817.70044	0.05261
2816.73613	0.05194
2815.77183	0.05135
2814.80752	0.05078
2813.84322	0.05018
2812.87891	0.04959
2811.9146	0.04897
2810.9503	0.04839
2809.98599	0.04789
2809.02169	0.04744
2808.05738	0.04698
2807.09308	0.04647
2806.12877	0.04592
2805.16447	0.04538
2804.20016	0.04491
2803.23586	0.04454
2802.27155	0.0442
2801.30724	0.04384
2800.34294	0.04338
2799.37863	0.04287
2798.41433	0.04241
2797.45002	0.04207
2796.48572	0.04181
2795.52141	0.04148
2794.55711	0.04109
2793.5928	0.04067
2792.6285	0.0403
2791.66419	0.04001
2790.69989	0.03978
2789.73558	0.03956
2788.77127	0.03924
2787.80697	0.0389
2786.84266	0.0386
2785.87836	0.03835
2784.91405	0.03813
2783.94975	0.03795
2782.98544	0.03772
2782.02114	0.03745
2781.05683	0.03718
2780.09253	0.03698
2779.12822	0.03683
2778.16391	0.03673
2777.19961	0.0366
2776.2353	0.03643
2775.271	0.03625
2774.30669	0.03609
2773.34239	0.03592
2772.37808	0.0358
2771.41378	0.03573
2770.44947	0.03569
2769.48517	0.0356
2768.52086	0.03545
2767.55656	0.03535
2766.59225	0.03527
2765.62794	0.03524
2764.66364	0.03522
2763.69933	0.03514
2762.73503	0.03502
2761.77072	0.03488
2760.80642	0.03477
2759.84211	0.03473
2758.87781	0.03472
2757.9135	0.03471
2756.9492	0.03465
2755.98489	0.03453
2755.02058	0.03441
2754.05628	0.03438
2753.09197	0.03439
2752.12767	0.03437
2751.16336	0.0343
2750.19906	0.03418
2749.23475	0.03409
2748.27045	0.03403
2747.30614	0.03403
2746.34184	0.03402
2745.37753	0.03395
2744.41323	0.03381
2743.44892	0.03366
2742.48461	0.03354
2741.52031	0.03344
2740.556	0.03335
2739.5917	0.03324
2738.62739	0.03309
2737.66309	0.03289
2736.69878	0.03268
2735.73448	0.03252
2734.77017	0.0324
2733.80587	0.0322
2732.84156	0.03195
2731.87725	0.0317
2730.91295	0.03147
2729.94864	0.03124
2728.98434	0.03105
2728.02003	0.03088
2727.05573	0.0307
2726.09142	0.03043
2725.12712	0.03015
2724.16281	0.0299
2723.19851	0.02971
2722.2342	0.02953
2721.2699	0.02935
2720.30559	0.02914
2719.34128	0.02893
2718.37698	0.02868
2717.41267	0.02849
2716.44837	0.0283
2715.48406	0.02814
2714.51976	0.02798
2713.55545	0.0278
2712.59115	0.02761
2711.62684	0.02744
2710.66254	0.02726
2709.69823	0.0271
2708.73392	0.02696
2707.76962	0.02682
2706.80531	0.02666
2705.84101	0.02645
2704.8767	0.02627
2703.9124	0.02613
2702.94809	0.02602
2701.98379	0.0259
2701.01948	0.02577
2700.05518	0.02559
2699.09087	0.02543
2698.12656	0.02529
2697.16226	0.02522
2696.19795	0.02514
2695.23365	0.02501
2694.26934	0.02488
2693.30504	0.02473
2692.34073	0.02461
2691.37643	0.02453
2690.41212	0.0245
2689.44782	0.02443
2688.48351	0.02434
2687.51921	0.02424
2686.5549	0.02414
2685.59059	0.02407
2684.62629	0.02402
2683.66198	0.02392
2682.69768	0.02377
2681.73337	0.02363
2680.76907	0.02351
2679.80476	0.02342
2678.84046	0.0233
2677.87615	0.02315
2676.91185	0.02301
2675.94754	0.02285
2674.98323	0.02269
2674.01893	0.02254
2673.05462	0.02239
2672.09032	0.0222
2671.12601	0.02197
2670.16171	0.02172
2669.1974	0.02151
2668.2331	0.02132
2667.26879	0.02111
2666.30449	0.02086
2665.34018	0.02066
2664.37588	0.02043
2663.41157	0.02018
2662.44726	0.01989
2661.48296	0.0196
2660.51865	0.01932
2659.55435	0.01904
2658.59004	0.01875
2657.62574	0.01846
2656.66143	0.01817
2655.69713	0.01783
2654.73282	0.01748
2653.76852	0.01715
2652.80421	0.01685
2651.8399	0.01654
2650.8756	0.0162
2649.91129	0.01584
2648.94699	0.01546
2647.98268	0.01513
2647.01838	0.01479
2646.05407	0.01446
2645.08977	0.01413
2644.12546	0.01377
2643.16116	0.01343
2642.19685	0.01309
2641.23255	0.01277
2640.26824	0.01247
2639.30393	0.01221
2638.33963	0.01191
2637.37532	0.01159
2636.41102	0.0113
2635.44671	0.01101
2634.48241	0.01073
2633.5181	0.01047
2632.5538	0.01021
2631.58949	0.00992
2630.62519	0.00964
2629.66088	0.00938
2628.69657	0.00917
2627.73227	0.00897
2626.76796	0.00877
2625.80366	0.00855
2624.83935	0.00835
2623.87505	0.00814
2622.91074	0.00793
2621.94644	0.00772
2620.98213	0.00756
2620.01783	0.00739
2619.05352	0.00726
2618.08922	0.00711
2617.12491	0.00695
2616.1606	0.00678
2615.1963	0.00666
2614.23199	0.00655
2613.26769	0.00647
2612.30338	0.00638
2611.33908	0.00627
2610.37477	0.00616
2609.41047	0.00605
2608.44616	0.00598
2607.48186	0.00595
2606.51755	0.00592
2605.55324	0.00586
2604.58894	0.00578
2603.62463	0.00575
2602.66033	0.00575
2601.69602	0.00576
2600.73172	0.00575
2599.76741	0.00573
2598.80311	0.00572
2597.8388	0.00568
2596.8745	0.00569
2595.91019	0.00574
2594.94589	0.00578
2593.98158	0.00581
2593.01727	0.00582
2592.05297	0.00584
2591.08866	0.00586
2590.12436	0.00588
2589.16005	0.00593
2588.19575	0.00597
2587.23144	0.00596
2586.26714	0.00593
2585.30283	0.0059
2584.33853	0.00588
2583.37422	0.0059
2582.40991	0.00593
2581.44561	0.00595
2580.4813	0.00594
2579.517	0.0059
2578.55269	0.00589
2577.58839	0.00591
2576.62408	0.00595
2575.65978	0.00598
2574.69547	0.00596
2573.73117	0.00593
2572.76686	0.00589
2571.80255	0.00589
2570.83825	0.00592
2569.87394	0.00593
2568.90964	0.00595
2567.94533	0.00596
2566.98103	0.00594
2566.01672	0.00593
2565.05242	0.00595
2564.08811	0.00602
2563.12381	0.00607
2562.1595	0.00607
2561.1952	0.00606
2560.23089	0.00609
2559.26658	0.00613
2558.30228	0.00622
2557.33797	0.00632
2556.37367	0.00636
2555.40936	0.00637
2554.44506	0.0064
2553.48075	0.00647
2552.51645	0.00657
2551.55214	0.00667
2550.58784	0.00674
2549.62353	0.00676
2548.65922	0.00676
2547.69492	0.00677
2546.73061	0.0068
2545.76631	0.00686
2544.802	0.00691
2543.8377	0.00691
2542.87339	0.00689
2541.90909	0.00685
2540.94478	0.00685
2539.98048	0.00687
2539.01617	0.00689
2538.05187	0.0069
2537.08756	0.00686
2536.12325	0.00678
2535.15895	0.00672
2534.19464	0.00672
2533.23034	0.00675
2532.26603	0.00675
2531.30173	0.00671
2530.33742	0.00666
2529.37312	0.00661
2528.40881	0.00659
2527.44451	0.00664
2526.4802	0.00668
2525.51589	0.00667
2524.55159	0.0066
2523.58728	0.00651
2522.62298	0.00647
2521.65867	0.0065
2520.69437	0.00657
2519.73006	0.0066
2518.76576	0.00658
2517.80145	0.00656
2516.83715	0.00656
2515.87284	0.00659
2514.90854	0.00664
2513.94423	0.00668
2512.97992	0.0067
2512.01562	0.0067
2511.05131	0.00666
2510.08701	0.00669
2509.1227	0.00674
2508.1584	0.00678
2507.19409	0.00682
2506.22979	0.00684
2505.26548	0.00686
2504.30118	0.00687
2503.33687	0.00689
2502.37256	0.00696
2501.40826	0.00704
2500.44395	0.00705
2499.47965	0.00702
2498.51534	0.00698
2497.55104	0.00699
2496.58673	0.00703
2495.62243	0.00712
2494.65812	0.0072
2493.69382	0.00718
2492.72951	0.00708
2491.76521	0.00705
2490.8009	0.0071
2489.83659	0.00721
2488.87229	0.00726
2487.90798	0.00724
2486.94368	0.00718
2485.97937	0.00711
2485.01507	0.00711
2484.05076	0.00716
2483.08646	0.00721
2482.12215	0.00722
2481.15785	0.00717
2480.19354	0.00711
2479.22923	0.00709
2478.26493	0.0071
2477.30062	0.00714
2476.33632	0.00716
2475.37201	0.00709
2474.40771	0.007
2473.4434	0.00694
2472.4791	0.00696
2471.51479	0.007
2470.55049	0.00702
2469.58618	0.00701
2468.62188	0.00694
2467.65757	0.00686
2466.69326	0.00682
2465.72896	0.00685
2464.76465	0.00692
2463.80035	0.00693
2462.83604	0.00687
2461.87174	0.00676
2460.90743	0.00668
2459.94313	0.00669
2458.97882	0.00673
2458.01452	0.00674
2457.05021	0.00669
2456.0859	0.00661
2455.1216	0.00653
2454.15729	0.00648
2453.19299	0.0065
2452.22868	0.00653
2451.26438	0.0065
2450.30007	0.00643
2449.33577	0.0063
2448.37146	0.00622
2447.40716	0.00622
2446.44285	0.00627
2445.47854	0.00625
2444.51424	0.00615
2443.54993	0.00605
2442.58563	0.00599
2441.62132	0.00598
2440.65702	0.00599
2439.69271	0.00595
2438.72841	0.00588
2437.7641	0.00577
2436.7998	0.00568
2435.83549	0.00561
2434.87119	0.00556
2433.90688	0.00555
2432.94257	0.00553
2431.97827	0.00544
2431.01396	0.00533
2430.04966	0.00523
2429.08535	0.00517
2428.12105	0.00515
2427.15674	0.00515
2426.19244	0.00508
2425.22813	0.005
2424.26383	0.00497
2423.29952	0.00495
2422.33521	0.00496
2421.37091	0.00496
2420.4066	0.00495
2419.4423	0.00489
2418.47799	0.00481
2417.51369	0.00479
2416.54938	0.00482
2415.58508	0.00488
2414.62077	0.00491
2413.65647	0.00488
2412.69216	0.00484
2411.72786	0.0048
2410.76355	0.00482
2409.79924	0.00489
2408.83494	0.00495
2407.87063	0.00499
2406.90633	0.00496
2405.94202	0.00493
2404.97772	0.00496
2404.01341	0.00503
2403.04911	0.00511
2402.0848	0.00516
2401.1205	0.00519
2400.15619	0.00521
2399.19188	0.00522
2398.22758	0.00527
2397.26327	0.00537
2396.29897	0.00549
2395.33466	0.00555
2394.37036	0.0055
2393.40605	0.00538
2392.44175	0.00531
2391.47744	0.0053
2390.51314	0.00532
2389.54883	0.00532
2388.58453	0.00524
2387.62022	0.00513
2386.65591	0.00502
2385.69161	0.00501
2384.7273	0.00506
2383.763	0.00506
2382.79869	0.00502
2381.83439	0.00489
2380.87008	0.00478
2379.90578	0.00478
2378.94147	0.00485
2377.97717	0.0049
2377.01286	0.00484
2376.04855	0.00472
2375.08425	0.00463
2374.11994	0.00462
2373.15564	0.00467
2372.19133	0.00472
2371.22703	0.0047
2370.26272	0.0046
2369.29842	0.00446
2368.33411	0.00444
2367.36981	0.00448
2366.4055	0.00451
2365.4412	0.00446
2364.47689	0.00436
2363.51258	0.00427
2362.54828	0.0042
2361.58397	0.0042
2360.61967	0.00423
2359.65536	0.00423
2358.69106	0.00417
2357.72675	0.00408
2356.76245	0.00403
2355.79814	0.00399
2354.83384	0.00399
2353.86953	0.00402
2352.90522	0.00399
2351.94092	0.0039
2350.97661	0.00377
2350.01231	0.00369
2349.048	0.00371
2348.0837	0.00375
2347.11939	0.00376
2346.15509	0.00373
2345.19078	0.00364
2344.22648	0.00357
2343.26217	0.00356
2342.29786	0.00363
2341.33356	0.00371
2340.36925	0.00375
2339.40495	0.00377
2338.44064	0.00377
2337.47634	0.00377
2336.51203	0.0038
2335.54773	0.00377
2334.58342	0.00366
2333.61912	0.00345
2332.65481	0.00325
2331.69051	0.00313
2330.7262	0.00315
2329.76189	0.00322
2328.79759	0.00328
2327.83328	0.00326
2326.86898	0.00317
2325.90467	0.00309
2324.94037	0.00311
2323.97606	0.00321
2323.01176	0.00332
2322.04745	0.00334
2321.08315	0.00326
2320.11884	0.0032
2319.15453	0.00322
2318.19023	0.00332
2317.22592	0.00343
2316.26162	0.00349
2315.29731	0.00348
2314.33301	0.00341
2313.3687	0.00338
2312.4044	0.00346
2311.44009	0.0036
2310.47579	0.00368
2309.51148	0.00369
2308.54718	0.00364
2307.58287	0.00359
2306.61856	0.00362
2305.65426	0.00371
2304.68995	0.00382
2303.72565	0.00388
2302.76134	0.00384
2301.79704	0.00376
2300.83273	0.00372
2299.86843	0.0038
2298.90412	0.00396
2297.93982	0.00405
2296.97551	0.00405
2296.0112	0.00397
2295.0469	0.00388
2294.08259	0.00393
2293.11829	0.00406
2292.15398	0.00419
2291.18968	0.00423
2290.22537	0.00417
2289.26107	0.00409
2288.29676	0.00408
2287.33246	0.00419
2286.36815	0.00437
2285.40385	0.00448
2284.43954	0.00445
2283.47523	0.00435
2282.51093	0.00431
2281.54662	0.00441
2280.58232	0.00462
2279.61801	0.00479
2278.65371	0.00482
2277.6894	0.00476
2276.7251	0.00471
2275.76079	0.00479
2274.79649	0.00501
2273.83218	0.00524
2272.86787	0.00535
2271.90357	0.00533
2270.93926	0.0053
2269.97496	0.00535
2269.01065	0.00553
2268.04635	0.0058
2267.08204	0.00599
2266.11774	0.00604
2265.15343	0.00597
2264.18913	0.00596
2263.22482	0.0061
2262.26052	0.00635
2261.29621	0.00659
2260.3319	0.0067
2259.3676	0.00664
2258.40329	0.00656
2257.43899	0.00662
2256.47468	0.00682
2255.51038	0.00705
2254.54607	0.00717
2253.58177	0.00713
2252.61746	0.00704
2251.65316	0.00703
2250.68885	0.00716
2249.72454	0.00738
2248.76024	0.00756
2247.79593	0.0076
2246.83163	0.00753
2245.86732	0.00746
2244.90302	0.00753
2243.93871	0.00775
2242.97441	0.00797
2242.0101	0.00808
2241.0458	0.00805
2240.08149	0.00795
2239.11719	0.00796
2238.15288	0.00813
2237.18857	0.00836
2236.22427	0.00854
2235.25996	0.00856
2234.29566	0.00846
2233.33135	0.0084
2232.36705	0.00848
2231.40274	0.00868
2230.43844	0.00893
2229.47413	0.00903
2228.50983	0.00895
2227.54552	0.00886
2226.58121	0.00889
2225.61691	0.00909
2224.6526	0.0094
2223.6883	0.0096
2222.72399	0.00958
2221.75969	0.00947
2220.79538	0.00946
2219.83108	0.00964
2218.86677	0.00998
2217.90247	0.01028
2216.93816	0.01041
2215.97385	0.01036
2215.00955	0.01033
2214.04524	0.01047
2213.08094	0.0108
2212.11663	0.01119
2211.15233	0.01145
2210.18802	0.01148
2209.22372	0.01144
2208.25941	0.01152
2207.29511	0.01181
2206.3308	0.01224
2205.3665	0.01258
2204.40219	0.01269
2203.43788	0.01262
2202.47358	0.01261
2201.50927	0.01283
2200.54497	0.01325
2199.58066	0.01365
2198.61636	0.01385
2197.65205	0.0138
2196.68775	0.01369
2195.72344	0.0138
2194.75914	0.01416
2193.79483	0.01456
2192.83052	0.01479
2191.86622	0.01479
2190.90191	0.01466
2189.93761	0.01465
2188.9733	0.01488
2188.009	0.01527
2187.04469	0.01556
2186.08039	0.01562
2185.11608	0.01551
2184.15178	0.01542
2183.18747	0.01551
2182.22317	0.0158
2181.25886	0.01615
2180.29455	0.01631
2179.33025	0.01622
2178.36594	0.01606
2177.40164	0.01609
2176.43733	0.01632
2175.47303	0.01664
2174.50872	0.0169
2173.54442	0.01693
2172.58011	0.01679
2171.61581	0.01674
2170.6515	0.0169
2169.68719	0.01723
2168.72289	0.01755
2167.75858	0.01767
2166.79428	0.01758
2165.82997	0.01747
2164.86567	0.01753
2163.90136	0.01783
2162.93706	0.01822
2161.97275	0.01844
2161.00845	0.0184
2160.04414	0.01823
2159.07984	0.01818
2158.11553	0.0183
2157.15122	0.01857
2156.18692	0.01882
2155.22261	0.01885
2154.25831	0.01865
2153.294	0.01843
2152.3297	0.01841
2151.36539	0.01858
2150.40109	0.01878
2149.43678	0.01882
2148.47248	0.01862
2147.50817	0.01829
2146.54386	0.0181
2145.57956	0.01814
2144.61525	0.01832
2143.65095	0.01842
2142.68664	0.01828
2141.72234	0.01795
2140.75803	0.01764
2139.79373	0.01758
2138.82942	0.01773
2137.86512	0.0179
2136.90081	0.0179
2135.93651	0.01764
2134.9722	0.01728
2134.00789	0.01709
2133.04359	0.01718
2132.07928	0.01738
2131.11498	0.01751
2130.15067	0.0174
2129.18637	0.01707
2128.22206	0.0168
2127.25776	0.01679
2126.29345	0.01704
2125.32915	0.01727
2124.36484	0.01722
2123.40053	0.01694
2122.43623	0.01664
2121.47192	0.01655
2120.50762	0.01668
2119.54331	0.01692
2118.57901	0.01702
2117.6147	0.01683
2116.6504	0.01653
2115.68609	0.01633
2114.72179	0.01642
2113.75748	0.01668
2112.79318	0.01686
2111.82887	0.01681
2110.86456	0.01653
2109.90026	0.01628
2108.93595	0.01624
2107.97165	0.01646
2107.00734	0.01671
2106.04304	0.01678
2105.07873	0.01657
2104.11443	0.01629
2103.15012	0.01614
2102.18582	0.01625
2101.22151	0.01652
2100.2572	0.01667
2099.2929	0.01656
2098.32859	0.01625
2097.36429	0.01601
2096.39998	0.016
2095.43568	0.01622
2094.47137	0.01645
2093.50707	0.01643
2092.54276	0.01617
2091.57846	0.01585
2090.61415	0.01574
2089.64984	0.0159
2088.68554	0.01615
2087.72123	0.01626
2086.75693	0.01608
2085.79262	0.01576
2084.82832	0.01555
2083.86401	0.0156
2082.89971	0.01582
2081.9354	0.016
2080.9711	0.01596
2080.00679	0.01573
2079.04249	0.01548
2078.07818	0.01543
2077.11387	0.01558
2076.14957	0.0158
2075.18526	0.01587
2074.22096	0.01571
2073.25665	0.01547
2072.29235	0.01529
2071.32804	0.01533
2070.36374	0.01552
2069.39943	0.01563
2068.43513	0.01557
2067.47082	0.01533
2066.50651	0.01508
2065.54221	0.01503
2064.5779	0.01518
2063.6136	0.01533
2062.64929	0.01533
2061.68499	0.01513
2060.72068	0.0148
2059.75638	0.01457
2058.79207	0.01455
2057.82777	0.0147
2056.86346	0.01479
2055.89916	0.01462
2054.93485	0.01426
2053.97054	0.01392
2053.00624	0.01382
2052.04193	0.01394
2051.07763	0.01406
2050.11332	0.01395
2049.14902	0.0136
2048.18471	0.01321
2047.22041	0.01299
2046.2561	0.01299
2045.2918	0.01306
2044.32749	0.01303
2043.36318	0.01277
2042.39888	0.01242
2041.43457	0.01213
2040.47027	0.01198
2039.50596	0.01198
2038.54166	0.01199
2037.57735	0.01181
2036.61305	0.01144
2035.64874	0.01104
2034.68444	0.01077
2033.72013	0.01068
2032.75583	0.01066
2031.79152	0.01053
2030.82721	0.01018
2029.86291	0.00972
2028.8986	0.00936
2027.9343	0.00918
2026.96999	0.00915
2026.00569	0.00907
2025.04138	0.0088
2024.07708	0.00837
2023.11277	0.00793
2022.14847	0.00766
2021.18416	0.00759
2020.21985	0.00756
2019.25555	0.00744
2018.29124	0.00713
2017.32694	0.00677
2016.36263	0.00643
2015.39833	0.00625
2014.43402	0.00623
2013.46972	0.00621
2012.50541	0.00602
2011.54111	0.00569
2010.5768	0.00537
2009.6125	0.00524
2008.64819	0.00528
2007.68388	0.00534
2006.71958	0.00523
2005.75527	0.00497
2004.79097	0.0047
2003.82666	0.00456
2002.86236	0.00457
2001.89805	0.00465
2000.93375	0.00467
1999.96944	0.00453
1999.00514	0.00432
1998.04083	0.0041
1997.07652	0.00405
1996.11222	0.00414
1995.14791	0.00423
1994.18361	0.00419
1993.2193	0.00409
1992.255	0.00406
1991.29069	0.00391
1990.32639	0.00378
1989.36208	0.00386
1988.39778	0.00392
1987.43347	0.00379
1986.46917	0.00359
1985.50486	0.00346
1984.54055	0.00342
1983.57625	0.0035
1982.61194	0.00361
1981.64764	0.0036
1980.68333	0.00348
1979.71903	0.00333
1978.75472	0.00327
1977.79042	0.00335
1976.82611	0.00348
1975.86181	0.00355
1974.8975	0.00353
1973.93319	0.00342
1972.96889	0.00335
1972.00458	0.00337
1971.04028	0.00351
1970.07597	0.00364
1969.11167	0.00368
1968.14736	0.00369
1967.18306	0.00368
1966.21875	0.00361
1965.25445	0.00364
1964.29014	0.00378
1963.32583	0.00386
1962.36153	0.00384
1961.39722	0.00377
1960.43292	0.00373
1959.46861	0.00378
1958.50431	0.00391
1957.54	0.00404
1956.5757	0.00409
1955.61139	0.00406
1954.64709	0.00399
1953.68278	0.00397
1952.71848	0.00404
1951.75417	0.00414
1950.78986	0.00416
1949.82556	0.0041
1948.86125	0.00401
1947.89695	0.00398
1946.93264	0.00405
1945.96834	0.00411
1945.00403	0.00407
1944.03973	0.00409
1943.07542	0.00427
1942.11112	0.0042
1941.14681	0.00384
1940.1825	0.0037
1939.2182	0.00371
1938.25389	0.00366
1937.28959	0.00361
1936.32528	0.00353
1935.36098	0.00345
1934.39667	0.00339
1933.43237	0.00335
1932.46806	0.00335
1931.50376	0.00331
1930.53945	0.00322
1929.57515	0.00309
1928.61084	0.00301
1927.64653	0.00298
1926.68223	0.003
1925.71792	0.00306
1924.75362	0.00307
1923.78931	0.00315
1922.82501	0.00318
1921.8607	0.00299
1920.8964	0.00287
1919.93209	0.00292
1918.96779	0.00332
1918.00348	0.00364
1917.03917	0.00326
1916.07487	0.00284
1915.11056	0.00282
1914.14626	0.00287
1913.18195	0.00294
1912.21765	0.00297
1911.25334	0.00297
1910.28904	0.00298
1909.32473	0.00293
1908.36043	0.00292
1907.39612	0.00293
1906.43182	0.00294
1905.46751	0.00291
1904.5032	0.00282
1903.5389	0.00272
1902.57459	0.00266
1901.61029	0.00269
1900.64598	0.00275
1899.68168	0.00277
1898.71737	0.00271
1897.75307	0.00256
1896.78876	0.00248
1895.82446	0.00257
1894.86015	0.00269
1893.89584	0.00267
1892.93154	0.00261
1891.96723	0.00252
1891.00293	0.00254
1890.03862	0.00283
1889.07432	0.00293
1888.11001	0.00276
1887.14571	0.00268
1886.1814	0.00264
1885.2171	0.00257
1884.25279	0.00254
1883.28849	0.00258
1882.32418	0.00267
1881.35987	0.00273
1880.39557	0.00272
1879.43126	0.00264
1878.46696	0.00254
1877.50265	0.00251
1876.53835	0.0026
1875.57404	0.0027
1874.60974	0.00276
1873.64543	0.00273
1872.68113	0.00264
1871.71682	0.00261
1870.75251	0.00286
1869.78821	0.00347
1868.8239	0.00376
1867.8596	0.00352
1866.89529	0.00318
1865.93099	0.00289
1864.96668	0.00276
1864.00238	0.00286
1863.03807	0.00305
1862.07377	0.00316
1861.10946	0.00312
1860.14516	0.00301
1859.18085	0.00294
1858.21654	0.003
1857.25224	0.00315
1856.28793	0.0033
1855.32363	0.00334
1854.35932	0.00325
1853.39502	0.00316
1852.43071	0.00315
1851.46641	0.0033
1850.5021	0.00351
1849.5378	0.00369
1848.57349	0.00379
1847.60918	0.00373
1846.64488	0.00354
1845.68057	0.00392
1844.71627	0.00509
1843.75196	0.00534
1842.78766	0.00454
1841.82335	0.00406
1840.85905	0.00387
1839.89474	0.00388
1838.93044	0.00415
1837.96613	0.00453
1837.00182	0.00479
1836.03752	0.00466
1835.07321	0.00447
1834.10891	0.00444
1833.1446	0.00464
1832.1803	0.005
1831.21599	0.00562
1830.25169	0.00627
1829.28738	0.00606
1828.32308	0.00541
1827.35877	0.00529
1826.39447	0.00593
1825.43016	0.00679
1824.46585	0.00679
1823.50155	0.00631
1822.53724	0.00612
1821.57294	0.00616
1820.60863	0.0065
1819.64433	0.00692
1818.68002	0.00726
1817.71572	0.00743
1816.75141	0.00734
1815.78711	0.00728
1814.8228	0.00749
1813.85849	0.00795
1812.89419	0.00838
1811.92988	0.00869
1810.96558	0.00886
1810.00127	0.00871
1809.03697	0.0086
1808.07266	0.00893
1807.10836	0.00939
1806.14405	0.00965
1805.17975	0.0097
1804.21544	0.00961
1803.25114	0.00979
1802.28683	0.01032
1801.32252	0.0108
1800.35822	0.01128
1799.39391	0.01145
1798.42961	0.01109
1797.4653	0.01087
1796.501	0.0112
1795.53669	0.01165
1794.57239	0.01207
1793.60808	0.0129
1792.64378	0.01354
1791.67947	0.01326
1790.71516	0.01292
1789.75086	0.01292
1788.78655	0.01321
1787.82225	0.01362
1786.85794	0.01379
1785.89364	0.01408
1784.92933	0.01438
1783.96503	0.01435
1783.00072	0.01454
1782.03642	0.01514
1781.07211	0.01578
1780.10781	0.01583
1779.1435	0.01548
1778.17919	0.01547
1777.21489	0.01583
1776.25058	0.01659
1775.28628	0.01708
1774.32197	0.01721
1773.35767	0.01783
1772.39336	0.01837
1771.42906	0.01834
1770.46475	0.01823
1769.50045	0.01868
1768.53614	0.01964
1767.57183	0.0196
1766.60753	0.01885
1765.64322	0.01882
1764.67892	0.01933
1763.71461	0.02004
1762.75031	0.02101
1761.786	0.0216
1760.8217	0.02108
1759.85739	0.02065
1758.89309	0.02106
1757.92878	0.02195
1756.96448	0.02289
1756.00017	0.02288
1755.03586	0.02237
1754.07156	0.02222
1753.10725	0.0225
1752.14295	0.02387
1751.17864	0.02508
1750.21434	0.02493
1749.25003	0.02469
1748.28573	0.02461
1747.32142	0.02442
1746.35712	0.02464
1745.39281	0.02525
1744.4285	0.02608
1743.4642	0.02666
1742.49989	0.02655
1741.53559	0.02652
1740.57128	0.02758
1739.60698	0.02881
1738.64267	0.0292
1737.67837	0.02953
1736.71406	0.02989
1735.74976	0.03082
1734.78545	0.03281
1733.82115	0.03403
1732.85684	0.03396
1731.89253	0.03395
1730.92823	0.0346
1729.96392	0.03527
1728.99962	0.03546
1728.03531	0.03596
1727.07101	0.03701
1726.1067	0.03813
1725.1424	0.03904
1724.17809	0.03978
1723.21379	0.04035
1722.24948	0.04093
1721.28517	0.04193
1720.32087	0.04337
1719.35656	0.04527
1718.39226	0.04701
1717.42795	0.04749
1716.46365	0.04753
1715.49934	0.04859
1714.53504	0.05008
1713.57073	0.05098
1712.60643	0.05167
1711.64212	0.05239
1710.67781	0.05322
1709.71351	0.05435
1708.7492	0.05565
1707.7849	0.05753
1706.82059	0.05951
1705.85629	0.06075
1704.89198	0.06155
1703.92768	0.06241
1702.96337	0.06358
1701.99907	0.0659
1701.03476	0.06957
1700.07046	0.07151
1699.10615	0.07094
1698.14184	0.07097
1697.17754	0.07288
1696.21323	0.07587
1695.24893	0.07777
1694.28462	0.07826
1693.32032	0.07914
1692.35601	0.08041
1691.39171	0.08202
1690.4274	0.08418
1689.4631	0.08645
1688.49879	0.0885
1687.53448	0.09
1686.57018	0.09132
1685.60587	0.09363
1684.64157	0.0965
1683.67726	0.09869
1682.71296	0.09999
1681.74865	0.10117
1680.78435	0.10281
1679.82004	0.1043
1678.85574	0.10566
1677.89143	0.10755
1676.92713	0.1101
1675.96282	0.11324
1674.99851	0.11527
1674.03421	0.11558
1673.0699	0.11661
1672.1056	0.11895
1671.14129	0.12131
1670.17699	0.12372
1669.21268	0.12586
1668.24838	0.12662
1667.28407	0.12705
1666.31977	0.12839
1665.35546	0.1302
1664.39115	0.13244
1663.42685	0.13479
1662.46254	0.13627
1661.49824	0.13671
1660.53393	0.1375
1659.56963	0.13903
1658.60532	0.14074
1657.64102	0.14238
1656.67671	0.1434
1655.71241	0.14439
1654.7481	0.14602
1653.7838	0.14826
1652.81949	0.14979
1651.85518	0.14948
1650.89088	0.14893
1649.92657	0.14897
1648.96227	0.1495
1647.99796	0.1502
1647.03366	0.15081
1646.06935	0.1513
1645.10505	0.15086
1644.14074	0.1499
1643.17644	0.14909
1642.21213	0.14827
1641.24782	0.14763
1640.28352	0.14724
1639.31921	0.14681
1638.35491	0.14623
1637.3906	0.14513
1636.4263	0.14395
1635.46199	0.14299
1634.49769	0.14101
1633.53338	0.13878
1632.56908	0.13709
1631.60477	0.13502
1630.64047	0.13266
1629.67616	0.13031
1628.71185	0.12863
1627.74755	0.12711
1626.78324	0.12483
1625.81894	0.12212
1624.85463	0.11944
1623.89033	0.11708
1622.92602	0.11424
1621.96172	0.11124
1620.99741	0.10867
1620.03311	0.10601
1619.0688	0.10296
1618.10449	0.10004
1617.14019	0.09783
1616.17588	0.0951
1615.21158	0.09188
1614.24727	0.08922
1613.28297	0.08645
1612.31866	0.08338
1611.35436	0.08037
1610.39005	0.07791
1609.42575	0.07595
1608.46144	0.07403
1607.49714	0.07195
1606.53283	0.06944
1605.56852	0.06677
1604.60422	0.06454
1603.63991	0.06296
1602.67561	0.06165
1601.7113	0.06023
1600.747	0.05844
1599.78269	0.05638
1598.81839	0.05457
1597.85408	0.05334
1596.88978	0.05259
1595.92547	0.05189
1594.96116	0.05089
1593.99686	0.04947
1593.03255	0.04802
1592.06825	0.04705
1591.10394	0.04656
1590.13964	0.04626
1589.17533	0.04578
1588.21103	0.04497
1587.24672	0.044
1586.28242	0.04323
1585.31811	0.0429
1584.3538	0.04286
1583.3895	0.04285
1582.42519	0.04253
1581.46089	0.04196
1580.49658	0.04133
1579.53228	0.04106
1578.56797	0.04125
1577.60367	0.04192
1576.63936	0.04285
1575.67506	0.04252
1574.71075	0.04122
1573.74645	0.04064
1572.78214	0.04086
1571.81783	0.04144
1570.85353	0.04236
1569.88922	0.04315
1568.92492	0.04263
1567.96061	0.04158
1566.99631	0.04146
1566.032	0.04222
1565.0677	0.04317
1564.10339	0.04325
1563.13909	0.04274
1562.17478	0.04249
1561.21047	0.0433
1560.24617	0.04511
1559.28186	0.04635
1558.31756	0.047
1557.35325	0.04646
1556.38895	0.04485
1555.42464	0.04475
1554.46034	0.04572
1553.49603	0.04599
1552.53173	0.04597
1551.56742	0.0463
1550.60312	0.04687
1549.63881	0.04701
1548.6745	0.04683
1547.7102	0.04714
1546.74589	0.04807
1545.78159	0.04933
1544.81728	0.04991
1543.85298	0.04978
1542.88867	0.05057
1541.92437	0.05163
1540.96006	0.05216
1539.99576	0.05315
1539.03145	0.05367
1538.06714	0.0529
1537.10284	0.05223
1536.13853	0.05252
1535.17423	0.0537
1534.20992	0.05546
1533.24562	0.05647
1532.28131	0.05619
1531.31701	0.05587
1530.3527	0.05602
1529.3884	0.05694
1528.42409	0.05846
1527.45979	0.05946
1526.49548	0.06014
1525.53117	0.06058
1524.56687	0.06058
1523.60256	0.06117
1522.63826	0.063
1521.67395	0.06516
1520.70965	0.06593
1519.74534	0.06512
1518.78104	0.06471
1517.81673	0.066
1516.85243	0.06739
1515.88812	0.06802
1514.92381	0.06852
1513.95951	0.06886
1512.9952	0.06967
1512.0309	0.07057
1511.06659	0.07132
1510.10229	0.07278
1509.13798	0.07435
1508.17368	0.07575
1507.20937	0.07704
1506.24507	0.07779
1505.28076	0.07795
1504.31646	0.07827
1503.35215	0.07931
1502.38784	0.08061
1501.42354	0.08167
1500.45923	0.08269
1499.49493	0.08443
1498.53062	0.08609
1497.56632	0.08739
1496.60201	0.08932
1495.63771	0.09064
1494.6734	0.09123
1493.7091	0.09241
1492.74479	0.09412
1491.78048	0.09651
1490.81618	0.09936
1489.85187	0.10157
1488.88757	0.103
1487.92326	0.10471
1486.95896	0.10681
1485.99465	0.10885
1485.03035	0.11134
1484.06604	0.11414
1483.10174	0.1169
1482.13743	0.1198
1481.17313	0.12292
1480.20882	0.12621
1479.24451	0.12982
1478.28021	0.13371
1477.3159	0.13795
1476.3516	0.14209
1475.38729	0.14533
1474.42299	0.14882
1473.45868	0.15308
1472.49438	0.15694
1471.53007	0.15994
1470.56577	0.1623
1469.60146	0.16488
1468.63715	0.16781
1467.67285	0.17076
1466.70854	0.17391
1465.74424	0.1772
1464.77993	0.18005
1463.81563	0.18166
1462.85132	0.18303
1461.88702	0.18474
1460.92271	0.18626
1459.95841	0.18794
1458.9941	0.18949
1458.02979	0.19099
1457.06549	0.19233
1456.10118	0.19245
1455.13688	0.19213
1454.17257	0.19248
1453.20827	0.19319
1452.24396	0.19376
1451.27966	0.19401
1450.31535	0.19395
1449.35105	0.19413
1448.38674	0.19462
1447.42244	0.19477
1446.45813	0.19457
1445.49382	0.19462
1444.52952	0.19505
1443.56521	0.19567
1442.60091	0.19663
1441.6366	0.19784
1440.6723	0.1992
1439.70799	0.20062
1438.74369	0.202
1437.77938	0.20424
1436.81508	0.20677
1435.85077	0.20778
1434.88646	0.20837
1433.92216	0.20988
1432.95785	0.21144
1431.99355	0.21283
1431.02924	0.21455
1430.06494	0.21654
1429.10063	0.21827
1428.13633	0.21971
1427.17202	0.22124
1426.20772	0.22266
1425.24341	0.22429
1424.27911	0.22619
1423.3148	0.22762
1422.35049	0.22861
1421.38619	0.22947
1420.42188	0.2309
1419.45758	0.23242
1418.49327	0.23254
1417.52897	0.23207
1416.56466	0.23168
1415.60036	0.23092
1414.63605	0.23005
1413.67175	0.22911
1412.70744	0.22809
1411.74313	0.22675
1410.77883	0.22493
1409.81452	0.22285
1408.85022	0.22065
1407.88591	0.21832
1406.92161	0.21579
1405.9573	0.21318
1404.993	0.21023
1404.02869	0.20668
1403.06439	0.20315
1402.10008	0.20005
1401.13578	0.19715
1400.17147	0.19471
1399.20716	0.19263
1398.24286	0.19049
1397.27855	0.18882
1396.31425	0.18809
1395.34994	0.18822
1394.38564	0.18835
1393.42133	0.18792
1392.45703	0.18776
1391.49272	0.18809
1390.52842	0.18842
1389.56411	0.18851
1388.5998	0.18849
1387.6355	0.18797
1386.67119	0.18582
1385.70689	0.1827
1384.74258	0.18051
1383.77828	0.18058
1382.81397	0.18293
1381.84967	0.186
1380.88536	0.18884
1379.92106	0.19154
1378.95675	0.19444
1377.99245	0.19763
1377.02814	0.20102
1376.06383	0.20469
1375.09953	0.20853
1374.13522	0.21206
1373.17092	0.21495
1372.20661	0.21759
1371.24231	0.22033
1370.278	0.22272
1369.3137	0.22442
1368.34939	0.22507
1367.38509	0.22447
1366.42078	0.22299
1365.45647	0.2207
1364.49217	0.21793
1363.52786	0.21488
1362.56356	0.2113
1361.59925	0.20769
1360.63495	0.20478
1359.67064	0.20284
1358.70634	0.20207
1357.74203	0.20203
1356.77773	0.20216
1355.81342	0.20229
1354.84911	0.20232
1353.88481	0.20228
1352.9205	0.20221
1351.9562	0.20211
1350.99189	0.20195
1350.02759	0.20179
1349.06328	0.20171
1348.09898	0.20186
1347.13467	0.2026
1346.17037	0.20394
1345.20606	0.20556
1344.24176	0.2072
1343.27745	0.20884
1342.31314	0.21056
1341.34884	0.21256
1340.38453	0.2148
1339.42023	0.21684
1338.45592	0.2183
1337.49162	0.21894
1336.52731	0.21882
1335.56301	0.21809
1334.5987	0.21695
1333.6344	0.21552
1332.67009	0.21354
1331.70578	0.21086
1330.74148	0.20757
1329.77717	0.20399
1328.81287	0.20046
1327.84856	0.19708
1326.88426	0.19357
1325.91995	0.18946
1324.95565	0.18465
1323.99134	0.1794
1323.02704	0.17415
1322.06273	0.1693
1321.09843	0.16504
1320.13412	0.16133
1319.16981	0.15797
1318.20551	0.15496
1317.2412	0.15264
1316.2769	0.15119
1315.31259	0.15074
1314.34829	0.15114
1313.38398	0.152
1312.41968	0.15304
1311.45537	0.15439
1310.49107	0.15625
1309.52676	0.15867
1308.56245	0.16138
1307.59815	0.16393
1306.63384	0.16586
1305.66954	0.16712
1304.70523	0.16807
1303.74093	0.16891
1302.77662	0.16952
1301.81232	0.16959
1300.84801	0.16885
1299.88371	0.16723
1298.9194	0.16512
1297.9551	0.16304
1296.99079	0.16123
1296.02648	0.1594
1295.06218	0.15713
1294.09787	0.15427
1293.13357	0.15095
1292.16926	0.14765
1291.20496	0.14482
1290.24065	0.14241
1289.27635	0.14011
1288.31204	0.13782
1287.34774	0.1356
1286.38343	0.13371
1285.41912	0.13244
1284.45482	0.13191
1283.49051	0.13175
1282.52621	0.13155
1281.5619	0.13123
1280.5976	0.13099
1279.63329	0.13106
1278.66899	0.13163
1277.70468	0.13268
1276.74038	0.13385
1275.77607	0.13479
1274.81177	0.13556
1273.84746	0.13645
1272.88315	0.13773
1271.91885	0.1394
1270.95454	0.14113
1269.99024	0.14249
1269.02593	0.1434
1268.06163	0.14415
1267.09732	0.14503
1266.13302	0.14614
1265.16871	0.14734
1264.20441	0.14831
1263.2401	0.14873
1262.27579	0.14876
1261.31149	0.14878
1260.34718	0.14913
1259.38288	0.14978
1258.41857	0.15034
1257.45427	0.15048
1256.48996	0.15021
1255.52566	0.14995
1254.56135	0.15002
1253.59705	0.1504
1252.63274	0.15091
1251.66844	0.15125
1250.70413	0.15117
1249.73982	0.15083
1248.77552	0.15066
1247.81121	0.15086
1246.84691	0.15128
1245.8826	0.15164
1244.9183	0.15174
1243.95399	0.15144
1242.98969	0.15091
1242.02538	0.15043
1241.06108	0.15018
1240.09677	0.14998
1239.13246	0.1495
1238.16816	0.14852
1237.20385	0.14714
1236.23955	0.1458
1235.27524	0.1448
1234.31094	0.14405
1233.34663	0.14319
1232.38233	0.14199
1231.41802	0.1404
1230.45372	0.13875
1229.48941	0.13753
1228.5251	0.1369
1227.5608	0.13653
1226.59649	0.13606
1225.63219	0.13547
1224.66788	0.13496
1223.70358	0.13487
1222.73927	0.13552
1221.77497	0.13673
1220.81066	0.13813
1219.84636	0.13956
1218.88205	0.1411
1217.91775	0.14297
1216.95344	0.14549
1215.98913	0.14872
1215.02483	0.1524
1214.06052	0.15607
1213.09622	0.15957
1212.13191	0.16302
1211.16761	0.1666
1210.2033	0.1704
1209.239	0.17424
1208.27469	0.17769
1207.31039	0.1805
1206.34608	0.18265
1205.38177	0.18435
1204.41747	0.18591
1203.45316	0.18731
1202.48886	0.18839
1201.52455	0.18901
1200.56025	0.18896
1199.59594	0.18852
1198.63164	0.18808
1197.66733	0.18785
1196.70303	0.18788
1195.73872	0.18791
1194.77442	0.18787
1193.81011	0.18792
1192.8458	0.18841
1191.8815	0.1897
1190.91719	0.19175
1189.95289	0.19429
1188.98858	0.19712
1188.02428	0.20022
1187.05997	0.20373
1186.09567	0.20789
1185.13136	0.21276
1184.16706	0.21822
1183.20275	0.22408
1182.23844	0.23025
1181.27414	0.2368
1180.30983	0.2439
1179.34553	0.25176
1178.38122	0.2605
1177.41692	0.27011
1176.45261	0.28059
1175.48831	0.29192
1174.524	0.3042
1173.5597	0.31772
1172.59539	0.33283
1171.63109	0.34973
1170.66678	0.36838
1169.70247	0.38859
1168.73817	0.41028
1167.77386	0.43347
1166.80956	0.45818
1165.84525	0.48397
1164.88095	0.51025
1163.91664	0.53607
1162.95234	0.56024
1161.98803	0.58189
1161.02373	0.60032
1160.05942	0.61493
1159.09511	0.6249
1158.13081	0.62963
1157.1665	0.62905
1156.2022	0.62337
1155.23789	0.61317
1154.27359	0.59946
1153.30928	0.58318
1152.34498	0.56497
1151.38067	0.54526
1150.41637	0.52454
1149.45206	0.5031
1148.48776	0.48143
1147.52345	0.46021
1146.55914	0.43978
1145.59484	0.4202
1144.63053	0.40151
1143.66623	0.38402
1142.70192	0.3682
1141.73762	0.35446
1140.77331	0.34323
1139.80901	0.33456
1138.8447	0.32806
1137.8804	0.32335
1136.91609	0.32038
1135.95178	0.31927
1134.98748	0.31989
1134.02317	0.32204
1133.05887	0.32543
1132.09456	0.32948
1131.13026	0.33383
1130.16595	0.33838
1129.20165	0.34304
1128.23734	0.34772
1127.27304	0.35205
1126.30873	0.35556
1125.34443	0.3581
1124.38012	0.35971
1123.41581	0.36077
1122.45151	0.36186
1121.4872	0.36337
1120.5229	0.36536
1119.55859	0.36775
1118.59429	0.37051
1117.62998	0.37383
1116.66568	0.37825
1115.70137	0.38409
1114.73707	0.39105
1113.77276	0.39866
1112.80845	0.40648
1111.84415	0.4143
1110.87984	0.42218
1109.91554	0.43021
1108.95123	0.43818
1107.98693	0.4456
1107.02262	0.45208
1106.05832	0.45755
1105.09401	0.46231
1104.12971	0.46673
1103.1654	0.471
1102.20109	0.47494
1101.23679	0.47797
1100.27248	0.47984
1099.30818	0.48086
1098.34387	0.48148
1097.37957	0.48216
1096.41526	0.48333
1095.45096	0.48535
1094.48665	0.48839
1093.52235	0.49275
1092.55804	0.49926
1091.59374	0.50872
1090.62943	0.52138
1089.66512	0.53704
1088.70082	0.55496
1087.73651	0.57419
1086.77221	0.5942
1085.8079	0.61468
1084.8436	0.63515
1083.87929	0.65439
1082.91499	0.67027
1081.95068	0.6811
1080.98638	0.68659
1080.02207	0.68718
1079.05776	0.68341
1078.09346	0.67576
1077.12915	0.66419
1076.16485	0.64833
1075.20054	0.62807
1074.23624	0.60416
1073.27193	0.57852
1072.30763	0.55385
1071.34332	0.53301
1070.37902	0.51852
1069.41471	0.51234
1068.45041	0.51542
1067.4861	0.52746
1066.52179	0.54684
1065.55749	0.57103
1064.59318	0.59734
1063.62888	0.62348
1062.66457	0.64768
1061.70027	0.66926
1060.73596	0.68863
1059.77166	0.70618
1058.80735	0.72166
1057.84305	0.73443
1056.87874	0.74385
1055.91443	0.75017
1054.95013	0.75445
1053.98582	0.75791
1053.02152	0.76155
1052.05721	0.76558
1051.09291	0.76987
1050.1286	0.77443
1049.1643	0.77929
1048.19999	0.78494
1047.23569	0.79184
1046.27138	0.79966
1045.30708	0.80751
1044.34277	0.81477
1043.37846	0.82207
1042.41416	0.83027
1041.44985	0.83942
1040.48555	0.84999
1039.52124	0.86176
1038.55694	0.87368
1037.59263	0.88579
1036.62833	0.89893
1035.66402	0.91362
1034.69972	0.92981
1033.73541	0.94676
1032.7711	0.96281
1031.8068	0.97668
1030.84249	0.98779
1029.87819	0.99559
1028.91388	0.99978
1027.94958	1
1026.98527	0.99528
1026.02097	0.98502
1025.05666	0.96984
1024.09236	0.95092
1023.12805	0.92963
1022.16375	0.90673
1021.19944	0.88244
1020.23513	0.85665
1019.27083	0.82881
1018.30652	0.7996
1017.34222	0.77075
1016.37791	0.74323
1015.41361	0.71676
1014.4493	0.69078
1013.485	0.66526
1012.52069	0.6408
1011.55639	0.61884
1010.59208	0.6009
1009.62777	0.58775
1008.66347	0.57912
1007.69916	0.57399
1006.73486	0.57122
1005.77055	0.57009
1004.80625	0.57061
1003.84194	0.57285
1002.87764	0.57601
1001.91333	0.57912
1000.94903	0.58121
999.98472	0.58162
999.02042	0.58048
998.05611	0.57789
997.0918	0.57347
996.1275	0.56607
995.16319	0.55419
994.19889	0.53765
993.23458	0.51732
992.27028	0.4944
991.30597	0.47038
990.34167	0.44587
989.37736	0.42068
988.41306	0.3949
987.44875	0.36946
986.48444	0.34572
985.52014	0.32437
984.55583	0.30526
983.59153	0.28769
982.62722	0.27079
981.66292	0.25435
980.69861	0.23893
979.73431	0.22519
978.77	0.21323
977.8057	0.2024
976.84139	0.19189
975.87708	0.18122
974.91278	0.17068
973.94847	0.16094
972.98417	0.1524
972.01986	0.1449
971.05556	0.13783
970.09125	0.13048
969.12695	0.12272
968.16264	0.11514
967.19834	0.10846
966.23403	0.10293
965.26973	0.09805
964.30542	0.09304
963.34111	0.08756
962.37681	0.08189
961.4125	0.07684
960.4482	0.07315
959.48389	0.07082
958.51959	0.06924
957.55528	0.06788
956.59098	0.06708
955.62667	0.0683
954.66237	0.0732
953.69806	0.08256
952.73375	0.09605
951.76945	0.11255
950.80514	0.13037
949.84084	0.1474
948.87653	0.1613
947.91223	0.1697
946.94792	0.17127
945.98362	0.16654
945.01931	0.15782
944.05501	0.14873
943.0907	0.14263
942.1264	0.14136
941.16209	0.14443
940.19778	0.1495
939.23348	0.15399
938.26917	0.15608
937.30487	0.1551
936.34056	0.15125
935.37626	0.14507
934.41195	0.13704
933.44765	0.12769
932.48334	0.11761
931.51904	0.10748
930.55473	0.09833
929.59042	0.09092
928.62612	0.08513
927.66181	0.08004
926.69751	0.07471
925.7332	0.06893
924.7689	0.06327
923.80459	0.05859
922.84029	0.0552
921.87598	0.05245
920.91168	0.04934
919.94737	0.04531
918.98307	0.04072
918.01876	0.03667
917.05445	0.034
916.09015	0.03237
915.12584	0.03087
914.16154	0.02876
913.19723	0.02633
912.23293	0.02433
911.26862	0.02334
910.30432	0.02328
909.34001	0.02318
908.37571	0.02201
907.4114	0.01951
906.44709	0.01646
905.48279	0.01372
904.51848	0.01164
903.55418	0.00997
902.58987	0.00804
901.62557	0.00553
900.66126	0.00284
899.69696	7.59619E-4
898.73265	0
897.76835	4.06803E-4
896.80404	0.00136
895.83974	0.00204
894.87543	0.00235
893.91112	0.0029
892.94682	0.00431
891.98251	0.00657
891.01821	0.00903
890.0539	0.01067
889.0896	0.01087
888.12529	0.01015
887.16099	0.00928
886.19668	0.0088
885.23238	0.00862
884.26807	0.00811
883.30376	0.00697
882.33946	0.00549
881.37515	0.0045
880.41085	0.00474
879.44654	0.00637
878.48224	0.00884
877.51793	0.0115
876.55363	0.01416
875.58932	0.01727
874.62502	0.02163
873.66071	0.02747
872.69641	0.03433
871.7321	0.0414
870.76779	0.04796
869.80349	0.05404
868.83918	0.06
867.87488	0.06606
866.91057	0.07187
865.94627	0.07661
864.98196	0.07971
864.01766	0.08112
863.05335	0.08147
862.08905	0.08169
861.12474	0.08223
860.16043	0.08293
859.19613	0.08324
858.23182	0.08277
857.26752	0.08172
856.30321	0.08062
855.33891	0.08006
854.3746	0.07994
853.4103	0.0796
852.44599	0.07857
851.48169	0.07682
850.51738	0.07476
849.55307	0.07315
848.58877	0.07234
847.62446	0.07174
846.66016	0.0703
845.69585	0.0676
844.73155	0.06424
843.76724	0.06113
842.80294	0.05876
841.83863	0.05692
840.87433	0.05466
839.91002	0.05129
838.94572	0.04721
837.98141	0.04343
837.0171	0.04073
836.0528	0.03902
835.08849	0.03739
834.12419	0.035
833.15988	0.03193
832.19558	0.02909
831.23127	0.02747
830.26697	0.02715
829.30266	0.02728
828.33836	0.02691
827.37405	0.02588
826.40974	0.02487
825.44544	0.02448
824.48113	0.0251
823.51683	0.02628
822.55252	0.02716
821.58822	0.02739
820.62391	0.0272
819.65961	0.02732
818.6953	0.02821
817.731	0.0297
816.76669	0.03112
815.80239	0.03183
814.83808	0.03194
813.87377	0.03219
812.90947	0.03318
811.94516	0.03476
810.98086	0.03646
810.01655	0.03777
809.05225	0.03844
808.08794	0.0388
807.12364	0.03967
806.15933	0.04136
805.19503	0.04346
804.23072	0.04546
803.26641	0.04692
802.30211	0.04803
801.3378	0.04925
800.3735	0.05108
799.40919	0.05367
798.44489	0.05647
797.48058	0.05871
796.51628	0.06003
795.55197	0.06072
794.58767	0.06131
793.62336	0.06214
792.65906	0.06301
791.69475	0.06313
790.73044	0.0624
789.76614	0.06154
788.80183	0.06154
787.83753	0.0627
786.87322	0.06465
785.90892	0.06674
784.94461	0.06815
783.98031	0.06915
783.016	0.07065
782.0517	0.07323
781.08739	0.07642
780.12308	0.07906
779.15878	0.08052
778.19447	0.08081
777.23017	0.08052
776.26586	0.08044
775.30156	0.08094
774.33725	0.08165
773.37295	0.08218
772.40864	0.0828
771.44434	0.08421
770.48003	0.08702
769.51573	0.09151
768.55142	0.09743
767.58711	0.10416
766.62281	0.11101
765.6585	0.11767
764.6942	0.12413
763.72989	0.12992
762.76559	0.13465
761.80128	0.13833
760.83698	0.14063
759.87267	0.14157
758.90837	0.14196
757.94406	0.1428
756.97975	0.14452
756.01545	0.14636
755.05114	0.14681
754.08684	0.14449
753.12253	0.13939
752.15823	0.13265
751.19392	0.12552
750.22962	0.11851
749.26531	0.11159
748.30101	0.10483
747.3367	0.09877
746.3724	0.09446
745.40809	0.09238
744.44378	0.09205
743.47948	0.09211
742.51517	0.09169
741.55087	0.09096
740.58656	0.09043
739.62226	0.09101
738.65795	0.09268
737.69365	0.09436
736.72934	0.09541
735.76504	0.09551
734.80073	0.09537
733.83642	0.09616
732.87212	0.09808
731.90781	0.10035
730.94351	0.10191
729.9792	0.10243
729.0149	0.10257
728.05059	0.10333
727.08629	0.10516
726.12198	0.10771
725.15768	0.11001
724.19337	0.11156
723.22906	0.11262
722.26476	0.11398
721.30045	0.11647
720.33615	0.12006
719.37184	0.12415
718.40754	0.12805
717.44323	0.13161
716.47893	0.13545
715.51462	0.14027
714.55032	0.14622
713.58601	0.15287
712.62171	0.15939
711.6574	0.16476
710.69309	0.16885
709.72879	0.17229
708.76448	0.17542
707.80018	0.17775
706.83587	0.17823
705.87157	0.17604
704.90726	0.17163
703.94296	0.16631
702.97865	0.16124
702.01435	0.1568
701.05004	0.15277
700.08573	0.14855
699.12143	0.14362
698.15712	0.13871
697.19282	0.1353
696.22851	0.13377
695.26421	0.13319
694.2999	0.13239
693.3356	0.13091
692.37129	0.1289
691.40699	0.12733
690.44268	0.12726
689.47838	0.12829
688.51407	0.12917
687.54976	0.12901
686.58546	0.12786
685.62115	0.1266
684.65685	0.12643
683.69254	0.12745
682.72824	0.12883
681.76393	0.12959
680.79963	0.129
679.83532	0.12789
678.87102	0.12749
677.90671	0.12842
676.9424	0.13021
675.9781	0.13137
675.01379	0.13104
674.04949	0.12964
673.08518	0.12891
672.12088	0.12985
671.15657	0.13175
670.19227	0.13326
669.22796	0.13346
668.26366	0.13264
667.29935	0.13178
666.33505	0.13222
665.37074	0.1341
664.40643	0.13603
663.44213	0.13686
662.47782	0.13641
661.51352	0.13562
660.54921	0.13593
659.58491	0.13766
658.6206	0.13986
657.6563	0.14126
656.69199	0.14126
655.72769	0.14051
654.76338	0.14024
653.79907	0.14108
652.83477	0.1427
651.87046	0.14403
650.90616	0.14403
649.94185	0.14255
648.97755	0.14074
648.01324	0.13988
647.04894	0.14016
646.08463	0.1407
645.12033	0.14022
644.15602	0.1382
643.19172	0.13556
642.22741	0.13416
641.2631	0.13456
640.2988	0.13552
639.33449	0.13556
638.37019	0.13438
637.40588	0.13265
636.44158	0.13147
635.47727	0.13193
634.51297	0.13324
633.54866	0.13395
632.58436	0.13351
631.62005	0.13221
630.65574	0.13126
629.69144	0.13147
628.72713	0.13295
627.76283	0.13461
626.79852	0.13536
625.83422	0.13553
624.86991	0.13579
623.90561	0.13729
622.9413	0.14041
621.977	0.14467
621.01269	0.14925
620.04839	0.1536
619.08408	0.15811
618.11977	0.16364
617.15547	0.17098
616.19116	0.1795
615.22686	0.18751
614.26255	0.19383
613.29825	0.19837
612.33394	0.20184
611.36964	0.20499
610.40533	0.20774
609.44103	0.20918
608.47672	0.2086
607.51241	0.20595
606.54811	0.20219
605.5838	0.19798
604.6195	0.19407
603.65519	0.19162
602.69089	0.18954
601.72658	0.18605
600.76228	0.18151
599.79797	0.17785
598.83367	0.1761
597.86936	0.17588
596.90505	0.17598
595.94075	0.17537
594.97644	0.17481
594.01214	0.17498
593.04783	0.17732
592.08353	0.18242
591.11922	0.18779
590.15492	0.19253
589.19061	0.19724
588.22631	0.20232
587.262	0.20867
586.2977	0.2169
585.33339	0.22608
584.36908	0.23426
583.40478	0.24111
582.44047	0.24677
581.47617	0.25161
580.51186	0.25693
579.54756	0.26205
578.58325	0.26475
577.61895	0.26405
576.65464	0.26091
575.69034	0.25615
574.72603	0.25024
573.76172	0.24424
572.79742	0.23819
571.83311	0.23135
570.86881	0.22318
569.9045	0.21427
568.9402	0.20575
567.97589	0.19785
567.01159	0.19013
566.04728	0.18172
565.08298	0.17258
564.11867	0.16377
563.15437	0.15614
562.19006	0.15006
561.22575	0.14559
560.26145	0.14204
559.29714	0.13795
558.33284	0.13317
557.36853	0.12926
556.40423	0.12693
555.43992	0.12571
554.47562	0.12446
553.51131	0.12246
552.54701	0.11996
551.5827	0.11786
550.61839	0.11694
549.65409	0.11721
548.68978	0.11818
547.72548	0.11905
546.76117	0.11942
545.79687	0.12024
544.83256	0.12247
543.86826	0.12605
542.90395	0.13029
541.93965	0.13362
540.97534	0.13588
540.01104	0.13822
539.04673	0.14057
538.08242	0.14341
537.11812	0.14684
536.15381	0.14937
535.18951	0.15075
534.2252	0.15206
533.2609	0.15422
532.29659	0.15713
531.33229	0.15969
530.36798	0.1608
529.40368	0.16022
528.43937	0.15797
527.47506	0.15477
526.51076	0.1522
525.54645	0.14958
524.58215	0.14593
523.61784	0.14154
522.65354	0.13669
521.68923	0.13227
520.72493	0.1286
519.76062	0.12522
518.79632	0.12202
517.83201	0.11912
516.86771	0.11627
515.9034	0.11342
514.93909	0.11125
513.97479	0.10962
513.01048	0.10781
512.04618	0.10603
511.08187	0.10472
510.11757	0.10326
509.15326	0.10138
508.18896	0.0995
507.22465	0.09809
506.26035	0.09699
505.29604	0.09565
504.33173	0.09435
503.36743	0.09332
502.40312	0.09262
501.43882	0.09154
500.47451	0.09039
499.51021	0.08991
498.5459	0.08876
497.5816	0.08671
496.61729	0.0853
495.65299	0.08429
494.68868	0.0827
493.72438	0.08202
492.76007	0.08149
491.79576	0.07974
490.83146	0.07906
489.86715	0.07901
488.90285	0.07909
487.93854	0.07955
486.97424	0.07915
486.00993	0.07844
485.04563	0.07848
484.08132	0.07919
483.11702	0.07914
482.15271	0.07844
481.1884	0.07817
480.2241	0.07771
479.25979	0.07725
478.29549	0.07723
477.33118	0.07631
476.36688	0.07402
475.40257	0.07148
474.43827	0.0685
473.47396	0.06628
472.50966	0.06532
471.54535	0.06306
470.58104	0.05957
469.61674	0.05665
468.65243	0.05438
467.68813	0.05143
466.72382	0.04856
465.75952	0.04705
464.79521	0.04543
463.83091	0.04279
462.8666	0.04072
461.9023	0.04011
460.93799	0.0395
459.97369	0.03868
459.00938	0.03831
458.04507	0.03827
457.08077	0.03838
456.11646	0.03855
455.15216	0.03876
454.18785	0.03932
453.22355	0.04056
452.25924	0.04087
451.29494	0.04093
450.33063	0.04218
449.36633	0.04312
448.40202	0.0439
447.43771	0.04428
446.47341	0.04358
445.5091	0.04275
444.5448	0.04319
443.58049	0.04436
442.61619	0.04467
441.65188	0.04469
440.68758	0.04354
439.72327	0.0421
438.75897	0.04409
437.79466	0.04699
436.83036	0.04676
435.86605	0.04502
434.90174	0.04306
433.93744	0.04124
432.97313	0.04106
432.00883	0.04233
431.04452	0.04356
430.08022	0.04261
429.11591	0.04004
428.15161	0.03809
427.1873	0.03689
426.223	0.03608
425.25869	0.03419
424.29438	0.03176
423.33008	0.03029
422.36577	0.02859
421.40147	0.0266
420.43716	0.02519
419.47286	0.02436
418.50855	0.02453
417.54425	0.02344
416.57994	0.01974
415.61564	0.0181
414.65133	0.01916
413.68703	0.02055
412.72272	0.02212
411.75841	0.0218
410.79411	0.02004
409.8298	0.01951
408.8655	0.02083
407.90119	0.02345
406.93689	0.02516
405.97258	0.02327
405.00828	0.02011
404.04397	0.01861
403.07967	0.01951
402.11536	0.0215
401.15105	0.02055
400.18675	0.01798