3999.93888	0.01559
3998.97458	0.01555
3998.01027	0.01555
3997.04597	0.01558
3996.08166	0.01562
3995.11735	0.01562
3994.15305	0.01563
3993.18874	0.01566
3992.22444	0.01564
3991.26013	0.01564
3990.29583	0.01569
3989.33152	0.01573
3988.36722	0.01574
3987.40291	0.01573
3986.43861	0.01575
3985.4743	0.01579
3984.51	0.01581
3983.54569	0.01583
3982.58138	0.01587
3981.61708	0.01588
3980.65277	0.01586
3979.68847	0.01589
3978.72416	0.01596
3977.75986	0.01602
3976.79555	0.01607
3975.83125	0.01608
3974.86694	0.01606
3973.90264	0.01608
3972.93833	0.01612
3971.97402	0.01618
3971.00972	0.01625
3970.04541	0.01627
3969.08111	0.01625
3968.1168	0.01625
3967.1525	0.01629
3966.18819	0.01637
3965.22389	0.01644
3964.25958	0.01645
3963.29528	0.01643
3962.33097	0.01641
3961.36667	0.01644
3960.40236	0.01653
3959.43805	0.01664
3958.47375	0.0167
3957.50944	0.0167
3956.54514	0.01667
3955.58083	0.01666
3954.61653	0.0167
3953.65222	0.01678
3952.68792	0.01683
3951.72361	0.01684
3950.75931	0.01686
3949.795	0.01691
3948.83069	0.01696
3947.86639	0.01703
3946.90208	0.01711
3945.93778	0.01712
3944.97347	0.0171
3944.00917	0.0171
3943.04486	0.01718
3942.08056	0.01724
3941.11625	0.01728
3940.15195	0.01731
3939.18764	0.01737
3938.22333	0.0174
3937.25903	0.01739
3936.29472	0.01742
3935.33042	0.01746
3934.36611	0.01747
3933.40181	0.01744
3932.4375	0.01741
3931.4732	0.01741
3930.50889	0.01745
3929.54459	0.01753
3928.58028	0.01761
3927.61598	0.01763
3926.65167	0.01762
3925.68736	0.0176
3924.72306	0.01764
3923.75875	0.0177
3922.79445	0.01774
3921.83014	0.01777
3920.86584	0.01777
3919.90153	0.01776
3918.93723	0.01778
3917.97292	0.0178
3917.00862	0.01786
3916.04431	0.01796
3915.08	0.01803
3914.1157	0.01806
3913.15139	0.01808
3912.18709	0.01813
3911.22278	0.01822
3910.25848	0.01832
3909.29417	0.01841
3908.32987	0.01848
3907.36556	0.01854
3906.40126	0.0186
3905.43695	0.01869
3904.47265	0.01881
3903.50834	0.01891
3902.54403	0.01897
3901.57973	0.01901
3900.61542	0.01912
3899.65112	0.01923
3898.68681	0.01937
3897.72251	0.0195
3896.7582	0.0196
3895.7939	0.01969
3894.82959	0.01981
3893.86529	0.01991
3892.90098	0.02002
3891.93667	0.02013
3890.97237	0.02026
3890.00806	0.02041
3889.04376	0.0205
3888.07945	0.0206
3887.11515	0.02074
3886.15084	0.02086
3885.18654	0.02104
3884.22223	0.02122
3883.25793	0.0213
3882.29362	0.0214
3881.32932	0.02152
3880.36501	0.02167
3879.4007	0.02186
3878.4364	0.02203
3877.47209	0.02213
3876.50779	0.02223
3875.54348	0.02239
3874.57918	0.02255
3873.61487	0.02275
3872.65057	0.02292
3871.68626	0.02303
3870.72196	0.02308
3869.75765	0.02322
3868.79334	0.02346
3867.82904	0.02367
3866.86473	0.02387
3865.90043	0.02406
3864.93612	0.02428
3863.97182	0.02458
3863.00751	0.02487
3862.04321	0.02516
3861.0789	0.02549
3860.1146	0.02575
3859.15029	0.02594
3858.18599	0.02614
3857.22168	0.0264
3856.25737	0.02671
3855.29307	0.02691
3854.32876	0.02708
3853.36446	0.0274
3852.40015	0.02768
3851.43585	0.02794
3850.47154	0.0283
3849.50724	0.02861
3848.54293	0.0289
3847.57863	0.02916
3846.61432	0.02938
3845.65001	0.02963
3844.68571	0.02989
3843.7214	0.03018
3842.7571	0.03051
3841.79279	0.03081
3840.82849	0.03105
3839.86418	0.0313
3838.89988	0.03154
3837.93557	0.03181
3836.97127	0.03222
3836.00696	0.03252
3835.04266	0.03274
3834.07835	0.03305
3833.11404	0.03337
3832.14974	0.03366
3831.18543	0.03399
3830.22113	0.03431
3829.25682	0.0346
3828.29252	0.03485
3827.32821	0.0351
3826.36391	0.03544
3825.3996	0.03581
3824.4353	0.03613
3823.47099	0.03641
3822.50668	0.03667
3821.54238	0.03693
3820.57807	0.03728
3819.61377	0.03767
3818.64946	0.03806
3817.68516	0.03838
3816.72085	0.03861
3815.75655	0.03888
3814.79224	0.03928
3813.82794	0.03966
3812.86363	0.04003
3811.89932	0.04038
3810.93502	0.04072
3809.97071	0.04107
3809.00641	0.04139
3808.0421	0.04171
3807.0778	0.04205
3806.11349	0.04245
3805.14919	0.04283
3804.18488	0.04317
3803.22058	0.04352
3802.25627	0.04383
3801.29197	0.04421
3800.32766	0.0447
3799.36335	0.04511
3798.39905	0.04545
3797.43474	0.04579
3796.47044	0.04614
3795.50613	0.04655
3794.54183	0.04697
3793.57752	0.04736
3792.61322	0.04773
3791.64891	0.04811
3790.68461	0.0485
3789.7203	0.04892
3788.75599	0.04934
3787.79169	0.04976
3786.82738	0.05016
3785.86308	0.05054
3784.89877	0.05093
3783.93447	0.05134
3782.97016	0.05177
3782.00586	0.05222
3781.04155	0.05263
3780.07725	0.05298
3779.11294	0.05338
3778.14864	0.05381
3777.18433	0.05422
3776.22002	0.05469
3775.25572	0.05517
3774.29141	0.05561
3773.32711	0.05601
3772.3628	0.05643
3771.3985	0.05685
3770.43419	0.05728
3769.46989	0.05776
3768.50558	0.05828
3767.54128	0.05872
3766.57697	0.05911
3765.61266	0.05954
3764.64836	0.06002
3763.68405	0.06053
3762.71975	0.06102
3761.75544	0.06147
3760.79114	0.06191
3759.82683	0.06234
3758.86253	0.06284
3757.89822	0.06337
3756.93392	0.06385
3755.96961	0.06437
3755.00531	0.06485
3754.041	0.06527
3753.07669	0.0657
3752.11239	0.06621
3751.14808	0.06683
3750.18378	0.06731
3749.21947	0.06776
3748.25517	0.06837
3747.29086	0.06892
3746.32656	0.06942
3745.36225	0.06985
3744.39795	0.07037
3743.43364	0.07108
3742.46933	0.07166
3741.50503	0.07212
3740.54072	0.07268
3739.57642	0.07329
3738.61211	0.07388
3737.64781	0.07443
3736.6835	0.07495
3735.7192	0.07552
3734.75489	0.07612
3733.79059	0.07674
3732.82628	0.07733
3731.86198	0.07795
3730.89767	0.0786
3729.93336	0.07923
3728.96906	0.07985
3728.00475	0.0805
3727.04045	0.08114
3726.07614	0.0818
3725.11184	0.08244
3724.14753	0.08305
3723.18323	0.08368
3722.21892	0.08437
3721.25462	0.08511
3720.29031	0.08582
3719.326	0.08649
3718.3617	0.08717
3717.39739	0.08787
3716.43309	0.0886
3715.46878	0.08935
3714.50448	0.09012
3713.54017	0.09084
3712.57587	0.09153
3711.61156	0.0923
3710.64726	0.09311
3709.68295	0.09386
3708.71865	0.0947
3707.75434	0.09554
3706.79003	0.09635
3705.82573	0.09719
3704.86142	0.09803
3703.89712	0.0989
3702.93281	0.0998
3701.96851	0.10067
3701.0042	0.10154
3700.0399	0.10246
3699.07559	0.10337
3698.11129	0.10435
3697.14698	0.10535
3696.18267	0.10635
3695.21837	0.10731
3694.25406	0.10828
3693.28976	0.10929
3692.32545	0.11032
3691.36115	0.11136
3690.39684	0.1125
3689.43254	0.1136
3688.46823	0.11467
3687.50393	0.11589
3686.53962	0.11712
3685.57531	0.11835
3684.61101	0.11967
3683.6467	0.12101
3682.6824	0.12233
3681.71809	0.12371
3680.75379	0.12509
3679.78948	0.12651
3678.82518	0.128
3677.86087	0.12955
3676.89657	0.13104
3675.93226	0.13256
3674.96796	0.13417
3674.00365	0.13581
3673.03934	0.13748
3672.07504	0.13911
3671.11073	0.14074
3670.14643	0.1424
3669.18212	0.14414
3668.21782	0.14589
3667.25351	0.14769
3666.28921	0.1495
3665.3249	0.15135
3664.3606	0.15317
3663.39629	0.15499
3662.43198	0.15685
3661.46768	0.15874
3660.50337	0.16065
3659.53907	0.16259
3658.57476	0.16453
3657.61046	0.16645
3656.64615	0.16836
3655.68185	0.17038
3654.71754	0.17247
3653.75324	0.17448
3652.78893	0.17644
3651.82463	0.17839
3650.86032	0.18033
3649.89601	0.18227
3648.93171	0.18428
3647.9674	0.18629
3647.0031	0.18825
3646.03879	0.19023
3645.07449	0.1922
3644.11018	0.19414
3643.14588	0.19612
3642.18157	0.19807
3641.21727	0.20001
3640.25296	0.20194
3639.28865	0.20387
3638.32435	0.20579
3637.36004	0.20773
3636.39574	0.20968
3635.43143	0.21166
3634.46713	0.21368
3633.50282	0.21567
3632.53852	0.21764
3631.57421	0.21958
3630.60991	0.22151
3629.6456	0.22347
3628.6813	0.22553
3627.71699	0.22766
3626.75268	0.22969
3625.78838	0.23163
3624.82407	0.23362
3623.85977	0.23569
3622.89546	0.23776
3621.93116	0.23982
3620.96685	0.24189
3620.00255	0.24393
3619.03824	0.24601
3618.07394	0.24813
3617.10963	0.25031
3616.14532	0.25247
3615.18102	0.25459
3614.21671	0.25668
3613.25241	0.25876
3612.2881	0.26095
3611.3238	0.2632
3610.35949	0.26536
3609.39519	0.26749
3608.43088	0.26967
3607.46658	0.27189
3606.50227	0.27413
3605.53797	0.27638
3604.57366	0.27865
3603.60935	0.28087
3602.64505	0.28306
3601.68074	0.28522
3600.71644	0.2874
3599.75213	0.28959
3598.78783	0.29181
3597.82352	0.29405
3596.85922	0.29622
3595.89491	0.2983
3594.93061	0.30048
3593.9663	0.30273
3593.00199	0.30497
3592.03769	0.30716
3591.07338	0.30931
3590.10908	0.31142
3589.14477	0.31351
3588.18047	0.31564
3587.21616	0.31779
3586.25186	0.31994
3585.28755	0.32208
3584.32325	0.32418
3583.35894	0.32627
3582.39464	0.32844
3581.43033	0.33068
3580.46602	0.33296
3579.50172	0.33522
3578.53741	0.33748
3577.57311	0.3397
3576.6088	0.34193
3575.6445	0.34423
3574.68019	0.34652
3573.71589	0.34875
3572.75158	0.35098
3571.78728	0.35319
3570.82297	0.35536
3569.85866	0.35753
3568.89436	0.35973
3567.93005	0.36196
3566.96575	0.36419
3566.00144	0.36636
3565.03714	0.36851
3564.07283	0.37066
3563.10853	0.37287
3562.14422	0.3751
3561.17992	0.3773
3560.21561	0.37954
3559.2513	0.38174
3558.287	0.38389
3557.32269	0.38611
3556.35839	0.38839
3555.39408	0.39067
3554.42978	0.39287
3553.46547	0.39506
3552.50117	0.39718
3551.53686	0.39932
3550.57256	0.40154
3549.60825	0.40376
3548.64395	0.40597
3547.67964	0.40813
3546.71533	0.41031
3545.75103	0.41248
3544.78672	0.4146
3543.82242	0.41677
3542.85811	0.41892
3541.89381	0.42099
3540.9295	0.42305
3539.9652	0.42516
3539.00089	0.42727
3538.03659	0.42933
3537.07228	0.43141
3536.10797	0.43348
3535.14367	0.4355
3534.17936	0.43756
3533.21506	0.43967
3532.25075	0.44172
3531.28645	0.44375
3530.32214	0.44576
3529.35784	0.44772
3528.39353	0.44969
3527.42923	0.45165
3526.46492	0.45356
3525.50062	0.4555
3524.53631	0.45746
3523.572	0.4594
3522.6077	0.4613
3521.64339	0.46319
3520.67909	0.4651
3519.71478	0.467
3518.75048	0.4689
3517.78617	0.47078
3516.82187	0.47258
3515.85756	0.47434
3514.89326	0.47619
3513.92895	0.47805
3512.96464	0.47981
3512.00034	0.48152
3511.03603	0.48323
3510.07173	0.48499
3509.10742	0.48679
3508.14312	0.48855
3507.17881	0.49026
3506.21451	0.49202
3505.2502	0.49378
3504.2859	0.49545
3503.32159	0.49708
3502.35729	0.49879
3501.39298	0.50054
3500.42867	0.50225
3499.46437	0.50395
3498.50006	0.50564
3497.53576	0.50732
3496.57145	0.50896
3495.60715	0.5106
3494.64284	0.51227
3493.67854	0.51388
3492.71423	0.51549
3491.74993	0.51713
3490.78562	0.51872
3489.82131	0.52033
3488.85701	0.52197
3487.8927	0.52365
3486.9284	0.52534
3485.96409	0.52692
3484.99979	0.52843
3484.03548	0.53003
3483.07118	0.53165
3482.10687	0.53318
3481.14257	0.53471
3480.17826	0.53625
3479.21396	0.5377
3478.24965	0.53917
3477.28534	0.5407
3476.32104	0.54221
3475.35673	0.54368
3474.39243	0.54509
3473.42812	0.54643
3472.46382	0.54783
3471.49951	0.54926
3470.53521	0.55065
3469.5709	0.55202
3468.6066	0.55334
3467.64229	0.55462
3466.67798	0.55586
3465.71368	0.55712
3464.74937	0.55846
3463.78507	0.55982
3462.82076	0.56109
3461.85646	0.56225
3460.89215	0.5634
3459.92785	0.56463
3458.96354	0.56594
3457.99924	0.56726
3457.03493	0.56849
3456.07063	0.56962
3455.10632	0.57071
3454.14201	0.57185
3453.17771	0.57301
3452.2134	0.57419
3451.2491	0.57534
3450.28479	0.57645
3449.32049	0.57755
3448.35618	0.57863
3447.39188	0.57972
3446.42757	0.58079
3445.46327	0.58183
3444.49896	0.58294
3443.53465	0.58402
3442.57035	0.58498
3441.60604	0.58598
3440.64174	0.5871
3439.67743	0.58817
3438.71313	0.5891
3437.74882	0.58999
3436.78452	0.59088
3435.82021	0.59181
3434.85591	0.5928
3433.8916	0.59377
3432.92729	0.59469
3431.96299	0.59557
3430.99868	0.59644
3430.03438	0.59731
3429.07007	0.59822
3428.10577	0.5991
3427.14146	0.59996
3426.17716	0.6008
3425.21285	0.60154
3424.24855	0.60233
3423.28424	0.60321
3422.31994	0.604
3421.35563	0.60469
3420.39132	0.60538
3419.42702	0.60612
3418.46271	0.60683
3417.49841	0.60753
3416.5341	0.60818
3415.5698	0.60879
3414.60549	0.60946
3413.64119	0.61004
3412.67688	0.61052
3411.71258	0.61107
3410.74827	0.6117
3409.78396	0.61238
3408.81966	0.61301
3407.85535	0.61349
3406.89105	0.61394
3405.92674	0.61443
3404.96244	0.61492
3403.99813	0.6154
3403.03383	0.61587
3402.06952	0.6163
3401.10522	0.61675
3400.14091	0.6172
3399.17661	0.6176
3398.2123	0.61797
3397.24799	0.61834
3396.28369	0.61874
3395.31938	0.61912
3394.35508	0.61941
3393.39077	0.6197
3392.42647	0.62
3391.46216	0.62029
3390.49786	0.62061
3389.53355	0.62096
3388.56925	0.62127
3387.60494	0.62148
3386.64063	0.62163
3385.67633	0.62182
3384.71202	0.62206
3383.74772	0.62232
3382.78341	0.62252
3381.81911	0.62258
3380.8548	0.62264
3379.8905	0.62274
3378.92619	0.62285
3377.96189	0.62301
3376.99758	0.62316
3376.03328	0.62323
3375.06897	0.62327
3374.10466	0.62327
3373.14036	0.62328
3372.17605	0.62332
3371.21175	0.62332
3370.24744	0.62326
3369.28314	0.6232
3368.31883	0.62306
3367.35453	0.62292
3366.39022	0.62292
3365.42592	0.62291
3364.46161	0.62274
3363.4973	0.6225
3362.533	0.62229
3361.56869	0.62212
3360.60439	0.62192
3359.64008	0.62168
3358.67578	0.62142
3357.71147	0.62111
3356.74717	0.62077
3355.78286	0.62046
3354.81856	0.62016
3353.85425	0.61988
3352.88995	0.61955
3351.92564	0.61917
3350.96133	0.61883
3349.99703	0.61844
3349.03272	0.61798
3348.06842	0.6175
3347.10411	0.61711
3346.13981	0.6167
3345.1755	0.61614
3344.2112	0.61554
3343.24689	0.61502
3342.28259	0.61452
3341.31828	0.61402
3340.35397	0.61346
3339.38967	0.6128
3338.42536	0.61218
3337.46106	0.61159
3336.49675	0.611
3335.53245	0.6104
3334.56814	0.60977
3333.60384	0.60905
3332.63953	0.60834
3331.67523	0.60765
3330.71092	0.60696
3329.74661	0.60631
3328.78231	0.60561
3327.818	0.60483
3326.8537	0.60406
3325.88939	0.60326
3324.92509	0.60243
3323.96078	0.60165
3322.99648	0.60093
3322.03217	0.60013
3321.06787	0.59926
3320.10356	0.59838
3319.13926	0.5975
3318.17495	0.59666
3317.21064	0.59582
3316.24634	0.59499
3315.28203	0.59411
3314.31773	0.59316
3313.35342	0.59225
3312.38912	0.59132
3311.42481	0.59036
3310.46051	0.58945
3309.4962	0.58857
3308.5319	0.58756
3307.56759	0.58655
3306.60328	0.58563
3305.63898	0.5847
3304.67467	0.5837
3303.71037	0.58268
3302.74606	0.58162
3301.78176	0.58056
3300.81745	0.57954
3299.85315	0.57857
3298.88884	0.57758
3297.92454	0.57649
3296.96023	0.57539
3295.99593	0.57432
3295.03162	0.57327
3294.06731	0.57218
3293.10301	0.57105
3292.1387	0.56999
3291.1744	0.56892
3290.21009	0.56773
3289.24579	0.56651
3288.28148	0.56536
3287.31718	0.56428
3286.35287	0.56317
3285.38857	0.56202
3284.42426	0.56081
3283.45995	0.55958
3282.49565	0.55839
3281.53134	0.55725
3280.56704	0.55611
3279.60273	0.55491
3278.63843	0.55366
3277.67412	0.55241
3276.70982	0.55117
3275.74551	0.54995
3274.78121	0.54874
3273.8169	0.54747
3272.8526	0.54618
3271.88829	0.54492
3270.92398	0.54361
3269.95968	0.54229
3268.99537	0.54102
3268.03107	0.53977
3267.06676	0.53849
3266.10246	0.53713
3265.13815	0.53572
3264.17385	0.53437
3263.20954	0.53308
3262.24524	0.53181
3261.28093	0.53045
3260.31662	0.52905
3259.35232	0.52763
3258.38801	0.5262
3257.42371	0.52479
3256.4594	0.52345
3255.4951	0.52207
3254.53079	0.52057
3253.56649	0.51913
3252.60218	0.51772
3251.63788	0.51628
3250.67357	0.5148
3249.70927	0.51336
3248.74496	0.51198
3247.78065	0.51055
3246.81635	0.50902
3245.85204	0.50747
3244.88774	0.50599
3243.92343	0.50453
3242.95913	0.50296
3241.99482	0.50136
3241.03052	0.49979
3240.06621	0.49828
3239.10191	0.49676
3238.1376	0.49524
3237.17329	0.49371
3236.20899	0.49213
3235.24468	0.49054
3234.28038	0.48891
3233.31607	0.48722
3232.35177	0.48557
3231.38746	0.48396
3230.42316	0.48232
3229.45885	0.48065
3228.49455	0.47899
3227.53024	0.4773
3226.56594	0.47562
3225.60163	0.47396
3224.63732	0.47222
3223.67302	0.47045
3222.70871	0.46873
3221.74441	0.46702
3220.7801	0.46531
3219.8158	0.46356
3218.85149	0.46181
3217.88719	0.46004
3216.92288	0.45824
3215.95858	0.45642
3214.99427	0.45463
3214.02996	0.45285
3213.06566	0.45106
3212.10135	0.44922
3211.13705	0.44736
3210.17274	0.44551
3209.20844	0.44366
3208.24413	0.44181
3207.27983	0.43996
3206.31552	0.43808
3205.35122	0.43624
3204.38691	0.43437
3203.4226	0.43243
3202.4583	0.43048
3201.49399	0.4286
3200.52969	0.42676
3199.56538	0.42485
3198.60108	0.42288
3197.63677	0.42095
3196.67247	0.41905
3195.70816	0.41716
3194.74386	0.41526
3193.77955	0.41334
3192.81525	0.41139
3191.85094	0.4094
3190.88663	0.40741
3189.92233	0.40548
3188.95802	0.40353
3187.99372	0.40156
3187.02941	0.39962
3186.06511	0.39765
3185.1008	0.39567
3184.1365	0.39366
3183.17219	0.39171
3182.20789	0.38978
3181.24358	0.3878
3180.27927	0.38577
3179.31497	0.38374
3178.35066	0.38169
3177.38636	0.37969
3176.42205	0.37774
3175.45775	0.37576
3174.49344	0.37372
3173.52914	0.37169
3172.56483	0.36964
3171.60053	0.36766
3170.63622	0.36568
3169.67192	0.36364
3168.70761	0.36157
3167.7433	0.35951
3166.779	0.35745
3165.81469	0.35538
3164.85039	0.35339
3163.88608	0.35143
3162.92178	0.3494
3161.95747	0.34733
3160.99317	0.34525
3160.02886	0.34316
3159.06456	0.34109
3158.10025	0.33904
3157.13594	0.33699
3156.17164	0.33494
3155.20733	0.33286
3154.24303	0.33078
3153.27872	0.32871
3152.31442	0.32666
3151.35011	0.3246
3150.38581	0.32253
3149.4215	0.32044
3148.4572	0.31831
3147.49289	0.3162
3146.52859	0.31414
3145.56428	0.31209
3144.59997	0.31002
3143.63567	0.30794
3142.67136	0.30584
3141.70706	0.30376
3140.74275	0.3017
3139.77845	0.29965
3138.81414	0.29758
3137.84984	0.29548
3136.88553	0.29333
3135.92123	0.2912
3134.95692	0.28915
3133.99261	0.28716
3133.02831	0.28513
3132.064	0.28304
3131.0997	0.28096
3130.13539	0.27888
3129.17109	0.27682
3128.20678	0.27478
3127.24248	0.27277
3126.27817	0.27073
3125.31387	0.26865
3124.34956	0.26656
3123.38526	0.26451
3122.42095	0.26252
3121.45664	0.26051
3120.49234	0.25849
3119.52803	0.25645
3118.56373	0.2544
3117.59942	0.25237
3116.63512	0.25039
3115.67081	0.24843
3114.70651	0.24647
3113.7422	0.24447
3112.7779	0.24244
3111.81359	0.24045
3110.84928	0.23849
3109.88498	0.23655
3108.92067	0.23462
3107.95637	0.23266
3106.99206	0.23069
3106.02776	0.22873
3105.06345	0.22679
3104.09915	0.22487
3103.13484	0.22299
3102.17054	0.2211
3101.20623	0.21918
3100.24193	0.21723
3099.27762	0.21534
3098.31331	0.21349
3097.34901	0.21165
3096.3847	0.20981
3095.4204	0.20794
3094.45609	0.20606
3093.49179	0.20418
3092.52748	0.20234
3091.56318	0.20054
3090.59887	0.19871
3089.63457	0.19689
3088.67026	0.19509
3087.70595	0.1933
3086.74165	0.19151
3085.77734	0.18975
3084.81304	0.18803
3083.84873	0.18632
3082.88443	0.18458
3081.92012	0.18278
3080.95582	0.18102
3079.99151	0.17932
3079.02721	0.17765
3078.0629	0.17602
3077.09859	0.17433
3076.13429	0.17262
3075.16998	0.1709
3074.20568	0.16923
3073.24137	0.16762
3072.27707	0.16602
3071.31276	0.16441
3070.34846	0.16277
3069.38415	0.16114
3068.41985	0.15954
3067.45554	0.15797
3066.49124	0.15642
3065.52693	0.15489
3064.56262	0.15335
3063.59832	0.15178
3062.63401	0.15026
3061.66971	0.14874
3060.7054	0.14724
3059.7411	0.14579
3058.77679	0.14432
3057.81249	0.14282
3056.84818	0.14134
3055.88388	0.1399
3054.91957	0.1385
3053.95526	0.13713
3052.99096	0.13575
3052.02665	0.13435
3051.06235	0.13293
3050.09804	0.13152
3049.13374	0.13017
3048.16943	0.12884
3047.20513	0.12754
3046.24082	0.12626
3045.27652	0.12494
3044.31221	0.12361
3043.34791	0.12235
3042.3836	0.12115
3041.41929	0.11997
3040.45499	0.11874
3039.49068	0.1175
3038.52638	0.11628
3037.56207	0.1151
3036.59777	0.11397
3035.63346	0.11286
3034.66916	0.11176
3033.70485	0.11065
3032.74055	0.10957
3031.77624	0.10851
3030.81193	0.10751
3029.84763	0.10654
3028.88332	0.10558
3027.91902	0.10462
3026.95471	0.10367
3025.99041	0.10272
3025.0261	0.10182
3024.0618	0.10097
3023.09749	0.10015
3022.13319	0.09935
3021.16888	0.09857
3020.20458	0.09779
3019.24027	0.09704
3018.27596	0.09636
3017.31166	0.09574
3016.34735	0.09512
3015.38305	0.09448
3014.41874	0.09388
3013.45444	0.09336
3012.49013	0.0929
3011.52583	0.09248
3010.56152	0.09214
3009.59722	0.09182
3008.63291	0.09152
3007.6686	0.09128
3006.7043	0.09112
3005.73999	0.09103
3004.77569	0.09098
3003.81138	0.09099
3002.84708	0.09103
3001.88277	0.0911
3000.91847	0.09121
2999.95416	0.09142
2998.98986	0.09172
2998.02555	0.09205
2997.06125	0.09241
2996.09694	0.09284
2995.13263	0.09334
2994.16833	0.09397
2993.20402	0.09471
2992.23972	0.09552
2991.27541	0.09641
2990.31111	0.09742
2989.3468	0.09852
2988.3825	0.09971
2987.41819	0.10102
2986.45389	0.10244
2985.48958	0.1039
2984.52527	0.10536
2983.56097	0.10685
2982.59666	0.10835
2981.63236	0.10987
2980.66805	0.11141
2979.70375	0.11295
2978.73944	0.11445
2977.77514	0.11597
2976.81083	0.11758
2975.84653	0.11926
2974.88222	0.12105
2973.91792	0.12295
2972.95361	0.12491
2971.9893	0.12692
2971.025	0.12901
2970.06069	0.13117
2969.09639	0.13345
2968.13208	0.13587
2967.16778	0.13843
2966.20347	0.14109
2965.23917	0.1439
2964.27486	0.14694
2963.31056	0.15021
2962.34625	0.15371
2961.38194	0.15743
2960.41764	0.16129
2959.45333	0.16526
2958.48903	0.16942
2957.52472	0.17372
2956.56042	0.17812
2955.59611	0.18257
2954.63181	0.18707
2953.6675	0.19158
2952.7032	0.19608
2951.73889	0.20064
2950.77458	0.20524
2949.81028	0.20983
2948.84597	0.21436
2947.88167	0.2188
2946.91736	0.22313
2945.95306	0.2273
2944.98875	0.23139
2944.02445	0.23537
2943.06014	0.23921
2942.09584	0.24288
2941.13153	0.24631
2940.16723	0.24957
2939.20292	0.25273
2938.23861	0.25577
2937.27431	0.25864
2936.31	0.26134
2935.3457	0.26376
2934.38139	0.26586
2933.41709	0.26764
2932.45278	0.26907
2931.48848	0.27007
2930.52417	0.27056
2929.55987	0.27051
2928.59556	0.26999
2927.63125	0.26902
2926.66695	0.26766
2925.70264	0.26602
2924.73834	0.26417
2923.77403	0.26211
2922.80973	0.2599
2921.84542	0.25758
2920.88112	0.25518
2919.91681	0.2527
2918.95251	0.25
2917.9882	0.24704
2917.0239	0.24385
2916.05959	0.24049
2915.09528	0.23709
2914.13098	0.23373
2913.16667	0.23048
2912.20237	0.22739
2911.23806	0.2245
2910.27376	0.22184
2909.30945	0.21949
2908.34515	0.21739
2907.38084	0.21551
2906.41654	0.2138
2905.45223	0.21216
2904.48792	0.21058
2903.52362	0.20901
2902.55931	0.2075
2901.59501	0.20603
2900.6307	0.20461
2899.6664	0.20324
2898.70209	0.20189
2897.73779	0.2006
2896.77348	0.19938
2895.80918	0.19825
2894.84487	0.1972
2893.88057	0.19612
2892.91626	0.19497
2891.95195	0.1938
2890.98765	0.19261
2890.02334	0.1914
2889.05904	0.19008
2888.09473	0.18859
2887.13043	0.18692
2886.16612	0.18512
2885.20182	0.18318
2884.23751	0.18109
2883.27321	0.17888
2882.3089	0.17656
2881.34459	0.17414
2880.38029	0.17162
2879.41598	0.16907
2878.45168	0.16656
2877.48737	0.16414
2876.52307	0.16173
2875.55876	0.15934
2874.59446	0.15693
2873.63015	0.15452
2872.66585	0.15215
2871.70154	0.14984
2870.73724	0.1476
2869.77293	0.14542
2868.80862	0.14326
2867.84432	0.14116
2866.88001	0.13918
2865.91571	0.13726
2864.9514	0.13541
2863.9871	0.13364
2863.02279	0.13194
2862.05849	0.13027
2861.09418	0.12862
2860.12988	0.12703
2859.16557	0.12553
2858.20126	0.12408
2857.23696	0.12268
2856.27265	0.12128
2855.30835	0.11993
2854.34404	0.11866
2853.37974	0.1175
2852.41543	0.11639
2851.45113	0.1153
2850.48682	0.11417
2849.52252	0.11296
2848.55821	0.11174
2847.59391	0.11052
2846.6296	0.10935
2845.66529	0.10823
2844.70099	0.10712
2843.73668	0.10604
2842.77238	0.105
2841.80807	0.10402
2840.84377	0.10312
2839.87946	0.10225
2838.91516	0.10137
2837.95085	0.10044
2836.98655	0.09954
2836.02224	0.09868
2835.05793	0.09787
2834.09363	0.09708
2833.12932	0.09628
2832.16502	0.09542
2831.20071	0.09456
2830.23641	0.09375
2829.2721	0.09297
2828.3078	0.0922
2827.34349	0.09146
2826.37919	0.09072
2825.41488	0.08994
2824.45057	0.08918
2823.48627	0.08846
2822.52196	0.08777
2821.55766	0.08709
2820.59335	0.0864
2819.62905	0.08571
2818.66474	0.08503
2817.70044	0.08438
2816.73613	0.08373
2815.77183	0.08312
2814.80752	0.08253
2813.84322	0.08192
2812.87891	0.08127
2811.9146	0.08064
2810.9503	0.08007
2809.98599	0.07954
2809.02169	0.07899
2808.05738	0.07842
2807.09308	0.07788
2806.12877	0.07731
2805.16447	0.07677
2804.20016	0.07627
2803.23586	0.07579
2802.27155	0.0753
2801.30724	0.07481
2800.34294	0.07432
2799.37863	0.07385
2798.41433	0.07342
2797.45002	0.07302
2796.48572	0.07264
2795.52141	0.0722
2794.55711	0.07178
2793.5928	0.07139
2792.6285	0.07102
2791.66419	0.0707
2790.69989	0.07039
2789.73558	0.07006
2788.77127	0.0697
2787.80697	0.06937
2786.84266	0.06906
2785.87836	0.06875
2784.91405	0.0685
2783.94975	0.06825
2782.98544	0.06794
2782.02114	0.06764
2781.05683	0.06738
2780.09253	0.06713
2779.12822	0.0669
2778.16391	0.06672
2777.19961	0.06652
2776.2353	0.06629
2775.271	0.06605
2774.30669	0.06587
2773.34239	0.0657
2772.37808	0.06556
2771.41378	0.06542
2770.44947	0.06525
2769.48517	0.06505
2768.52086	0.06488
2767.55656	0.06474
2766.59225	0.06464
2765.62794	0.06451
2764.66364	0.06435
2763.69933	0.06414
2762.73503	0.06393
2761.77072	0.06376
2760.80642	0.06361
2759.84211	0.06344
2758.87781	0.06324
2757.9135	0.06303
2756.9492	0.0628
2755.98489	0.06258
2755.02058	0.06242
2754.05628	0.06228
2753.09197	0.0621
2752.12767	0.06188
2751.16336	0.06165
2750.19906	0.06141
2749.23475	0.0612
2748.27045	0.06103
2747.30614	0.06083
2746.34184	0.06059
2745.37753	0.06031
2744.41323	0.06004
2743.44892	0.0598
2742.48461	0.05959
2741.52031	0.0594
2740.556	0.05914
2739.5917	0.05881
2738.62739	0.05849
2737.66309	0.0582
2736.69878	0.05796
2735.73448	0.05774
2734.77017	0.05748
2733.80587	0.05714
2732.84156	0.05682
2731.87725	0.05653
2730.91295	0.05627
2729.94864	0.05602
2728.98434	0.05575
2728.02003	0.05543
2727.05573	0.05506
2726.09142	0.05474
2725.12712	0.05448
2724.16281	0.05425
2723.19851	0.05397
2722.2342	0.05365
2721.2699	0.05331
2720.30559	0.05297
2719.34128	0.05267
2718.37698	0.05243
2717.41267	0.05219
2716.44837	0.05191
2715.48406	0.05159
2714.51976	0.05129
2713.55545	0.05102
2712.59115	0.05076
2711.62684	0.05052
2710.66254	0.05026
2709.69823	0.04996
2708.73392	0.04965
2707.76962	0.04938
2706.80531	0.04915
2705.84101	0.04892
2704.8767	0.04868
2703.9124	0.04842
2702.94809	0.04813
2701.98379	0.04786
2701.01948	0.04762
2700.05518	0.04741
2699.09087	0.04721
2698.12656	0.04698
2697.16226	0.04671
2696.19795	0.04647
2695.23365	0.04626
2694.26934	0.0461
2693.30504	0.04595
2692.34073	0.04576
2691.37643	0.04555
2690.41212	0.04534
2689.44782	0.04517
2688.48351	0.04503
2687.51921	0.0449
2686.5549	0.04475
2685.59059	0.04455
2684.62629	0.04434
2683.66198	0.04416
2682.69768	0.04402
2681.73337	0.04387
2680.76907	0.04371
2679.80476	0.04353
2678.84046	0.04333
2677.87615	0.04311
2676.91185	0.04291
2675.94754	0.04273
2674.98323	0.04254
2674.01893	0.04236
2673.05462	0.04214
2672.09032	0.04191
2671.12601	0.04168
2670.16171	0.04147
2669.1974	0.04129
2668.2331	0.04109
2667.26879	0.04088
2666.30449	0.04065
2665.34018	0.04038
2664.37588	0.04013
2663.41157	0.03994
2662.44726	0.03973
2661.48296	0.03951
2660.51865	0.03927
2659.55435	0.03903
2658.59004	0.03879
2657.62574	0.03858
2656.66143	0.03841
2655.69713	0.03821
2654.73282	0.03799
2653.76852	0.03775
2652.80421	0.0375
2651.8399	0.03728
2650.8756	0.03709
2649.91129	0.03687
2648.94699	0.03663
2647.98268	0.03638
2647.01838	0.03615
2646.05407	0.03589
2645.08977	0.03567
2644.12546	0.03544
2643.16116	0.0352
2642.19685	0.03491
2641.23255	0.03459
2640.26824	0.03429
2639.30393	0.03402
2638.33963	0.03373
2637.37532	0.03341
2636.41102	0.03308
2635.44671	0.03274
2634.48241	0.0324
2633.5181	0.03208
2632.5538	0.03177
2631.58949	0.03148
2630.62519	0.03113
2629.66088	0.03076
2628.69657	0.03039
2627.73227	0.03009
2626.76796	0.02982
2625.80366	0.02956
2624.83935	0.02929
2623.87505	0.029
2622.91074	0.02869
2621.94644	0.02841
2620.98213	0.02819
2620.01783	0.028
2619.05352	0.02779
2618.08922	0.02757
2617.12491	0.0273
2616.1606	0.02706
2615.1963	0.02686
2614.23199	0.02669
2613.26769	0.02652
2612.30338	0.02634
2611.33908	0.02613
2610.37477	0.02593
2609.41047	0.02576
2608.44616	0.02561
2607.48186	0.02548
2606.51755	0.02533
2605.55324	0.02517
2604.58894	0.02501
2603.62463	0.02483
2602.66033	0.0247
2601.69602	0.02464
2600.73172	0.02459
2599.76741	0.0245
2598.80311	0.02438
2597.8388	0.02427
2596.8745	0.0242
2595.91019	0.02416
2594.94589	0.02416
2593.98158	0.02411
2593.01727	0.02401
2592.05297	0.02393
2591.08866	0.02389
2590.12436	0.02388
2589.16005	0.02387
2588.19575	0.02383
2587.23144	0.02375
2586.26714	0.02364
2585.30283	0.02359
2584.33853	0.02359
2583.37422	0.02358
2582.40991	0.02356
2581.44561	0.02351
2580.4813	0.02341
2579.517	0.02332
2578.55269	0.02323
2577.58839	0.02319
2576.62408	0.02316
2575.65978	0.02309
2574.69547	0.02299
2573.73117	0.02285
2572.76686	0.02275
2571.80255	0.02269
2570.83825	0.02263
2569.87394	0.02256
2568.90964	0.02245
2567.94533	0.02234
2566.98103	0.02219
2566.01672	0.0221
2565.05242	0.02205
2564.08811	0.022
2563.12381	0.02192
2562.1595	0.02182
2561.1952	0.02172
2560.23089	0.02162
2559.26658	0.02157
2558.30228	0.02156
2557.33797	0.02152
2556.37367	0.02144
2555.40936	0.02132
2554.44506	0.02123
2553.48075	0.0212
2552.51645	0.0212
2551.55214	0.02117
2550.58784	0.02109
2549.62353	0.02099
2548.65922	0.0209
2547.69492	0.02086
2546.73061	0.02085
2545.76631	0.02083
2544.802	0.02075
2543.8377	0.02062
2542.87339	0.02053
2541.90909	0.0205
2540.94478	0.02046
2539.98048	0.02043
2539.01617	0.02038
2538.05187	0.02029
2537.08756	0.02018
2536.12325	0.02013
2535.15895	0.02012
2534.19464	0.0201
2533.23034	0.02003
2532.26603	0.01995
2531.30173	0.01989
2530.33742	0.01986
2529.37312	0.01987
2528.40881	0.01987
2527.44451	0.01985
2526.4802	0.01982
2525.51589	0.01977
2524.55159	0.01973
2523.58728	0.01974
2522.62298	0.01979
2521.65867	0.01983
2520.69437	0.01981
2519.73006	0.01979
2518.76576	0.01977
2517.80145	0.01978
2516.83715	0.01983
2515.87284	0.01987
2514.90854	0.01984
2513.94423	0.01981
2512.97992	0.01982
2512.01562	0.01983
2511.05131	0.01984
2510.08701	0.01987
2509.1227	0.01989
2508.1584	0.01989
2507.19409	0.01989
2506.22979	0.0199
2505.26548	0.01992
2504.30118	0.01994
2503.33687	0.02
2502.37256	0.02001
2501.40826	0.01997
2500.44395	0.01996
2499.47965	0.01996
2498.51534	0.01998
2497.55104	0.02001
2496.58673	0.02001
2495.62243	0.01997
2494.65812	0.01993
2493.69382	0.01992
2492.72951	0.01994
2491.76521	0.01992
2490.8009	0.01989
2489.83659	0.01982
2488.87229	0.01977
2487.90798	0.01974
2486.94368	0.01972
2485.97937	0.01968
2485.01507	0.01963
2484.05076	0.01958
2483.08646	0.01951
2482.12215	0.01943
2481.15785	0.01935
2480.19354	0.01931
2479.22923	0.01927
2478.26493	0.0192
2477.30062	0.01912
2476.33632	0.01904
2475.37201	0.01895
2474.40771	0.01888
2473.4434	0.01882
2472.4791	0.01875
2471.51479	0.01866
2470.55049	0.01858
2469.58618	0.0185
2468.62188	0.01842
2467.65757	0.01835
2466.69326	0.01829
2465.72896	0.01821
2464.76465	0.01812
2463.80035	0.01805
2462.83604	0.01796
2461.87174	0.01788
2460.90743	0.01785
2459.94313	0.0178
2458.97882	0.0177
2458.01452	0.0176
2457.05021	0.01751
2456.0859	0.01744
2455.1216	0.01738
2454.15729	0.01733
2453.19299	0.01725
2452.22868	0.01712
2451.26438	0.01701
2450.30007	0.01695
2449.33577	0.01689
2448.37146	0.01682
2447.40716	0.01672
2446.44285	0.0166
2445.47854	0.01646
2444.51424	0.01638
2443.54993	0.01631
2442.58563	0.01625
2441.62132	0.01618
2440.65702	0.01606
2439.69271	0.01591
2438.72841	0.0158
2437.7641	0.01573
2436.7998	0.01563
2435.83549	0.01553
2434.87119	0.01542
2433.90688	0.01528
2432.94257	0.01514
2431.97827	0.01504
2431.01396	0.01496
2430.04966	0.01486
2429.08535	0.01473
2428.12105	0.0146
2427.15674	0.01448
2426.19244	0.01439
2425.22813	0.01435
2424.26383	0.0143
2423.29952	0.0142
2422.33521	0.01408
2421.37091	0.01399
2420.4066	0.01391
2419.4423	0.01385
2418.47799	0.01381
2417.51369	0.01375
2416.54938	0.01366
2415.58508	0.01359
2414.62077	0.01354
2413.65647	0.01349
2412.69216	0.01346
2411.72786	0.01342
2410.76355	0.01335
2409.79924	0.01325
2408.83494	0.01322
2407.87063	0.01321
2406.90633	0.01318
2405.94202	0.01313
2404.97772	0.01308
2404.01341	0.01304
2403.04911	0.01302
2402.0848	0.01304
2401.1205	0.01304
2400.15619	0.01301
2399.19188	0.01301
2398.22758	0.013
2397.26327	0.01301
2396.29897	0.01301
2395.33466	0.01304
2394.37036	0.01306
2393.40605	0.01305
2392.44175	0.01307
2391.47744	0.01309
2390.51314	0.01311
2389.54883	0.01315
2388.58453	0.01318
2387.62022	0.01319
2386.65591	0.01322
2385.69161	0.01325
2384.7273	0.01328
2383.763	0.01327
2382.79869	0.01329
2381.83439	0.01333
2380.87008	0.01336
2379.90578	0.01338
2378.94147	0.01339
2377.97717	0.01343
2377.01286	0.01346
2376.04855	0.0135
2375.08425	0.01352
2374.11994	0.01353
2373.15564	0.01356
2372.19133	0.0136
2371.22703	0.0136
2370.26272	0.01361
2369.29842	0.01365
2368.33411	0.01368
2367.36981	0.01368
2366.4055	0.01371
2365.4412	0.01375
2364.47689	0.01378
2363.51258	0.01381
2362.54828	0.01384
2361.58397	0.01384
2360.61967	0.01386
2359.65536	0.01391
2358.69106	0.01396
2357.72675	0.01398
2356.76245	0.014
2355.79814	0.01404
2354.83384	0.01408
2353.86953	0.01412
2352.90522	0.01417
2351.94092	0.01414
2350.97661	0.01404
2350.01231	0.01398
2349.048	0.01393
2348.0837	0.01382
2347.11939	0.01373
2346.15509	0.01365
2345.19078	0.01357
2344.22648	0.0135
2343.26217	0.01345
2342.29786	0.0134
2341.33356	0.01333
2340.36925	0.01331
2339.40495	0.01333
2338.44064	0.01334
2337.47634	0.01333
2336.51203	0.01329
2335.54773	0.01323
2334.58342	0.01314
2333.61912	0.01306
2332.65481	0.01299
2331.69051	0.01291
2330.7262	0.01283
2329.76189	0.01279
2328.79759	0.01278
2327.83328	0.01277
2326.86898	0.01279
2325.90467	0.01279
2324.94037	0.01272
2323.97606	0.0127
2323.01176	0.01271
2322.04745	0.01272
2321.08315	0.01273
2320.11884	0.01272
2319.15453	0.01268
2318.19023	0.01266
2317.22592	0.01268
2316.26162	0.01272
2315.29731	0.01272
2314.33301	0.01272
2313.3687	0.0127
2312.4044	0.01266
2311.44009	0.01266
2310.47579	0.01271
2309.51148	0.01274
2308.54718	0.01273
2307.58287	0.01273
2306.61856	0.0127
2305.65426	0.01266
2304.68995	0.01269
2303.72565	0.01277
2302.76134	0.0128
2301.79704	0.01277
2300.83273	0.01274
2299.86843	0.01271
2298.90412	0.01273
2297.93982	0.01277
2296.97551	0.01281
2296.0112	0.01279
2295.0469	0.01275
2294.08259	0.01276
2293.11829	0.0128
2292.15398	0.01285
2291.18968	0.0129
2290.22537	0.01291
2289.26107	0.01286
2288.29676	0.01284
2287.33246	0.01289
2286.36815	0.01293
2285.40385	0.01298
2284.43954	0.01303
2283.47523	0.01304
2282.51093	0.01301
2281.54662	0.01303
2280.58232	0.01313
2279.61801	0.01322
2278.65371	0.01327
2277.6894	0.01331
2276.7251	0.01334
2275.76079	0.01338
2274.79649	0.01349
2273.83218	0.01361
2272.86787	0.01368
2271.90357	0.01372
2270.93926	0.01377
2269.97496	0.01385
2269.01065	0.01395
2268.04635	0.01411
2267.08204	0.01421
2266.11774	0.01426
2265.15343	0.0143
2264.18913	0.01437
2263.22482	0.01446
2262.26052	0.0146
2261.29621	0.01476
2260.3319	0.01482
2259.3676	0.01481
2258.40329	0.01482
2257.43899	0.0149
2256.47468	0.01502
2255.51038	0.01514
2254.54607	0.01519
2253.58177	0.01519
2252.61746	0.01517
2251.65316	0.01522
2250.68885	0.01531
2249.72454	0.01539
2248.76024	0.01547
2247.79593	0.01547
2246.83163	0.01544
2245.86732	0.01548
2244.90302	0.01557
2243.93871	0.01565
2242.97441	0.01571
2242.0101	0.01571
2241.0458	0.01571
2240.08149	0.01571
2239.11719	0.01579
2238.15288	0.01589
2237.18857	0.01596
2236.22427	0.01595
2235.25996	0.01595
2234.29566	0.01597
2233.33135	0.01604
2232.36705	0.01612
2231.40274	0.01621
2230.43844	0.01626
2229.47413	0.0163
2228.50983	0.01636
2227.54552	0.01641
2226.58121	0.0165
2225.61691	0.01662
2224.6526	0.01673
2223.6883	0.0168
2222.72399	0.01686
2221.75969	0.01695
2220.79538	0.01711
2219.83108	0.01726
2218.86677	0.0174
2217.90247	0.01752
2216.93816	0.01759
2215.97385	0.01769
2215.00955	0.01784
2214.04524	0.01802
2213.08094	0.01819
2212.11663	0.01833
2211.15233	0.01845
2210.18802	0.01857
2209.22372	0.01874
2208.25941	0.01893
2207.29511	0.01909
2206.3308	0.01924
2205.3665	0.01938
2204.40219	0.01951
2203.43788	0.01966
2202.47358	0.01981
2201.50927	0.01997
2200.54497	0.0201
2199.58066	0.02024
2198.61636	0.02035
2197.65205	0.02045
2196.68775	0.02058
2195.72344	0.02074
2194.75914	0.02086
2193.79483	0.02099
2192.83052	0.02109
2191.86622	0.02116
2190.90191	0.02123
2189.93761	0.02135
2188.9733	0.02149
2188.009	0.0216
2187.04469	0.02168
2186.08039	0.02176
2185.11608	0.02182
2184.15178	0.0219
2183.18747	0.02204
2182.22317	0.02217
2181.25886	0.02224
2180.29455	0.02231
2179.33025	0.02238
2178.36594	0.02247
2177.40164	0.02256
2176.43733	0.02269
2175.47303	0.02282
2174.50872	0.0229
2173.54442	0.02298
2172.58011	0.02309
2171.61581	0.02322
2170.6515	0.02336
2169.68719	0.02352
2168.72289	0.02364
2167.75858	0.02373
2166.79428	0.0238
2165.82997	0.02391
2164.86567	0.02404
2163.90136	0.0242
2162.93706	0.02432
2161.97275	0.02436
2161.00845	0.02438
2160.04414	0.02444
2159.07984	0.02454
2158.11553	0.02462
2157.15122	0.02467
2156.18692	0.02467
2155.22261	0.02462
2154.25831	0.02459
2153.294	0.02462
2152.3297	0.02466
2151.36539	0.02465
2150.40109	0.02459
2149.43678	0.0245
2148.47248	0.02441
2147.50817	0.02438
2146.54386	0.02439
2145.57956	0.02438
2144.61525	0.0243
2143.65095	0.02421
2142.68664	0.02409
2141.72234	0.02399
2140.75803	0.02398
2139.79373	0.02399
2138.82942	0.02395
2137.86512	0.02385
2136.90081	0.02375
2135.93651	0.02368
2134.9722	0.02367
2134.00789	0.02371
2133.04359	0.02368
2132.07928	0.02358
2131.11498	0.02346
2130.15067	0.02338
2129.18637	0.02333
2128.22206	0.02333
2127.25776	0.02332
2126.29345	0.02322
2125.32915	0.02309
2124.36484	0.02302
2123.40053	0.02301
2122.43623	0.023
2121.47192	0.02297
2120.50762	0.02292
2119.54331	0.02281
2118.57901	0.0227
2117.6147	0.02266
2116.6504	0.02266
2115.68609	0.02265
2114.72179	0.02262
2113.75748	0.02256
2112.79318	0.02249
2111.82887	0.02245
2110.86456	0.02249
2109.90026	0.02253
2108.93595	0.02254
2107.97165	0.02251
2107.00734	0.02245
2106.04304	0.02239
2105.07873	0.02238
2104.11443	0.02243
2103.15012	0.02247
2102.18582	0.02245
2101.22151	0.02241
2100.2572	0.02237
2099.2929	0.02235
2098.32859	0.0224
2097.36429	0.02248
2096.39998	0.02247
2095.43568	0.0224
2094.47137	0.02234
2093.50707	0.02232
2092.54276	0.02236
2091.57846	0.02245
2090.61415	0.02248
2089.64984	0.02243
2088.68554	0.02237
2087.72123	0.02236
2086.75693	0.0224
2085.79262	0.02248
2084.82832	0.02257
2083.86401	0.02256
2082.89971	0.02245
2081.9354	0.02239
2080.9711	0.02244
2080.00679	0.02251
2079.04249	0.02259
2078.07818	0.0226
2077.11387	0.02254
2076.14957	0.02249
2075.18526	0.02251
2074.22096	0.02256
2073.25665	0.02259
2072.29235	0.02261
2071.32804	0.02257
2070.36374	0.02246
2069.39943	0.0224
2068.43513	0.02243
2067.47082	0.02247
2066.50651	0.02247
2065.54221	0.02244
2064.5779	0.02236
2063.6136	0.02228
2062.64929	0.02229
2061.68499	0.02237
2060.72068	0.02243
2059.75638	0.02236
2058.79207	0.02228
2057.82777	0.02221
2056.86346	0.02217
2055.89916	0.02221
2054.93485	0.02226
2053.97054	0.02223
2053.00624	0.02212
2052.04193	0.02202
2051.07763	0.02197
2050.11332	0.02198
2049.14902	0.022
2048.18471	0.02193
2047.22041	0.02177
2046.2561	0.0216
2045.2918	0.02148
2044.32749	0.0214
2043.36318	0.02135
2042.39888	0.02128
2041.43457	0.02111
2040.47027	0.02091
2039.50596	0.02074
2038.54166	0.02065
2037.57735	0.02054
2036.61305	0.02043
2035.64874	0.02029
2034.68444	0.02009
2033.72013	0.01984
2032.75583	0.01965
2031.79152	0.01954
2030.82721	0.0194
2029.86291	0.01921
2028.8986	0.01902
2027.9343	0.01879
2026.96999	0.01857
2026.00569	0.01843
2025.04138	0.01829
2024.07708	0.01808
2023.11277	0.01786
2022.14847	0.01764
2021.18416	0.01738
2020.21985	0.01719
2019.25555	0.01706
2018.29124	0.01691
2017.32694	0.01671
2016.36263	0.01648
2015.39833	0.01629
2014.43402	0.0161
2013.46972	0.01599
2012.50541	0.01591
2011.54111	0.01577
2010.5768	0.01559
2009.6125	0.01544
2008.64819	0.0153
2007.68388	0.01519
2006.71958	0.01515
2005.75527	0.0151
2004.79097	0.01499
2003.82666	0.01486
2002.86236	0.01475
2001.89805	0.01469
2000.93375	0.01467
1999.96944	0.01469
1999.00514	0.01465
1998.04083	0.01454
1997.07652	0.01443
1996.11222	0.0144
1995.14791	0.01443
1994.18361	0.01445
1993.2193	0.01444
1992.255	0.01437
1991.29069	0.01429
1990.32639	0.01427
1989.36208	0.0143
1988.39778	0.01434
1987.43347	0.01436
1986.46917	0.01436
1985.50486	0.01429
1984.54055	0.01424
1983.57625	0.01427
1982.61194	0.01433
1981.64764	0.01441
1980.68333	0.01446
1979.71903	0.01445
1978.75472	0.01439
1977.79042	0.0144
1976.82611	0.01451
1975.86181	0.0146
1974.8975	0.01464
1973.93319	0.01465
1972.96889	0.01462
1972.00458	0.01462
1971.04028	0.0147
1970.07597	0.01483
1969.11167	0.0149
1968.14736	0.01493
1967.18306	0.01494
1966.21875	0.01495
1965.25445	0.015
1964.29014	0.01514
1963.32583	0.01527
1962.36153	0.01532
1961.39722	0.01533
1960.43292	0.01534
1959.46861	0.01539
1958.50431	0.01549
1957.54	0.01564
1956.5757	0.01574
1955.61139	0.01572
1954.64709	0.01571
1953.68278	0.01576
1952.71848	0.01585
1951.75417	0.01597
1950.78986	0.01607
1949.82556	0.01607
1948.86125	0.01601
1947.89695	0.01597
1946.93264	0.016
1945.96834	0.01605
1945.00403	0.01609
1944.03973	0.01609
1943.07542	0.01601
1942.11112	0.01592
1941.14681	0.01594
1940.1825	0.01599
1939.2182	0.01602
1938.25389	0.01601
1937.28959	0.01598
1936.32528	0.01588
1935.36098	0.01581
1934.39667	0.01584
1933.43237	0.01589
1932.46806	0.01589
1931.50376	0.01587
1930.53945	0.01577
1929.57515	0.01568
1928.61084	0.01568
1927.64653	0.01577
1926.68223	0.01582
1925.71792	0.01578
1924.75362	0.0157
1923.78931	0.01559
1922.82501	0.01553
1921.8607	0.01559
1920.8964	0.01569
1919.93209	0.01568
1918.96779	0.0156
1918.00348	0.01552
1917.03917	0.0155
1916.07487	0.01555
1915.11056	0.01564
1914.14626	0.01568
1913.18195	0.01563
1912.21765	0.01552
1911.25334	0.01545
1910.28904	0.01544
1909.32473	0.01552
1908.36043	0.0156
1907.39612	0.01558
1906.43182	0.01547
1905.46751	0.01539
1904.5032	0.01539
1903.5389	0.01545
1902.57459	0.01555
1901.61029	0.01558
1900.64598	0.0155
1899.68168	0.01536
1898.71737	0.01532
1897.75307	0.01539
1896.78876	0.0155
1895.82446	0.01555
1894.86015	0.01551
1893.89584	0.0154
1892.93154	0.01538
1891.96723	0.01548
1891.00293	0.01561
1890.03862	0.01569
1889.07432	0.01572
1888.11001	0.01566
1887.14571	0.01558
1886.1814	0.01562
1885.2171	0.0158
1884.25279	0.01594
1883.28849	0.01598
1882.32418	0.01595
1881.35987	0.01588
1880.39557	0.01589
1879.43126	0.01603
1878.46696	0.01619
1877.50265	0.01623
1876.53835	0.01614
1875.57404	0.01605
1874.60974	0.01605
1873.64543	0.01612
1872.68113	0.01623
1871.71682	0.01627
1870.75251	0.0162
1869.78821	0.0161
1868.8239	0.01608
1867.8596	0.01614
1866.89529	0.01623
1865.93099	0.01632
1864.96668	0.01631
1864.00238	0.01623
1863.03807	0.01617
1862.07377	0.0162
1861.10946	0.01628
1860.14516	0.01639
1859.18085	0.01644
1858.21654	0.01641
1857.25224	0.01633
1856.28793	0.01632
1855.32363	0.01643
1854.35932	0.01657
1853.39502	0.01666
1852.43071	0.01666
1851.46641	0.01659
1850.5021	0.01654
1849.5378	0.01658
1848.57349	0.01668
1847.60918	0.01676
1846.64488	0.01677
1845.68057	0.0167
1844.71627	0.01658
1843.75196	0.01659
1842.78766	0.01674
1841.82335	0.01685
1840.85905	0.01688
1839.89474	0.01686
1838.93044	0.01681
1837.96613	0.01681
1837.00182	0.01691
1836.03752	0.01706
1835.07321	0.01713
1834.10891	0.01713
1833.1446	0.01713
1832.1803	0.01715
1831.21599	0.01718
1830.25169	0.01733
1829.28738	0.01751
1828.32308	0.01759
1827.35877	0.01759
1826.39447	0.0176
1825.43016	0.01767
1824.46585	0.01782
1823.50155	0.01802
1822.53724	0.01815
1821.57294	0.01816
1820.60863	0.01816
1819.64433	0.01824
1818.68002	0.0184
1817.71572	0.01859
1816.75141	0.01876
1815.78711	0.01884
1814.8228	0.01887
1813.85849	0.01893
1812.89419	0.01904
1811.92988	0.01922
1810.96558	0.01941
1810.00127	0.01955
1809.03697	0.0196
1808.07266	0.01962
1807.10836	0.01976
1806.14405	0.01996
1805.17975	0.02018
1804.21544	0.02035
1803.25114	0.02041
1802.28683	0.02043
1801.32252	0.02052
1800.35822	0.02073
1799.39391	0.02097
1798.42961	0.02116
1797.4653	0.02129
1796.501	0.02132
1795.53669	0.02139
1794.57239	0.0216
1793.60808	0.02187
1792.64378	0.02208
1791.67947	0.02222
1790.71516	0.02228
1789.75086	0.02236
1788.78655	0.02253
1787.82225	0.02281
1786.85794	0.02308
1785.89364	0.02324
1784.92933	0.02333
1783.96503	0.02342
1783.00072	0.02359
1782.03642	0.02384
1781.07211	0.02415
1780.10781	0.0244
1779.1435	0.02451
1778.17919	0.02455
1777.21489	0.02469
1776.25058	0.02494
1775.28628	0.02525
1774.32197	0.02555
1773.35767	0.02567
1772.39336	0.02572
1771.42906	0.02583
1770.46475	0.0261
1769.50045	0.02645
1768.53614	0.02677
1767.57183	0.02699
1766.60753	0.02713
1765.64322	0.02724
1764.67892	0.02753
1763.71461	0.02792
1762.75031	0.02829
1761.786	0.02857
1760.8217	0.02878
1759.85739	0.02894
1758.89309	0.02917
1757.92878	0.02957
1756.96448	0.03
1756.00017	0.03037
1755.03586	0.03064
1754.07156	0.03083
1753.10725	0.03105
1752.14295	0.0314
1751.17864	0.03189
1750.21434	0.03237
1749.25003	0.03268
1748.28573	0.03291
1747.32142	0.03318
1746.35712	0.03356
1745.39281	0.03403
1744.4285	0.03449
1743.4642	0.03485
1742.49989	0.03511
1741.53559	0.03537
1740.57128	0.03567
1739.60698	0.03612
1738.64267	0.03667
1737.67837	0.03712
1736.71406	0.03738
1735.74976	0.03759
1734.78545	0.03789
1733.82115	0.0384
1732.85684	0.03897
1731.89253	0.03948
1730.92823	0.03987
1729.96392	0.04018
1728.99962	0.04056
1728.03531	0.04108
1727.07101	0.04169
1726.1067	0.04229
1725.1424	0.0428
1724.17809	0.0432
1723.21379	0.0436
1722.24948	0.04416
1721.28517	0.04486
1720.32087	0.04556
1719.35656	0.04616
1718.39226	0.04665
1717.42795	0.04717
1716.46365	0.04781
1715.49934	0.0486
1714.53504	0.04945
1713.57073	0.05023
1712.60643	0.05088
1711.64212	0.05153
1710.67781	0.0523
1709.71351	0.05318
1708.7492	0.05413
1707.7849	0.05508
1706.82059	0.05592
1705.85629	0.05674
1704.89198	0.05763
1703.92768	0.05864
1702.96337	0.05977
1701.99907	0.06086
1701.03476	0.06181
1700.07046	0.06281
1699.10615	0.06396
1698.14184	0.06514
1697.17754	0.06634
1696.21323	0.06761
1695.24893	0.06894
1694.28462	0.0702
1693.32032	0.07139
1692.35601	0.07266
1691.39171	0.07403
1690.4274	0.07548
1689.4631	0.07699
1688.49879	0.0784
1687.53448	0.07975
1686.57018	0.08116
1685.60587	0.08265
1684.64157	0.08425
1683.67726	0.08589
1682.71296	0.08752
1681.74865	0.08903
1680.78435	0.09052
1679.82004	0.0921
1678.85574	0.0938
1677.89143	0.09549
1676.92713	0.09712
1675.96282	0.09865
1674.99851	0.10011
1674.03421	0.10161
1673.0699	0.10318
1672.1056	0.10478
1671.14129	0.10633
1670.17699	0.10777
1669.21268	0.10907
1668.24838	0.11042
1667.28407	0.11186
1666.31977	0.11335
1665.35546	0.11483
1664.39115	0.11622
1663.42685	0.11752
1662.46254	0.11879
1661.49824	0.12007
1660.53393	0.12143
1659.56963	0.12285
1658.60532	0.12419
1657.64102	0.12533
1656.67671	0.12639
1655.71241	0.1274
1654.7481	0.12844
1653.7838	0.12948
1652.81949	0.13046
1651.85518	0.13129
1650.89088	0.13191
1649.92657	0.13243
1648.96227	0.1329
1647.99796	0.13333
1647.03366	0.13368
1646.06935	0.13379
1645.10505	0.13364
1644.14074	0.13334
1643.17644	0.133
1642.21213	0.13265
1641.24782	0.13222
1640.28352	0.13158
1639.31921	0.13068
1638.35491	0.12961
1637.3906	0.12851
1636.4263	0.12744
1635.46199	0.12636
1634.49769	0.12516
1633.53338	0.12373
1632.56908	0.12205
1631.60477	0.12031
1630.64047	0.11864
1629.67616	0.11699
1628.71185	0.11522
1627.74755	0.11327
1626.78324	0.11118
1625.81894	0.109
1624.85463	0.10687
1623.89033	0.10481
1622.92602	0.10274
1621.96172	0.10055
1620.99741	0.0982
1620.03311	0.09577
1619.0688	0.0934
1618.10449	0.09122
1617.14019	0.08915
1616.17588	0.08702
1615.21158	0.08474
1614.24727	0.08239
1613.28297	0.0802
1612.31866	0.07815
1611.35436	0.07629
1610.39005	0.07452
1609.42575	0.07269
1608.46144	0.07084
1607.49714	0.0691
1606.53283	0.0676
1605.56852	0.06632
1604.60422	0.06516
1603.63991	0.06396
1602.67561	0.0627
1601.7113	0.0615
1600.747	0.06052
1599.78269	0.05975
1598.81839	0.05905
1597.85408	0.05835
1596.88978	0.05758
1595.92547	0.05677
1594.96116	0.05609
1593.99686	0.05565
1593.03255	0.05536
1592.06825	0.05502
1591.10394	0.05459
1590.13964	0.05413
1589.17533	0.05374
1588.21103	0.05353
1587.24672	0.05347
1586.28242	0.05344
1585.31811	0.05333
1584.3538	0.05313
1583.3895	0.05294
1582.42519	0.0529
1581.46089	0.05305
1580.49658	0.05324
1579.53228	0.05335
1578.56797	0.05336
1577.60367	0.05331
1576.63936	0.05335
1575.67506	0.05359
1574.71075	0.05398
1573.74645	0.05428
1572.78214	0.05441
1571.81783	0.05448
1570.85353	0.05462
1569.88922	0.05489
1568.92492	0.05532
1567.96061	0.05575
1566.99631	0.05604
1566.032	0.05621
1565.0677	0.05641
1564.10339	0.05673
1563.13909	0.0572
1562.17478	0.05768
1561.21047	0.05804
1560.24617	0.05827
1559.28186	0.0585
1558.31756	0.05885
1557.35325	0.05935
1556.38895	0.05992
1555.42464	0.0604
1554.46034	0.06073
1553.49603	0.06104
1552.53173	0.06139
1551.56742	0.06191
1550.60312	0.06251
1549.63881	0.06311
1548.6745	0.06358
1547.7102	0.06396
1546.74589	0.06431
1545.78159	0.06477
1544.81728	0.06543
1543.85298	0.06612
1542.88867	0.06667
1541.92437	0.06712
1540.96006	0.06758
1539.99576	0.06811
1539.03145	0.06881
1538.06714	0.0696
1537.10284	0.07029
1536.13853	0.07086
1535.17423	0.07135
1534.20992	0.07189
1533.24562	0.07259
1532.28131	0.07344
1531.31701	0.07427
1530.3527	0.07494
1529.3884	0.07553
1528.42409	0.07612
1527.45979	0.07686
1526.49548	0.07773
1525.53117	0.07864
1524.56687	0.07946
1523.60256	0.08016
1522.63826	0.08084
1521.67395	0.08161
1520.70965	0.08257
1519.74534	0.08365
1518.78104	0.08465
1517.81673	0.08549
1516.85243	0.08631
1515.88812	0.08728
1514.92381	0.08838
1513.95951	0.08955
1512.9952	0.09065
1512.0309	0.0917
1511.06659	0.0927
1510.10229	0.09373
1509.13798	0.0949
1508.17368	0.09619
1507.20937	0.09754
1506.24507	0.09887
1505.28076	0.10017
1504.31646	0.10146
1503.35215	0.10285
1502.38784	0.10441
1501.42354	0.10607
1500.45923	0.10774
1499.49493	0.1093
1498.53062	0.11087
1497.56632	0.11256
1496.60201	0.11444
1495.63771	0.11653
1494.6734	0.1186
1493.7091	0.12061
1492.74479	0.12267
1491.78048	0.12481
1490.81618	0.12713
1489.85187	0.12963
1488.88757	0.13225
1487.92326	0.1348
1486.95896	0.13739
1485.99465	0.14009
1485.03035	0.14293
1484.06604	0.14594
1483.10174	0.14915
1482.13743	0.15243
1481.17313	0.15569
1480.20882	0.15906
1479.24451	0.16262
1478.28021	0.16644
1477.3159	0.17049
1476.3516	0.17466
1475.38729	0.17877
1474.42299	0.18279
1473.45868	0.18678
1472.49438	0.19074
1471.53007	0.19468
1470.56577	0.19841
1469.60146	0.20173
1468.63715	0.20461
1467.67285	0.20716
1466.70854	0.20943
1465.74424	0.21142
1464.77993	0.21303
1463.81563	0.21421
1462.85132	0.21501
1461.88702	0.21558
1460.92271	0.21611
1459.95841	0.21657
1458.9941	0.21689
1458.02979	0.21691
1457.06549	0.21664
1456.10118	0.21621
1455.13688	0.21571
1454.17257	0.21537
1453.20827	0.21521
1452.24396	0.21511
1451.27966	0.21498
1450.31535	0.21477
1449.35105	0.21454
1448.38674	0.21444
1447.42244	0.21461
1446.45813	0.21498
1445.49382	0.21542
1444.52952	0.21592
1443.56521	0.21651
1442.60091	0.21725
1441.6366	0.21825
1440.6723	0.21948
1439.70799	0.2207
1438.74369	0.22184
1437.77938	0.22294
1436.81508	0.22423
1435.85077	0.22585
1434.88646	0.22763
1433.92216	0.22943
1432.95785	0.23119
1431.99355	0.23278
1431.02924	0.23435
1430.06494	0.2361
1429.10063	0.23797
1428.13633	0.23984
1427.17202	0.24153
1426.20772	0.24302
1425.24341	0.24444
1424.27911	0.24591
1423.3148	0.24742
1422.35049	0.24891
1421.38619	0.25022
1420.42188	0.25123
1419.45758	0.25192
1418.49327	0.25258
1417.52897	0.25325
1416.56466	0.25377
1415.60036	0.25406
1414.63605	0.25402
1413.67175	0.25365
1412.70744	0.25306
1411.74313	0.25243
1410.77883	0.25171
1409.81452	0.2508
1408.85022	0.24955
1407.88591	0.2479
1406.92161	0.24605
1405.9573	0.2442
1404.993	0.24239
1404.02869	0.24046
1403.06439	0.23826
1402.10008	0.2358
1401.13578	0.2333
1400.17147	0.23098
1399.20716	0.22905
1398.24286	0.22756
1397.27855	0.22634
1396.31425	0.22531
1395.34994	0.22459
1394.38564	0.22439
1393.42133	0.22469
1392.45703	0.22531
1391.49272	0.22596
1390.52842	0.22631
1389.56411	0.22624
1388.5998	0.22592
1387.6355	0.22551
1386.67119	0.22494
1385.70689	0.22405
1384.74258	0.22296
1383.77828	0.22216
1382.81397	0.22197
1381.84967	0.22224
1380.88536	0.22291
1379.92106	0.22396
1378.95675	0.22539
1377.99245	0.22717
1377.02814	0.22933
1376.06383	0.2321
1375.09953	0.2354
1374.13522	0.23885
1373.17092	0.24198
1372.20661	0.24445
1371.24231	0.24606
1370.278	0.24681
1369.3137	0.24682
1368.34939	0.24607
1367.38509	0.24455
1366.42078	0.24218
1365.45647	0.23912
1364.49217	0.2357
1363.52786	0.2324
1362.56356	0.22957
1361.59925	0.22723
1360.63495	0.22531
1359.67064	0.22379
1358.70634	0.22273
1357.74203	0.22208
1356.77773	0.22187
1355.81342	0.22204
1354.84911	0.22217
1353.88481	0.22216
1352.9205	0.2222
1351.9562	0.22245
1350.99189	0.22296
1350.02759	0.22366
1349.06328	0.22438
1348.09898	0.22508
1347.13467	0.22577
1346.17037	0.22649
1345.20606	0.22731
1344.24176	0.22818
1343.27745	0.22901
1342.31314	0.22956
1341.34884	0.22984
1340.38453	0.23008
1339.42023	0.23035
1338.45592	0.23063
1337.49162	0.23079
1336.52731	0.23063
1335.56301	0.23004
1334.5987	0.22901
1333.6344	0.22763
1332.67009	0.2259
1331.70578	0.22366
1330.74148	0.22073
1329.77717	0.21728
1328.81287	0.2136
1327.84856	0.20998
1326.88426	0.20661
1325.91995	0.20351
1324.95565	0.20052
1323.99134	0.19751
1323.02704	0.19453
1322.06273	0.19159
1321.09843	0.18867
1320.13412	0.18584
1319.16981	0.1831
1318.20551	0.1805
1317.2412	0.17819
1316.2769	0.17629
1315.31259	0.17485
1314.34829	0.1739
1313.38398	0.17346
1312.41968	0.17344
1311.45537	0.17381
1310.49107	0.17452
1309.52676	0.17561
1308.56245	0.17701
1307.59815	0.17848
1306.63384	0.17986
1305.66954	0.18098
1304.70523	0.18169
1303.74093	0.18189
1302.77662	0.18151
1301.81232	0.1805
1300.84801	0.17888
1299.88371	0.17677
1298.9194	0.17424
1297.9551	0.1714
1296.99079	0.16837
1296.02648	0.16525
1295.06218	0.1621
1294.09787	0.159
1293.13357	0.15597
1292.16926	0.15294
1291.20496	0.14987
1290.24065	0.14688
1289.27635	0.1442
1288.31204	0.14192
1287.34774	0.14007
1286.38343	0.13869
1285.41912	0.13773
1284.45482	0.13718
1283.49051	0.13716
1282.52621	0.1375
1281.5619	0.138
1280.5976	0.13851
1279.63329	0.13895
1278.66899	0.13943
1277.70468	0.14008
1276.74038	0.14093
1275.77607	0.14193
1274.81177	0.14297
1273.84746	0.14402
1272.88315	0.14512
1271.91885	0.14641
1270.95454	0.14789
1269.99024	0.14956
1269.02593	0.15132
1268.06163	0.15304
1267.09732	0.1547
1266.13302	0.15642
1265.16871	0.15827
1264.20441	0.16017
1263.2401	0.16192
1262.27579	0.16342
1261.31149	0.16463
1260.34718	0.16569
1259.38288	0.16681
1258.41857	0.16811
1257.45427	0.16941
1256.48996	0.17062
1255.52566	0.17172
1254.56135	0.17282
1253.59705	0.17405
1252.63274	0.17545
1251.66844	0.17691
1250.70413	0.17829
1249.73982	0.17953
1248.77552	0.18063
1247.81121	0.18183
1246.84691	0.18326
1245.8826	0.18471
1244.9183	0.18585
1243.95399	0.18651
1242.98969	0.18674
1242.02538	0.18668
1241.06108	0.18644
1240.09677	0.18602
1239.13246	0.18525
1238.16816	0.18408
1237.20385	0.18264
1236.23955	0.18116
1235.27524	0.17978
1234.31094	0.17854
1233.34663	0.17728
1232.38233	0.17578
1231.41802	0.1741
1230.45372	0.17244
1229.48941	0.17101
1228.5251	0.16978
1227.5608	0.16873
1226.59649	0.16772
1225.63219	0.16668
1224.66788	0.16582
1223.70358	0.1654
1222.73927	0.16555
1221.77497	0.16608
1220.81066	0.16683
1219.84636	0.16786
1218.88205	0.16926
1217.91775	0.17116
1216.95344	0.17359
1215.98913	0.17658
1215.02483	0.17988
1214.06052	0.18331
1213.09622	0.18672
1212.13191	0.19022
1211.16761	0.19381
1210.2033	0.19735
1209.239	0.20068
1208.27469	0.20362
1207.31039	0.20605
1206.34608	0.20814
1205.38177	0.21004
1204.41747	0.21168
1203.45316	0.21293
1202.48886	0.21374
1201.52455	0.2141
1200.56025	0.2142
1199.59594	0.21423
1198.63164	0.21421
1197.66733	0.21415
1196.70303	0.21407
1195.73872	0.214
1194.77442	0.21402
1193.81011	0.21439
1192.8458	0.21532
1191.8815	0.21686
1190.91719	0.21896
1189.95289	0.22145
1188.98858	0.22446
1188.02428	0.22817
1187.05997	0.23255
1186.09567	0.23753
1185.13136	0.24318
1184.16706	0.24933
1183.20275	0.2559
1182.23844	0.26299
1181.27414	0.27077
1180.30983	0.27928
1179.34553	0.28853
1178.38122	0.2986
1177.41692	0.30943
1176.45261	0.32101
1175.48831	0.33354
1174.524	0.34724
1173.5597	0.3621
1172.59539	0.37802
1171.63109	0.39501
1170.66678	0.41295
1169.70247	0.4318
1168.73817	0.45147
1167.77386	0.47177
1166.80956	0.49235
1165.84525	0.51266
1164.88095	0.53199
1163.91664	0.54968
1162.95234	0.56542
1161.98803	0.5788
1161.02373	0.58939
1160.05942	0.59692
1159.09511	0.60133
1158.13081	0.6027
1157.1665	0.60117
1156.2022	0.5972
1155.23789	0.59121
1154.27359	0.58328
1153.30928	0.57357
1152.34498	0.56228
1151.38067	0.54973
1150.41637	0.53614
1149.45206	0.52164
1148.48776	0.50661
1147.52345	0.4912
1146.55914	0.47543
1145.59484	0.45991
1144.63053	0.44536
1143.66623	0.43217
1142.70192	0.42061
1141.73762	0.41069
1140.77331	0.40219
1139.80901	0.39511
1138.8447	0.38962
1137.8804	0.38591
1136.91609	0.38387
1135.95178	0.38331
1134.98748	0.38386
1134.02317	0.38504
1133.05887	0.38655
1132.09456	0.38841
1131.13026	0.39044
1130.16595	0.39245
1129.20165	0.39436
1128.23734	0.39604
1127.27304	0.39751
1126.30873	0.39906
1125.34443	0.40099
1124.38012	0.40332
1123.41581	0.4058
1122.45151	0.40828
1121.4872	0.41089
1120.5229	0.41366
1119.55859	0.41689
1118.59429	0.42086
1117.62998	0.42532
1116.66568	0.42988
1115.70137	0.43444
1114.73707	0.43918
1113.77276	0.44422
1112.80845	0.44966
1111.84415	0.45546
1110.87984	0.46127
1109.91554	0.46704
1108.95123	0.47275
1107.98693	0.47848
1107.02262	0.48438
1106.05832	0.49027
1105.09401	0.49577
1104.12971	0.50045
1103.1654	0.50419
1102.20109	0.50704
1101.23679	0.50914
1100.27248	0.51072
1099.30818	0.51194
1098.34387	0.51288
1097.37957	0.51387
1096.41526	0.51576
1095.45096	0.51921
1094.48665	0.5247
1093.52235	0.53251
1092.55804	0.54236
1091.59374	0.55384
1090.62943	0.56672
1089.66512	0.58105
1088.70082	0.59675
1087.73651	0.61351
1086.77221	0.63087
1085.8079	0.64816
1084.8436	0.66485
1083.87929	0.6806
1082.91499	0.69511
1081.95068	0.7075
1080.98638	0.71687
1080.02207	0.7223
1079.05776	0.72278
1078.09346	0.71775
1077.12915	0.70715
1076.16485	0.69102
1075.20054	0.66966
1074.23624	0.64399
1073.27193	0.61566
1072.30763	0.58757
1071.34332	0.56329
1070.37902	0.54585
1069.41471	0.53687
1068.45041	0.5367
1067.4861	0.54469
1066.52179	0.55906
1065.55749	0.57788
1064.59318	0.59937
1063.62888	0.62188
1062.66457	0.64376
1061.70027	0.6638
1060.73596	0.68213
1059.77166	0.69877
1058.80735	0.71375
1057.84305	0.7271
1056.87874	0.73876
1055.91443	0.7484
1054.95013	0.75535
1053.98582	0.76012
1053.02152	0.76361
1052.05721	0.76652
1051.09291	0.76941
1050.1286	0.77235
1049.1643	0.77533
1048.19999	0.77879
1047.23569	0.78344
1046.27138	0.7894
1045.30708	0.79663
1044.34277	0.80487
1043.37846	0.81375
1042.41416	0.82319
1041.44985	0.83319
1040.48555	0.8442
1039.52124	0.85633
1038.55694	0.86926
1037.59263	0.88259
1036.62833	0.89618
1035.66402	0.91014
1034.69972	0.92438
1033.73541	0.93878
1032.7711	0.9528
1031.8068	0.96539
1030.84249	0.97615
1029.87819	0.98517
1028.91388	0.99227
1027.94958	0.9973
1026.98527	1
1026.02097	0.99975
1025.05666	0.99634
1024.09236	0.98972
1023.12805	0.98015
1022.16375	0.96845
1021.19944	0.95514
1020.23513	0.93993
1019.27083	0.92251
1018.30652	0.90284
1017.34222	0.88124
1016.37791	0.85854
1015.41361	0.8357
1014.4493	0.81331
1013.485	0.79113
1012.52069	0.76936
1011.55639	0.74872
1010.59208	0.72988
1009.62777	0.7135
1008.66347	0.69979
1007.69916	0.68909
1006.73486	0.68165
1005.77055	0.67753
1004.80625	0.67653
1003.84194	0.67783
1002.87764	0.68038
1001.91333	0.68298
1000.94903	0.68482
999.98472	0.68549
999.02042	0.68499
998.05611	0.68339
997.0918	0.68014
996.1275	0.67463
995.16319	0.66612
994.19889	0.65419
993.23458	0.63919
992.27028	0.62197
991.30597	0.60307
990.34167	0.58251
989.37736	0.56067
988.41306	0.53807
987.44875	0.51521
986.48444	0.49259
985.52014	0.4707
984.55583	0.44966
983.59153	0.42919
982.62722	0.40899
981.66292	0.38939
980.69861	0.37082
979.73431	0.35343
978.77	0.33718
977.8057	0.32182
976.84139	0.30695
975.87708	0.2926
974.91278	0.27907
973.94847	0.2666
972.98417	0.25504
972.01986	0.24407
971.05556	0.23344
970.09125	0.22303
969.12695	0.21296
968.16264	0.20347
967.19834	0.19457
966.23403	0.1862
965.26973	0.17812
964.30542	0.16997
963.34111	0.16186
962.37681	0.15412
961.4125	0.14701
960.4482	0.14052
959.48389	0.13431
958.51959	0.12816
957.55528	0.12214
956.59098	0.11656
955.62667	0.1119
954.66237	0.10858
953.69806	0.10664
952.73375	0.10608
951.76945	0.10738
950.80514	0.11136
949.84084	0.11884
948.87653	0.12995
947.91223	0.1436
946.94792	0.15785
945.98362	0.17062
945.01931	0.18055
944.05501	0.18711
943.0907	0.19059
942.1264	0.19159
941.16209	0.19048
940.19778	0.18776
939.23348	0.18435
938.26917	0.18127
937.30487	0.17914
936.34056	0.17815
935.37626	0.17779
934.41195	0.17712
933.44765	0.17552
932.48334	0.17303
931.51904	0.17011
930.55473	0.16703
929.59042	0.16386
928.62612	0.16025
927.66181	0.15592
926.69751	0.15109
925.7332	0.14617
924.7689	0.14122
923.80459	0.136
922.84029	0.13045
921.87598	0.12438
920.91168	0.11788
919.94737	0.11158
918.98307	0.106
918.01876	0.1011
917.05445	0.09647
916.09015	0.09192
915.12584	0.08736
914.16154	0.08303
913.19723	0.07924
912.23293	0.07597
911.26862	0.07281
910.30432	0.06929
909.34001	0.06526
908.37571	0.06087
907.4114	0.05652
906.44709	0.05241
905.48279	0.04836
904.51848	0.04419
903.55418	0.04005
902.58987	0.03634
901.62557	0.03338
900.66126	0.03143
899.69696	0.03042
898.73265	0.02977
897.76835	0.02895
896.80404	0.02783
895.83974	0.02668
894.87543	0.02571
893.91112	0.0251
892.94682	0.02482
891.98251	0.02454
891.01821	0.02399
890.0539	0.02313
889.0896	0.02221
888.12529	0.02159
887.16099	0.02126
886.19668	0.02072
885.23238	0.01969
884.26807	0.01831
883.30376	0.01707
882.33946	0.01651
881.37515	0.01656
880.41085	0.01712
879.44654	0.01795
878.48224	0.01893
877.51793	0.0204
876.55363	0.02296
875.58932	0.02666
874.62502	0.03082
873.66071	0.03481
872.69641	0.03835
871.7321	0.04178
870.76779	0.0458
869.80349	0.05074
868.83918	0.05618
867.87488	0.06125
866.91057	0.06537
865.94627	0.06853
864.98196	0.07119
864.01766	0.07371
863.05335	0.07597
862.08905	0.07748
861.12474	0.07786
860.16043	0.07727
859.19613	0.07634
858.23182	0.0757
857.26752	0.07562
856.30321	0.07572
855.33891	0.07526
854.3746	0.07407
853.4103	0.0725
852.44599	0.07119
851.48169	0.07054
850.51738	0.07
849.55307	0.06883
848.58877	0.06678
847.62446	0.06425
846.66016	0.06197
845.69585	0.06028
844.73155	0.05891
843.76724	0.05706
842.80294	0.05427
841.83863	0.05076
840.87433	0.04713
839.91002	0.04396
838.94572	0.04111
837.98141	0.03797
837.0171	0.03404
836.0528	0.02942
835.08849	0.02485
834.12419	0.02105
833.15988	0.01814
832.19558	0.01568
831.23127	0.01298
830.26697	0.00985
829.30266	0.0069
828.33836	0.00489
827.37405	0.00392
826.40974	0.00347
825.44544	0.00291
824.48113	0.00193
823.51683	7.46225E-4
822.55252	0
821.58822	1.74324E-4
820.62391	9.99763E-4
819.65961	0.00167
818.6953	0.00178
817.731	0.0015
816.76669	0.00142
815.80239	0.00204
814.83808	0.00326
813.87377	0.00459
812.90947	0.00543
811.94516	0.00558
810.98086	0.00564
810.01655	0.0064
809.05225	0.008
808.08794	0.00984
807.12364	0.01129
806.15933	0.01208
805.19503	0.01268
804.23072	0.01385
803.26641	0.01589
802.30211	0.01855
801.3378	0.0213
800.3735	0.02358
799.40919	0.02529
798.44489	0.02692
797.48058	0.02888
796.51628	0.0311
795.55197	0.03304
794.58767	0.03441
793.62336	0.03545
792.65906	0.03653
791.69475	0.03824
790.73044	0.04053
789.76614	0.04254
788.80183	0.04351
787.83753	0.0433
786.87322	0.04242
785.90892	0.04173
784.94461	0.04185
783.98031	0.04266
783.016	0.04377
782.0517	0.04496
781.08739	0.04661
780.12308	0.04934
779.15878	0.05338
778.19447	0.05828
777.23017	0.06285
776.26586	0.06622
775.30156	0.06835
774.33725	0.07001
773.37295	0.07199
772.40864	0.0746
771.44434	0.07757
770.48003	0.08045
769.51573	0.0834
768.55142	0.08698
767.58711	0.09175
766.62281	0.09773
765.6585	0.10392
764.6942	0.10926
763.72989	0.11318
762.76559	0.11612
761.80128	0.11863
760.83698	0.12086
759.87267	0.12246
758.90837	0.12275
757.94406	0.12122
756.97975	0.11782
756.01545	0.11323
755.05114	0.10847
754.08684	0.10394
753.12253	0.09918
752.15823	0.09367
751.19392	0.08753
750.22962	0.0815
749.26531	0.07654
748.30101	0.0729
747.3367	0.06989
746.3724	0.06666
745.40809	0.06312
744.44378	0.06009
743.47948	0.05824
742.51517	0.0578
741.55087	0.05819
740.58656	0.05848
739.62226	0.05821
738.65795	0.05768
737.69365	0.05754
736.72934	0.05842
735.76504	0.06013
734.80073	0.0617
733.83642	0.06258
732.87212	0.06299
731.90781	0.06367
730.94351	0.0653
729.9792	0.06783
729.0149	0.07054
728.05059	0.07271
727.08629	0.07428
726.12198	0.07592
725.15768	0.0785
724.19337	0.08226
723.22906	0.0866
722.26476	0.09052
721.30045	0.0937
720.33615	0.09681
719.37184	0.10064
718.40754	0.10554
717.44323	0.11084
716.47893	0.11554
715.51462	0.11933
714.55032	0.12267
713.58601	0.12652
712.62171	0.13129
711.6574	0.13642
710.69309	0.14075
709.72879	0.14331
708.76448	0.14414
707.80018	0.14394
706.83587	0.14325
705.87157	0.14211
704.90726	0.13993
703.94296	0.13621
702.97865	0.13128
702.01435	0.12612
701.05004	0.12174
700.08573	0.11838
699.12143	0.11536
698.15712	0.11211
697.19282	0.10853
696.22851	0.10524
695.26421	0.10303
694.2999	0.10199
693.3356	0.1015
692.37129	0.10081
691.40699	0.09961
690.44268	0.0982
689.47838	0.09724
688.51407	0.09719
687.54976	0.09778
686.58546	0.09802
685.62115	0.09759
684.65685	0.09681
683.69254	0.09639
682.72824	0.0968
681.76393	0.09761
680.79963	0.09814
679.83532	0.098
678.87102	0.09745
677.90671	0.09708
676.9424	0.09746
675.9781	0.09856
675.01379	0.09944
674.04949	0.09966
673.08518	0.09919
672.12088	0.09869
671.15657	0.09883
670.19227	0.09955
669.22796	0.10026
668.26366	0.10027
667.29935	0.09973
666.33505	0.09945
665.37074	0.0999
664.40643	0.10069
663.44213	0.10132
662.47782	0.10172
661.51352	0.10182
660.54921	0.10204
659.58491	0.10264
658.6206	0.10349
657.6563	0.10435
656.69199	0.10512
655.72769	0.10582
654.76338	0.10634
653.79907	0.10689
652.83477	0.10758
651.87046	0.10833
650.90616	0.10888
649.94185	0.10908
648.97755	0.10889
648.01324	0.10842
647.04894	0.10799
646.08463	0.10771
645.12033	0.10766
644.15602	0.10751
643.19172	0.10712
642.22741	0.10669
641.2631	0.10636
640.2988	0.10627
639.33449	0.10618
638.37019	0.10613
637.40588	0.1061
636.44158	0.10602
635.47727	0.10578
634.51297	0.10547
633.54866	0.1057
632.58436	0.10638
631.62005	0.10723
630.65574	0.10826
629.69144	0.10947
628.72713	0.11062
627.76283	0.11175
626.79852	0.11358
625.83422	0.11619
624.86991	0.11872
623.90561	0.12079
622.9413	0.12302
621.977	0.12561
621.01269	0.12867
620.04839	0.13239
619.08408	0.13628
618.11977	0.13975
617.15547	0.14298
616.19116	0.14688
615.22686	0.1516
614.26255	0.15666
613.29825	0.16132
612.33394	0.16504
611.36964	0.16801
610.40533	0.17055
609.44103	0.1729
608.47672	0.17483
607.51241	0.17638
606.54811	0.17733
605.5838	0.17721
604.6195	0.17684
603.65519	0.17723
602.69089	0.17836
601.72658	0.17944
600.76228	0.18025
599.79797	0.18072
598.83367	0.18098
597.86936	0.18153
596.90505	0.18256
595.94075	0.18448
594.97644	0.18729
594.01214	0.19054
593.04783	0.19365
592.08353	0.19697
591.11922	0.20129
590.15492	0.20617
589.19061	0.21054
588.22631	0.21424
587.262	0.21757
586.2977	0.22012
585.33339	0.2221
584.36908	0.22374
583.40478	0.22418
582.44047	0.22277
581.47617	0.22012
580.51186	0.21709
579.54756	0.21369
578.58325	0.20989
577.61895	0.20536
576.65464	0.19987
575.69034	0.19381
574.72603	0.18768
573.76172	0.18167
572.79742	0.176
571.83311	0.17102
570.86881	0.1661
569.9045	0.16091
568.9402	0.15573
567.97589	0.15092
567.01159	0.14675
566.04728	0.14274
565.08298	0.13848
564.11867	0.13379
563.15437	0.12911
562.19006	0.12482
561.22575	0.12077
560.26145	0.11735
559.29714	0.11453
558.33284	0.1117
557.36853	0.10859
556.40423	0.10582
555.43992	0.10404
554.47562	0.10325
553.51131	0.10268
552.54701	0.10187
551.5827	0.10119
550.61839	0.10062
549.65409	0.1002
548.68978	0.10068
547.72548	0.10229
546.76117	0.10394
545.79687	0.10541
544.83256	0.10726
543.86826	0.10963
542.90395	0.11281
541.93965	0.11631
540.97534	0.11992
540.01104	0.12328
539.04673	0.12599
538.08242	0.12857
537.11812	0.13099
536.15381	0.13311
535.18951	0.13463
534.2252	0.13559
533.2609	0.13617
532.29659	0.13657
531.33229	0.13732
530.36798	0.13808
529.40368	0.13851
528.43937	0.13868
527.47506	0.13861
526.51076	0.13779
525.54645	0.13637
524.58215	0.13469
523.61784	0.13215
522.65354	0.129
521.68923	0.12581
520.72493	0.1226
519.76062	0.11951
518.79632	0.11732
517.83201	0.11549
516.86771	0.11294
515.9034	0.11013
514.93909	0.10676
513.97479	0.1027
513.01048	0.09916
512.04618	0.09631
511.08187	0.09354
510.11757	0.09132
509.15326	0.0896
508.18896	0.08717
507.22465	0.08441
506.26035	0.08236
505.29604	0.08143
504.33173	0.08076
503.36743	0.07942
502.40312	0.07778
501.43882	0.07617
500.47451	0.07486
499.51021	0.07407
498.5459	0.0735
497.5816	0.0726
496.61729	0.07145
495.65299	0.06996
494.68868	0.06835
493.72438	0.06786
492.76007	0.06818
491.79576	0.06818
490.83146	0.06734
489.86715	0.06606
488.90285	0.06527
487.93854	0.06561
486.97424	0.06654
486.00993	0.0666
485.04563	0.06586
484.08132	0.06438
483.11702	0.0625
482.15271	0.06154
481.1884	0.06141
480.2241	0.0609
479.25979	0.05965
478.29549	0.05806
477.33118	0.05609
476.36688	0.05453
475.40257	0.05343
474.43827	0.05223
473.47396	0.05017
472.50966	0.04673
471.54535	0.04377
470.58104	0.04183
469.61674	0.04107
468.65243	0.04066
467.68813	0.03859
466.72382	0.03573
465.75952	0.03347
464.79521	0.03277
463.83091	0.03268
462.8666	0.03221
461.9023	0.03137
460.93799	0.02912
459.97369	0.02693
459.00938	0.0267
458.04507	0.02766
457.08077	0.02818
456.11646	0.02721
455.15216	0.02558
454.18785	0.02521
453.22355	0.02643
452.25924	0.02867
451.29494	0.03119
450.33063	0.03203
449.36633	0.03111
448.40202	0.03038
447.43771	0.03116
446.47341	0.03368
445.5091	0.03578
444.5448	0.03582
443.58049	0.03486
442.61619	0.03375
441.65188	0.03319
440.68758	0.03431
439.72327	0.03637
438.75897	0.03717
437.79466	0.03557
436.83036	0.03382
435.86605	0.03416
434.90174	0.03557
433.93744	0.03655
432.97313	0.03591
432.00883	0.03371
431.04452	0.03164
430.08022	0.0302
429.11591	0.02923
428.15161	0.02949
427.1873	0.0293
426.223	0.0273
425.25869	0.02564
424.29438	0.02495
423.33008	0.02509
422.36577	0.02505
421.40147	0.02377
420.43716	0.02173
419.47286	0.01942
418.50855	0.0185
417.54425	0.01906
416.57994	0.02071
415.61564	0.02189
414.65133	0.02049
413.68703	0.01808
412.72272	0.01647
411.75841	0.01674
410.79411	0.01835
409.8298	0.01909
408.8655	0.01678
407.90119	0.0128
406.93689	0.01083
405.97258	0.01141
405.00828	0.01312
404.04397	0.01392
403.07967	0.01273
402.11536	0.00944
401.15105	0.00722
400.18675	0.00863