3999.93888	0.00303
3998.97458	0.003
3998.01027	0.00302
3997.04597	0.00307
3996.08166	0.00314
3995.11735	0.00319
3994.15305	0.00321
3993.18874	0.00319
3992.22444	0.00318
3991.26013	0.00322
3990.29583	0.00328
3989.33152	0.00331
3988.36722	0.00329
3987.40291	0.00328
3986.43861	0.00327
3985.4743	0.00326
3984.51	0.00329
3983.54569	0.00331
3982.58138	0.00331
3981.61708	0.00326
3980.65277	0.00323
3979.68847	0.00323
3978.72416	0.00325
3977.75986	0.00328
3976.79555	0.00331
3975.83125	0.00329
3974.86694	0.00323
3973.90264	0.0032
3972.93833	0.00321
3971.97402	0.00321
3971.00972	0.00321
3970.04541	0.00322
3969.08111	0.00321
3968.1168	0.00316
3967.1525	0.00315
3966.18819	0.00319
3965.22389	0.00321
3964.25958	0.00319
3963.29528	0.00318
3962.33097	0.00325
3961.36667	0.00327
3960.40236	0.00323
3959.43805	0.00323
3958.47375	0.00326
3957.50944	0.00326
3956.54514	0.00322
3955.58083	0.00318
3954.61653	0.0032
3953.65222	0.00324
3952.68792	0.00324
3951.72361	0.00323
3950.75931	0.00331
3949.795	0.00338
3948.83069	0.00338
3947.86639	0.00344
3946.90208	0.0034
3945.93778	0.00325
3944.97347	0.00322
3944.00917	0.00334
3943.04486	0.00358
3942.08056	0.00356
3941.11625	0.0033
3940.15195	0.00321
3939.18764	0.00323
3938.22333	0.00323
3937.25903	0.00316
3936.29472	0.00314
3935.33042	0.00319
3934.36611	0.00329
3933.40181	0.00353
3932.4375	0.00372
3931.4732	0.00357
3930.50889	0.0034
3929.54459	0.00337
3928.58028	0.00329
3927.61598	0.00321
3926.65167	0.00327
3925.68736	0.00349
3924.72306	0.00364
3923.75875	0.00347
3922.79445	0.0033
3921.83014	0.00327
3920.86584	0.0035
3919.90153	0.00364
3918.93723	0.00351
3917.97292	0.00378
3917.00862	0.00405
3916.04431	0.00377
3915.08	0.00339
3914.1157	0.00326
3913.15139	0.00325
3912.18709	0.00325
3911.22278	0.00333
3910.25848	0.00336
3909.29417	0.00339
3908.32987	0.00338
3907.36556	0.00349
3906.40126	0.00377
3905.43695	0.00431
3904.47265	0.00496
3903.50834	0.00488
3902.54403	0.00482
3901.57973	0.00487
3900.61542	0.00458
3899.65112	0.00487
3898.68681	0.00481
3897.72251	0.00416
3896.7582	0.00386
3895.7939	0.0038
3894.82959	0.0039
3893.86529	0.00397
3892.90098	0.00424
3891.93667	0.00495
3890.97237	0.00517
3890.00806	0.00452
3889.04376	0.00408
3888.07945	0.00413
3887.11515	0.00469
3886.15084	0.00583
3885.18654	0.00585
3884.22223	0.00511
3883.25793	0.00486
3882.29362	0.00497
3881.32932	0.00567
3880.36501	0.00633
3879.4007	0.00603
3878.4364	0.00548
3877.47209	0.00544
3876.50779	0.00555
3875.54348	0.00599
3874.57918	0.00675
3873.61487	0.00687
3872.65057	0.00653
3871.68626	0.00675
3870.72196	0.00782
3869.75765	0.00857
3868.79334	0.00805
3867.82904	0.00731
3866.86473	0.00727
3865.90043	0.00806
3864.93612	0.00873
3863.97182	0.00846
3863.00751	0.00828
3862.04321	0.00869
3861.0789	0.00869
3860.1146	0.00837
3859.15029	0.00838
3858.18599	0.00872
3857.22168	0.00917
3856.25737	0.00933
3855.29307	0.01083
3854.32876	0.01315
3853.36446	0.01299
3852.40015	0.01183
3851.43585	0.0111
3850.47154	0.01038
3849.50724	0.01029
3848.54293	0.01034
3847.57863	0.01039
3846.61432	0.01052
3845.65001	0.01072
3844.68571	0.01131
3843.7214	0.01178
3842.7571	0.01177
3841.79279	0.01197
3840.82849	0.01252
3839.86418	0.01255
3838.89988	0.01294
3837.93557	0.01374
3836.97127	0.01346
3836.00696	0.01318
3835.04266	0.01359
3834.07835	0.01347
3833.11404	0.01333
3832.14974	0.01395
3831.18543	0.01421
3830.22113	0.01386
3829.25682	0.01379
3828.29252	0.01407
3827.32821	0.01457
3826.36391	0.01484
3825.3996	0.01479
3824.4353	0.01485
3823.47099	0.01516
3822.50668	0.01607
3821.54238	0.0172
3820.57807	0.01731
3819.61377	0.01662
3818.64946	0.0162
3817.68516	0.01646
3816.72085	0.01754
3815.75655	0.01808
3814.79224	0.01742
3813.82794	0.01704
3812.86363	0.01721
3811.89932	0.01742
3810.93502	0.01765
3809.97071	0.01785
3809.00641	0.01814
3808.0421	0.01898
3807.0778	0.01995
3806.11349	0.01976
3805.14919	0.01919
3804.18488	0.01933
3803.22058	0.01988
3802.25627	0.02097
3801.29197	0.02172
3800.32766	0.02126
3799.36335	0.02071
3798.39905	0.02083
3797.43474	0.02141
3796.47044	0.02193
3795.50613	0.02189
3794.54183	0.02172
3793.57752	0.02187
3792.61322	0.02208
3791.64891	0.02231
3790.68461	0.02258
3789.7203	0.02285
3788.75599	0.02313
3787.79169	0.02338
3786.82738	0.02368
3785.86308	0.02404
3784.89877	0.02445
3783.93447	0.02465
3782.97016	0.02473
3782.00586	0.02498
3781.04155	0.02538
3780.07725	0.02612
3779.11294	0.02647
3778.14864	0.02629
3777.18433	0.02633
3776.22002	0.02654
3775.25572	0.02685
3774.29141	0.02711
3773.32711	0.02736
3772.3628	0.02765
3771.3985	0.02816
3770.43419	0.02913
3769.46989	0.02955
3768.50558	0.02922
3767.54128	0.02919
3766.57697	0.02982
3765.61266	0.0304
3764.64836	0.03038
3763.68405	0.03038
3762.71975	0.03063
3761.75544	0.03094
3760.79114	0.03163
3759.82683	0.03245
3758.86253	0.03256
3757.89822	0.03255
3756.93392	0.03304
3755.96961	0.03328
3755.00531	0.03327
3754.041	0.03371
3753.07669	0.03507
3752.11239	0.03616
3751.14808	0.03592
3750.18378	0.03668
3749.21947	0.03759
3748.25517	0.03677
3747.29086	0.03615
3746.32656	0.03683
3745.36225	0.03931
3744.39795	0.04109
3743.43364	0.03962
3742.46933	0.03818
3741.50503	0.03828
3740.54072	0.03857
3739.57642	0.0389
3738.61211	0.03948
3737.64781	0.0406
3736.6835	0.04175
3735.7192	0.04237
3734.75489	0.04234
3733.79059	0.04197
3732.82628	0.04244
3731.86198	0.04307
3730.89767	0.04273
3729.93336	0.04258
3728.96906	0.0429
3728.00475	0.04354
3727.04045	0.04451
3726.07614	0.04507
3725.11184	0.04523
3724.14753	0.0454
3723.18323	0.04596
3722.21892	0.04666
3721.25462	0.04681
3720.29031	0.04704
3719.326	0.04767
3718.3617	0.04806
3717.39739	0.04827
3716.43309	0.0487
3715.46878	0.04933
3714.50448	0.04993
3713.54017	0.05078
3712.57587	0.05214
3711.61156	0.0527
3710.64726	0.05264
3709.68295	0.05324
3708.71865	0.05359
3707.75434	0.05357
3706.79003	0.05396
3705.82573	0.0545
3704.86142	0.05506
3703.89712	0.0556
3702.93281	0.05658
3701.96851	0.05772
3701.0042	0.05811
3700.0399	0.0582
3699.07559	0.05866
3698.11129	0.05932
3697.14698	0.06003
3696.18267	0.06077
3695.21837	0.06142
3694.25406	0.0621
3693.28976	0.06284
3692.32545	0.06398
3691.36115	0.06534
3690.39684	0.06596
3689.43254	0.06686
3688.46823	0.06819
3687.50393	0.06843
3686.53962	0.06846
3685.57531	0.06918
3684.61101	0.07018
3683.6467	0.07112
3682.6824	0.07203
3681.71809	0.07302
3680.75379	0.07419
3679.78948	0.07552
3678.82518	0.07656
3677.86087	0.07756
3676.89657	0.07936
3675.93226	0.08162
3674.96796	0.08284
3674.00365	0.08291
3673.03934	0.08314
3672.07504	0.08452
3671.11073	0.08668
3670.14643	0.08818
3669.18212	0.08909
3668.21782	0.08995
3667.25351	0.09066
3666.28921	0.09176
3665.3249	0.09309
3664.3606	0.09438
3663.39629	0.09576
3662.43198	0.09712
3661.46768	0.0986
3660.50337	0.10003
3659.53907	0.1015
3658.57476	0.10296
3657.61046	0.10475
3656.64615	0.10703
3655.68185	0.10849
3654.71754	0.10934
3653.75324	0.11059
3652.78893	0.11234
3651.82463	0.11465
3650.86032	0.11694
3649.89601	0.11882
3648.93171	0.1203
3647.9674	0.12176
3647.0031	0.12326
3646.03879	0.1243
3645.07449	0.12538
3644.11018	0.12691
3643.14588	0.12868
3642.18157	0.13049
3641.21727	0.13216
3640.25296	0.13383
3639.28865	0.13563
3638.32435	0.13749
3637.36004	0.13928
3636.39574	0.14101
3635.43143	0.14292
3634.46713	0.14508
3633.50282	0.14707
3632.53852	0.14866
3631.57421	0.1505
3630.60991	0.15325
3629.6456	0.1565
3628.6813	0.15871
3627.71699	0.15964
3626.75268	0.16073
3625.78838	0.16242
3624.82407	0.16431
3623.85977	0.1663
3622.89546	0.16843
3621.93116	0.17063
3620.96685	0.17306
3620.00255	0.17576
3619.03824	0.17804
3618.07394	0.17998
3617.10963	0.18187
3616.14532	0.18379
3615.18102	0.18608
3614.21671	0.18847
3613.25241	0.19095
3612.2881	0.19332
3611.3238	0.19514
3610.35949	0.19762
3609.39519	0.20061
3608.43088	0.20275
3607.46658	0.20469
3606.50227	0.20681
3605.53797	0.20885
3604.57366	0.2111
3603.60935	0.21352
3602.64505	0.21596
3601.68074	0.21846
3600.71644	0.22096
3599.75213	0.22337
3598.78783	0.22582
3597.82352	0.22829
3596.85922	0.23075
3595.89491	0.23341
3594.93061	0.23591
3593.9663	0.23833
3593.00199	0.24083
3592.03769	0.24317
3591.07338	0.24555
3590.10908	0.24829
3589.14477	0.25151
3588.18047	0.25438
3587.21616	0.25683
3586.25186	0.25919
3585.28755	0.26122
3584.32325	0.26346
3583.35894	0.26599
3582.39464	0.26852
3581.43033	0.27115
3580.46602	0.27386
3579.50172	0.27653
3578.53741	0.27904
3577.57311	0.28164
3576.6088	0.28423
3575.6445	0.28684
3574.68019	0.28954
3573.71589	0.29217
3572.75158	0.29479
3571.78728	0.29742
3570.82297	0.30008
3569.85866	0.30281
3568.89436	0.30598
3567.93005	0.30921
3566.96575	0.31192
3566.00144	0.31436
3565.03714	0.31661
3564.07283	0.31902
3563.10853	0.32167
3562.14422	0.32435
3561.17992	0.32709
3560.21561	0.32978
3559.2513	0.33239
3558.287	0.33501
3557.32269	0.3377
3556.35839	0.34042
3555.39408	0.34313
3554.42978	0.34589
3553.46547	0.34868
3552.50117	0.35149
3551.53686	0.35415
3550.57256	0.35673
3549.60825	0.35937
3548.64395	0.36214
3547.67964	0.36506
3546.71533	0.36789
3545.75103	0.37059
3544.78672	0.37325
3543.82242	0.37587
3542.85811	0.37843
3541.89381	0.38101
3540.9295	0.38369
3539.9652	0.3864
3539.00089	0.38907
3538.03659	0.39174
3537.07228	0.39454
3536.10797	0.39732
3535.14367	0.39992
3534.17936	0.40249
3533.21506	0.40511
3532.25075	0.40785
3531.28645	0.41062
3530.32214	0.41341
3529.35784	0.41615
3528.39353	0.41879
3527.42923	0.42142
3526.46492	0.42402
3525.50062	0.42663
3524.53631	0.42927
3523.572	0.43191
3522.6077	0.43446
3521.64339	0.43695
3520.67909	0.4395
3519.71478	0.44213
3518.75048	0.44482
3517.78617	0.44746
3516.82187	0.45001
3515.85756	0.45253
3514.89326	0.45509
3513.92895	0.45768
3512.96464	0.46024
3512.00034	0.46279
3511.03603	0.4653
3510.07173	0.46785
3509.10742	0.4704
3508.14312	0.47283
3507.17881	0.47532
3506.21451	0.47793
3505.2502	0.48047
3504.2859	0.48294
3503.32159	0.48537
3502.35729	0.48771
3501.39298	0.49006
3500.42867	0.4925
3499.46437	0.49493
3498.50006	0.49736
3497.53576	0.49976
3496.57145	0.50214
3495.60715	0.50454
3494.64284	0.5069
3493.67854	0.50922
3492.71423	0.51154
3491.74993	0.51388
3490.78562	0.51618
3489.82131	0.51848
3488.85701	0.52087
3487.8927	0.52313
3486.9284	0.52528
3485.96409	0.52747
3484.99979	0.5297
3484.03548	0.53196
3483.07118	0.53425
3482.10687	0.53653
3481.14257	0.53872
3480.17826	0.54077
3479.21396	0.54276
3478.24965	0.54482
3477.28534	0.54694
3476.32104	0.54911
3475.35673	0.55125
3474.39243	0.55329
3473.42812	0.55529
3472.46382	0.55732
3471.49951	0.55933
3470.53521	0.56134
3469.5709	0.56326
3468.6066	0.56515
3467.64229	0.5671
3466.67798	0.56904
3465.71368	0.57094
3464.74937	0.57282
3463.78507	0.57468
3462.82076	0.57656
3461.85646	0.57842
3460.89215	0.58019
3459.92785	0.58187
3458.96354	0.58361
3457.99924	0.5854
3457.03493	0.58712
3456.07063	0.58887
3455.10632	0.59055
3454.14201	0.59208
3453.17771	0.59367
3452.2134	0.59537
3451.2491	0.59705
3450.28479	0.59863
3449.32049	0.60017
3448.35618	0.60174
3447.39188	0.60328
3446.42757	0.60475
3445.46327	0.60616
3444.49896	0.6076
3443.53465	0.60903
3442.57035	0.6104
3441.60604	0.61171
3440.64174	0.61311
3439.67743	0.61457
3438.71313	0.61587
3437.74882	0.61703
3436.78452	0.61824
3435.82021	0.61951
3434.85591	0.6207
3433.8916	0.62192
3432.92729	0.62307
3431.96299	0.62417
3430.99868	0.62538
3430.03438	0.62647
3429.07007	0.62749
3428.10577	0.62854
3427.14146	0.62957
3426.17716	0.63061
3425.21285	0.63155
3424.24855	0.63244
3423.28424	0.63339
3422.31994	0.6343
3421.35563	0.63522
3420.39132	0.63613
3419.42702	0.63692
3418.46271	0.63767
3417.49841	0.63843
3416.5341	0.63917
3415.5698	0.63999
3414.60549	0.64078
3413.64119	0.64139
3412.67688	0.64194
3411.71258	0.64254
3410.74827	0.6432
3409.78396	0.64383
3408.81966	0.64438
3407.85535	0.64496
3406.89105	0.6455
3405.92674	0.64592
3404.96244	0.64633
3403.99813	0.64685
3403.03383	0.64742
3402.06952	0.6478
3401.10522	0.648
3400.14091	0.64821
3399.17661	0.64842
3398.2123	0.64876
3397.24799	0.64905
3396.28369	0.64923
3395.31938	0.64944
3394.35508	0.64968
3393.39077	0.64996
3392.42647	0.65005
3391.46216	0.64992
3390.49786	0.64994
3389.53355	0.65006
3388.56925	0.65015
3387.60494	0.65019
3386.64063	0.65019
3385.67633	0.65014
3384.71202	0.65011
3383.74772	0.65006
3382.78341	0.64988
3381.81911	0.64972
3380.8548	0.64953
3379.8905	0.64924
3378.92619	0.649
3377.96189	0.64881
3376.99758	0.6486
3376.03328	0.64832
3375.06897	0.64798
3374.10466	0.64764
3373.14036	0.64726
3372.17605	0.64686
3371.21175	0.64641
3370.24744	0.64591
3369.28314	0.64539
3368.31883	0.64494
3367.35453	0.64449
3366.39022	0.64392
3365.42592	0.64338
3364.46161	0.64278
3363.4973	0.64207
3362.533	0.64147
3361.56869	0.64079
3360.60439	0.64001
3359.64008	0.6392
3358.67578	0.63845
3357.71147	0.63771
3356.74717	0.6369
3355.78286	0.63617
3354.81856	0.63539
3353.85425	0.63451
3352.88995	0.63358
3351.92564	0.63265
3350.96133	0.63169
3349.99703	0.6307
3349.03272	0.62975
3348.06842	0.6288
3347.10411	0.62781
3346.13981	0.62681
3345.1755	0.62578
3344.2112	0.62472
3343.24689	0.62358
3342.28259	0.62241
3341.31828	0.62129
3340.35397	0.62025
3339.38967	0.61915
3338.42536	0.61789
3337.46106	0.61665
3336.49675	0.61554
3335.53245	0.61442
3334.56814	0.6132
3333.60384	0.61191
3332.63953	0.61054
3331.67523	0.6092
3330.71092	0.60795
3329.74661	0.6067
3328.78231	0.60538
3327.818	0.60398
3326.8537	0.60259
3325.88939	0.60117
3324.92509	0.59972
3323.96078	0.59834
3322.99648	0.59697
3322.03217	0.59553
3321.06787	0.59411
3320.10356	0.59268
3319.13926	0.59117
3318.17495	0.58965
3317.21064	0.58817
3316.24634	0.58673
3315.28203	0.58521
3314.31773	0.5837
3313.35342	0.58219
3312.38912	0.58056
3311.42481	0.57896
3310.46051	0.57745
3309.4962	0.57584
3308.5319	0.57423
3307.56759	0.57261
3306.60328	0.57101
3305.63898	0.56941
3304.67467	0.56777
3303.71037	0.5661
3302.74606	0.5644
3301.78176	0.56272
3300.81745	0.56107
3299.85315	0.5594
3298.88884	0.55773
3297.92454	0.55607
3296.96023	0.55433
3295.99593	0.55256
3295.03162	0.55078
3294.06731	0.54902
3293.10301	0.54727
3292.1387	0.54551
3291.1744	0.54373
3290.21009	0.54198
3289.24579	0.54023
3288.28148	0.53843
3287.31718	0.53663
3286.35287	0.53486
3285.38857	0.53306
3284.42426	0.53118
3283.45995	0.52933
3282.49565	0.52748
3281.53134	0.52563
3280.56704	0.52378
3279.60273	0.52194
3278.63843	0.52002
3277.67412	0.51808
3276.70982	0.5162
3275.74551	0.5143
3274.78121	0.51237
3273.8169	0.51049
3272.8526	0.50855
3271.88829	0.50654
3270.92398	0.50449
3269.95968	0.50246
3268.99537	0.50053
3268.03107	0.49859
3267.06676	0.49656
3266.10246	0.49456
3265.13815	0.49258
3264.17385	0.49054
3263.20954	0.48853
3262.24524	0.48655
3261.28093	0.4845
3260.31662	0.48238
3259.35232	0.48027
3258.38801	0.47817
3257.42371	0.47608
3256.4594	0.47399
3255.4951	0.4719
3254.53079	0.4698
3253.56649	0.46766
3252.60218	0.4655
3251.63788	0.46336
3250.67357	0.46125
3249.70927	0.45911
3248.74496	0.45694
3247.78065	0.45474
3246.81635	0.45248
3245.85204	0.45027
3244.88774	0.44812
3243.92343	0.44592
3242.95913	0.44364
3241.99482	0.44138
3241.03052	0.43914
3240.06621	0.43684
3239.10191	0.43457
3238.1376	0.43234
3237.17329	0.43008
3236.20899	0.42776
3235.24468	0.42544
3234.28038	0.42312
3233.31607	0.42078
3232.35177	0.41848
3231.38746	0.41621
3230.42316	0.41388
3229.45885	0.41153
3228.49455	0.40916
3227.53024	0.40678
3226.56594	0.40443
3225.60163	0.40208
3224.63732	0.3997
3223.67302	0.39729
3222.70871	0.39487
3221.74441	0.39247
3220.7801	0.39008
3219.8158	0.38772
3218.85149	0.38532
3217.88719	0.38291
3216.92288	0.38047
3215.95858	0.37804
3214.99427	0.37562
3214.02996	0.3732
3213.06566	0.37076
3212.10135	0.36829
3211.13705	0.36583
3210.17274	0.36339
3209.20844	0.36093
3208.24413	0.35841
3207.27983	0.35593
3206.31552	0.35349
3205.35122	0.35105
3204.38691	0.34859
3203.4226	0.3461
3202.4583	0.34362
3201.49399	0.34118
3200.52969	0.33875
3199.56538	0.33628
3198.60108	0.33381
3197.63677	0.33132
3196.67247	0.32881
3195.70816	0.32631
3194.74386	0.32386
3193.77955	0.32142
3192.81525	0.31896
3191.85094	0.31646
3190.88663	0.31397
3189.92233	0.31153
3188.95802	0.30909
3187.99372	0.30665
3187.02941	0.30421
3186.06511	0.30176
3185.1008	0.29932
3184.1365	0.29687
3183.17219	0.29445
3182.20789	0.29204
3181.24358	0.2896
3180.27927	0.28716
3179.31497	0.28475
3178.35066	0.28236
3177.38636	0.27997
3176.42205	0.27756
3175.45775	0.27515
3174.49344	0.27276
3173.52914	0.2704
3172.56483	0.26801
3171.60053	0.26563
3170.63622	0.2633
3169.67192	0.26098
3168.70761	0.25862
3167.7433	0.25624
3166.779	0.25388
3165.81469	0.25157
3164.85039	0.24927
3163.88608	0.24698
3162.92178	0.24465
3161.95747	0.24236
3160.99317	0.24007
3160.02886	0.23779
3159.06456	0.23554
3158.10025	0.23332
3157.13594	0.23109
3156.17164	0.22883
3155.20733	0.22657
3154.24303	0.22436
3153.27872	0.22219
3152.31442	0.22001
3151.35011	0.21782
3150.38581	0.21565
3149.4215	0.2135
3148.4572	0.21133
3147.49289	0.20918
3146.52859	0.20708
3145.56428	0.20498
3144.59997	0.20289
3143.63567	0.20079
3142.67136	0.19871
3141.70706	0.19665
3140.74275	0.19462
3139.77845	0.19259
3138.81414	0.19057
3137.84984	0.18855
3136.88553	0.18653
3135.92123	0.18452
3134.95692	0.18254
3133.99261	0.18063
3133.02831	0.17873
3132.064	0.1768
3131.0997	0.17485
3130.13539	0.17292
3129.17109	0.171
3128.20678	0.16912
3127.24248	0.16729
3126.27817	0.16544
3125.31387	0.16358
3124.34956	0.16173
3123.38526	0.15993
3122.42095	0.15816
3121.45664	0.15637
3120.49234	0.15459
3119.52803	0.15286
3118.56373	0.15109
3117.59942	0.14933
3116.63512	0.1476
3115.67081	0.14592
3114.70651	0.14424
3113.7422	0.14256
3112.7779	0.14088
3111.81359	0.13921
3110.84928	0.13757
3109.88498	0.13595
3108.92067	0.13437
3107.95637	0.1328
3106.99206	0.1312
3106.02776	0.12959
3105.06345	0.12801
3104.09915	0.12648
3103.13484	0.12499
3102.17054	0.1235
3101.20623	0.12199
3100.24193	0.12044
3099.27762	0.11892
3098.31331	0.11747
3097.34901	0.11608
3096.3847	0.11468
3095.4204	0.11325
3094.45609	0.11179
3093.49179	0.11037
3092.52748	0.10899
3091.56318	0.10763
3090.59887	0.10629
3089.63457	0.10494
3088.67026	0.10359
3087.70595	0.10227
3086.74165	0.10096
3085.77734	0.09968
3084.81304	0.09843
3083.84873	0.09718
3082.88443	0.09593
3081.92012	0.09467
3080.95582	0.09343
3079.99151	0.09224
3079.02721	0.09108
3078.0629	0.08991
3077.09859	0.08873
3076.13429	0.08756
3075.16998	0.08641
3074.20568	0.08528
3073.24137	0.08419
3072.27707	0.08313
3071.31276	0.08203
3070.34846	0.08092
3069.38415	0.07984
3068.41985	0.07881
3067.45554	0.07781
3066.49124	0.07683
3065.52693	0.07583
3064.56262	0.07485
3063.59832	0.07386
3062.63401	0.07288
3061.66971	0.07192
3060.7054	0.07099
3059.7411	0.0701
3058.77679	0.0692
3057.81249	0.0683
3056.84818	0.06743
3055.88388	0.06659
3054.91957	0.06577
3053.95526	0.06495
3052.99096	0.06414
3052.02665	0.06334
3051.06235	0.06256
3050.09804	0.06179
3049.13374	0.06106
3048.16943	0.06032
3047.20513	0.05959
3046.24082	0.0589
3045.27652	0.05823
3044.31221	0.05757
3043.34791	0.05691
3042.3836	0.05627
3041.41929	0.05567
3040.45499	0.05511
3039.49068	0.05453
3038.52638	0.05395
3037.56207	0.0534
3036.59777	0.05287
3035.63346	0.05239
3034.66916	0.05192
3033.70485	0.05147
3032.74055	0.05105
3031.77624	0.05065
3030.81193	0.05024
3029.84763	0.04984
3028.88332	0.04951
3027.91902	0.04921
3026.95471	0.04892
3025.99041	0.04864
3025.0261	0.04838
3024.0618	0.04818
3023.09749	0.04802
3022.13319	0.04792
3021.16888	0.04783
3020.20458	0.04775
3019.24027	0.0477
3018.27596	0.04773
3017.31166	0.04783
3016.34735	0.04798
3015.38305	0.04816
3014.41874	0.04837
3013.45444	0.04864
3012.49013	0.04899
3011.52583	0.04941
3010.56152	0.04995
3009.59722	0.05056
3008.63291	0.05122
3007.6686	0.05197
3006.7043	0.05283
3005.73999	0.05382
3004.77569	0.05494
3003.81138	0.05614
3002.84708	0.05745
3001.88277	0.05888
3000.91847	0.06046
2999.95416	0.06224
2998.98986	0.06418
2998.02555	0.06626
2997.06125	0.06847
2996.09694	0.07083
2995.13263	0.07338
2994.16833	0.07611
2993.20402	0.07902
2992.23972	0.08208
2991.27541	0.08529
2990.31111	0.08864
2989.3468	0.09214
2988.3825	0.09579
2987.41819	0.09958
2986.45389	0.1035
2985.48958	0.10747
2984.52527	0.11148
2983.56097	0.11553
2982.59666	0.11963
2981.63236	0.12376
2980.66805	0.12787
2979.70375	0.13191
2978.73944	0.13584
2977.77514	0.13968
2976.81083	0.14338
2975.84653	0.14692
2974.88222	0.15028
2973.91792	0.15342
2972.95361	0.15624
2971.9893	0.1587
2971.025	0.16081
2970.06069	0.16257
2969.09639	0.16393
2968.13208	0.16496
2967.16778	0.16564
2966.20347	0.16597
2965.23917	0.16604
2964.27486	0.16599
2963.31056	0.16586
2962.34625	0.16573
2961.38194	0.16571
2960.41764	0.16587
2959.45333	0.16631
2958.48903	0.16719
2957.52472	0.16859
2956.56042	0.17055
2955.59611	0.17306
2954.63181	0.17612
2953.6675	0.1797
2952.7032	0.18377
2951.73889	0.18831
2950.77458	0.19325
2949.81028	0.19852
2948.84597	0.20401
2947.88167	0.20965
2946.91736	0.21538
2945.95306	0.22119
2944.98875	0.22704
2944.02445	0.23285
2943.06014	0.23852
2942.09584	0.24403
2941.13153	0.24933
2940.16723	0.2544
2939.20292	0.25919
2938.23861	0.26368
2937.27431	0.26778
2936.31	0.27143
2935.3457	0.27459
2934.38139	0.2773
2933.41709	0.27953
2932.45278	0.28125
2931.48848	0.28243
2930.52417	0.28306
2929.55987	0.28315
2928.59556	0.28274
2927.63125	0.28185
2926.66695	0.28052
2925.70264	0.27876
2924.73834	0.27659
2923.77403	0.27406
2922.80973	0.27122
2921.84542	0.26817
2920.88112	0.26496
2919.91681	0.26164
2918.95251	0.25824
2917.9882	0.25478
2917.0239	0.25127
2916.05959	0.24777
2915.09528	0.24433
2914.13098	0.241
2913.16667	0.23782
2912.20237	0.23473
2911.23806	0.23173
2910.27376	0.22885
2909.30945	0.22612
2908.34515	0.22355
2907.38084	0.22104
2906.41654	0.21862
2905.45223	0.21629
2904.48792	0.21403
2903.52362	0.21184
2902.55931	0.20974
2901.59501	0.20772
2900.6307	0.20574
2899.6664	0.20375
2898.70209	0.20179
2897.73779	0.19987
2896.77348	0.198
2895.80918	0.1962
2894.84487	0.19444
2893.88057	0.19274
2892.91626	0.19107
2891.95195	0.18944
2890.98765	0.18789
2890.02334	0.18642
2889.05904	0.18503
2888.09473	0.18364
2887.13043	0.18227
2886.16612	0.18092
2885.20182	0.17956
2884.23751	0.17817
2883.27321	0.17675
2882.3089	0.17523
2881.34459	0.17358
2880.38029	0.17173
2879.41598	0.16977
2878.45168	0.1677
2877.48737	0.16549
2876.52307	0.16311
2875.55876	0.16054
2874.59446	0.1578
2873.63015	0.15493
2872.66585	0.15193
2871.70154	0.14882
2870.73724	0.14565
2869.77293	0.1424
2868.80862	0.13907
2867.84432	0.1357
2866.88001	0.13233
2865.91571	0.12899
2864.9514	0.12571
2863.9871	0.12247
2863.02279	0.1193
2862.05849	0.11619
2861.09418	0.11316
2860.12988	0.11021
2859.16557	0.10738
2858.20126	0.10465
2857.23696	0.102
2856.27265	0.09943
2855.30835	0.09695
2854.34404	0.09458
2853.37974	0.09233
2852.41543	0.0902
2851.45113	0.08817
2850.48682	0.08619
2849.52252	0.08423
2848.55821	0.08228
2847.59391	0.0804
2846.6296	0.07864
2845.66529	0.07698
2844.70099	0.07539
2843.73668	0.07388
2842.77238	0.07247
2841.80807	0.07114
2840.84377	0.06991
2839.87946	0.06877
2838.91516	0.06768
2837.95085	0.06662
2836.98655	0.0656
2836.02224	0.06463
2835.05793	0.06374
2834.09363	0.06292
2833.12932	0.06211
2832.16502	0.0613
2831.20071	0.06049
2830.23641	0.05973
2829.2721	0.05902
2828.3078	0.05833
2827.34349	0.05766
2826.37919	0.057
2825.41488	0.05632
2824.45057	0.05564
2823.48627	0.05499
2822.52196	0.05437
2821.55766	0.05377
2820.59335	0.05316
2819.62905	0.05253
2818.66474	0.05189
2817.70044	0.05125
2816.73613	0.05065
2815.77183	0.05009
2814.80752	0.04952
2813.84322	0.04895
2812.87891	0.04833
2811.9146	0.04773
2810.9503	0.04719
2809.98599	0.04668
2809.02169	0.04618
2808.05738	0.04564
2807.09308	0.04509
2806.12877	0.04455
2805.16447	0.04405
2804.20016	0.0436
2803.23586	0.04318
2802.27155	0.04272
2801.30724	0.04224
2800.34294	0.04177
2799.37863	0.04133
2798.41433	0.04094
2797.45002	0.04058
2796.48572	0.04019
2795.52141	0.03978
2794.55711	0.03938
2793.5928	0.03903
2792.6285	0.0387
2791.66419	0.03837
2790.69989	0.03806
2789.73558	0.03773
2788.77127	0.03741
2787.80697	0.03711
2786.84266	0.03684
2785.87836	0.03657
2784.91405	0.03632
2783.94975	0.03605
2782.98544	0.03578
2782.02114	0.03554
2781.05683	0.03529
2780.09253	0.03506
2779.12822	0.03482
2778.16391	0.03461
2777.19961	0.03441
2776.2353	0.03418
2775.271	0.03395
2774.30669	0.03375
2773.34239	0.03357
2772.37808	0.03339
2771.41378	0.03322
2770.44947	0.03303
2769.48517	0.03283
2768.52086	0.03266
2767.55656	0.03248
2766.59225	0.03231
2765.62794	0.03214
2764.66364	0.03197
2763.69933	0.0318
2762.73503	0.03161
2761.77072	0.03141
2760.80642	0.03126
2759.84211	0.0311
2758.87781	0.03093
2757.9135	0.03077
2756.9492	0.03058
2755.98489	0.0304
2755.02058	0.03023
2754.05628	0.03007
2753.09197	0.02991
2752.12767	0.02976
2751.16336	0.0296
2750.19906	0.0294
2749.23475	0.02921
2748.27045	0.02905
2747.30614	0.02891
2746.34184	0.02877
2745.37753	0.02861
2744.41323	0.02844
2743.44892	0.02825
2742.48461	0.0281
2741.52031	0.02798
2740.556	0.02787
2739.5917	0.02771
2738.62739	0.02753
2737.66309	0.02734
2736.69878	0.02718
2735.73448	0.02707
2734.77017	0.02695
2733.80587	0.02677
2732.84156	0.02658
2731.87725	0.02639
2730.91295	0.02622
2729.94864	0.02607
2728.98434	0.02592
2728.02003	0.02573
2727.05573	0.02552
2726.09142	0.02531
2725.12712	0.02512
2724.16281	0.02495
2723.19851	0.02476
2722.2342	0.02455
2721.2699	0.02433
2720.30559	0.0241
2719.34128	0.02389
2718.37698	0.0237
2717.41267	0.02353
2716.44837	0.02334
2715.48406	0.02313
2714.51976	0.02292
2713.55545	0.02275
2712.59115	0.02258
2711.62684	0.02243
2710.66254	0.02228
2709.69823	0.0221
2708.73392	0.02194
2707.76962	0.02179
2706.80531	0.02166
2705.84101	0.02155
2704.8767	0.02143
2703.9124	0.0213
2702.94809	0.02117
2701.98379	0.02105
2701.01948	0.02095
2700.05518	0.02087
2699.09087	0.02079
2698.12656	0.02071
2697.16226	0.02061
2696.19795	0.02052
2695.23365	0.02044
2694.26934	0.02038
2693.30504	0.02033
2692.34073	0.02026
2691.37643	0.02018
2690.41212	0.0201
2689.44782	0.02004
2688.48351	0.02
2687.51921	0.01997
2686.5549	0.01992
2685.59059	0.01986
2684.62629	0.01977
2683.66198	0.01972
2682.69768	0.01969
2681.73337	0.01964
2680.76907	0.01958
2679.80476	0.01952
2678.84046	0.01944
2677.87615	0.01936
2676.91185	0.01929
2675.94754	0.01922
2674.98323	0.01913
2674.01893	0.01904
2673.05462	0.01893
2672.09032	0.0188
2671.12601	0.01868
2670.16171	0.01858
2669.1974	0.01848
2668.2331	0.01835
2667.26879	0.01822
2666.30449	0.01807
2665.34018	0.0179
2664.37588	0.01774
2663.41157	0.01761
2662.44726	0.01748
2661.48296	0.01733
2660.51865	0.01713
2659.55435	0.01693
2658.59004	0.01676
2657.62574	0.01659
2656.66143	0.01645
2655.69713	0.0163
2654.73282	0.01611
2653.76852	0.01591
2652.80421	0.01572
2651.8399	0.01554
2650.8756	0.0154
2649.91129	0.01526
2648.94699	0.01506
2647.98268	0.01484
2647.01838	0.01465
2646.05407	0.0145
2645.08977	0.01436
2644.12546	0.01422
2643.16116	0.01402
2642.19685	0.0138
2641.23255	0.01359
2640.26824	0.01342
2639.30393	0.0133
2638.33963	0.01317
2637.37532	0.01301
2636.41102	0.0128
2635.44671	0.01261
2634.48241	0.01244
2633.5181	0.01232
2632.5538	0.01221
2631.58949	0.01207
2630.62519	0.01192
2629.66088	0.01173
2628.69657	0.01156
2627.73227	0.01143
2626.76796	0.01134
2625.80366	0.01123
2624.83935	0.01109
2623.87505	0.01093
2622.91074	0.01076
2621.94644	0.01062
2620.98213	0.01053
2620.01783	0.01045
2619.05352	0.01033
2618.08922	0.01018
2617.12491	0.01002
2616.1606	0.00988
2615.1963	0.00978
2614.23199	0.0097
2613.26769	0.00961
2612.30338	0.00949
2611.33908	0.00935
2610.37477	0.00922
2609.41047	0.00912
2608.44616	0.00907
2607.48186	0.00901
2606.51755	0.00891
2605.55324	0.0088
2604.58894	0.0087
2603.62463	0.00861
2602.66033	0.00853
2601.69602	0.0085
2600.73172	0.00847
2599.76741	0.00841
2598.80311	0.00834
2597.8388	0.00828
2596.8745	0.00824
2595.91019	0.00824
2594.94589	0.00825
2593.98158	0.00822
2593.01727	0.00816
2592.05297	0.00812
2591.08866	0.00811
2590.12436	0.00812
2589.16005	0.00813
2588.19575	0.00813
2587.23144	0.00807
2586.26714	0.008
2585.30283	0.00797
2584.33853	0.008
2583.37422	0.008
2582.40991	0.00798
2581.44561	0.00795
2580.4813	0.00789
2579.517	0.00784
2578.55269	0.00781
2577.58839	0.00779
2576.62408	0.00779
2575.65978	0.00776
2574.69547	0.0077
2573.73117	0.00763
2572.76686	0.00757
2571.80255	0.00754
2570.83825	0.00753
2569.87394	0.0075
2568.90964	0.00745
2567.94533	0.00739
2566.98103	0.00732
2566.01672	0.0073
2565.05242	0.0073
2564.08811	0.00728
2563.12381	0.00725
2562.1595	0.00721
2561.1952	0.00716
2560.23089	0.00714
2559.26658	0.00712
2558.30228	0.00714
2557.33797	0.00713
2556.37367	0.00707
2555.40936	0.00701
2554.44506	0.00697
2553.48075	0.00697
2552.51645	0.00699
2551.55214	0.00698
2550.58784	0.00695
2549.62353	0.00689
2548.65922	0.00686
2547.69492	0.00683
2546.73061	0.00684
2545.76631	0.00686
2544.802	0.00683
2543.8377	0.00677
2542.87339	0.00672
2541.90909	0.00671
2540.94478	0.00671
2539.98048	0.0067
2539.01617	0.00669
2538.05187	0.00663
2537.08756	0.00657
2536.12325	0.00655
2535.15895	0.00655
2534.19464	0.00654
2533.23034	0.00649
2532.26603	0.00644
2531.30173	0.00638
2530.33742	0.00636
2529.37312	0.00638
2528.40881	0.00638
2527.44451	0.00636
2526.4802	0.00632
2525.51589	0.00626
2524.55159	0.0062
2523.58728	0.0062
2522.62298	0.00623
2521.65867	0.00625
2520.69437	0.00623
2519.73006	0.00617
2518.76576	0.00614
2517.80145	0.00616
2516.83715	0.0062
2515.87284	0.00623
2514.90854	0.00621
2513.94423	0.00617
2512.97992	0.00616
2512.01562	0.00618
2511.05131	0.00621
2510.08701	0.00625
2509.1227	0.00624
2508.1584	0.00621
2507.19409	0.00619
2506.22979	0.00624
2505.26548	0.00627
2504.30118	0.00627
2503.33687	0.00628
2502.37256	0.00627
2501.40826	0.00624
2500.44395	0.00625
2499.47965	0.00628
2498.51534	0.00631
2497.55104	0.00632
2496.58673	0.0063
2495.62243	0.00626
2494.65812	0.00624
2493.69382	0.00627
2492.72951	0.00629
2491.76521	0.00628
2490.8009	0.00625
2489.83659	0.00621
2488.87229	0.00618
2487.90798	0.00617
2486.94368	0.00619
2485.97937	0.00619
2485.01507	0.00615
2484.05076	0.0061
2483.08646	0.00605
2482.12215	0.00603
2481.15785	0.00604
2480.19354	0.00602
2479.22923	0.00598
2478.26493	0.00593
2477.30062	0.00589
2476.33632	0.00589
2475.37201	0.00589
2474.40771	0.00586
2473.4434	0.00582
2472.4791	0.00578
2471.51479	0.00574
2470.55049	0.00573
2469.58618	0.00572
2468.62188	0.0057
2467.65757	0.00564
2466.69326	0.0056
2465.72896	0.00558
2464.76465	0.00557
2463.80035	0.00555
2462.83604	0.00551
2461.87174	0.00545
2460.90743	0.00542
2459.94313	0.00541
2458.97882	0.00537
2458.01452	0.00533
2457.05021	0.0053
2456.0859	0.00524
2455.1216	0.00519
2454.15729	0.00516
2453.19299	0.00513
2452.22868	0.00509
2451.26438	0.00502
2450.30007	0.00499
2449.33577	0.00494
2448.37146	0.00489
2447.40716	0.00485
2446.44285	0.0048
2445.47854	0.00473
2444.51424	0.00469
2443.54993	0.00464
2442.58563	0.0046
2441.62132	0.00456
2440.65702	0.0045
2439.69271	0.00445
2438.72841	0.0044
2437.7641	0.00436
2436.7998	0.00429
2435.83549	0.00422
2434.87119	0.00419
2433.90688	0.00415
2432.94257	0.00409
2431.97827	0.00402
2431.01396	0.00397
2430.04966	0.00391
2429.08535	0.00385
2428.12105	0.0038
2427.15674	0.00374
2426.19244	0.0037
2425.22813	0.00368
2424.26383	0.00368
2423.29952	0.00366
2422.33521	0.00362
2421.37091	0.00359
2420.4066	0.00357
2419.4423	0.00356
2418.47799	0.00355
2417.51369	0.00356
2416.54938	0.00354
2415.58508	0.00352
2414.62077	0.00352
2413.65647	0.0035
2412.69216	0.00349
2411.72786	0.0035
2410.76355	0.00348
2409.79924	0.00345
2408.83494	0.00345
2407.87063	0.00346
2406.90633	0.00345
2405.94202	0.00344
2404.97772	0.00343
2404.01341	0.00342
2403.04911	0.00344
2402.0848	0.00346
2401.1205	0.00346
2400.15619	0.00344
2399.19188	0.00342
2398.22758	0.00342
2397.26327	0.00343
2396.29897	0.00345
2395.33466	0.00348
2394.37036	0.00348
2393.40605	0.00346
2392.44175	0.00347
2391.47744	0.00349
2390.51314	0.00351
2389.54883	0.00352
2388.58453	0.00354
2387.62022	0.00355
2386.65591	0.00356
2385.69161	0.00358
2384.7273	0.00359
2383.763	0.00359
2382.79869	0.00359
2381.83439	0.0036
2380.87008	0.00363
2379.90578	0.00365
2378.94147	0.00365
2377.97717	0.00365
2377.01286	0.00368
2376.04855	0.00371
2375.08425	0.00373
2374.11994	0.00374
2373.15564	0.00374
2372.19133	0.00373
2371.22703	0.00373
2370.26272	0.00376
2369.29842	0.00379
2368.33411	0.00379
2367.36981	0.00376
2366.4055	0.00376
2365.4412	0.0038
2364.47689	0.00382
2363.51258	0.00383
2362.54828	0.00386
2361.58397	0.00384
2360.61967	0.00382
2359.65536	0.00383
2358.69106	0.00388
2357.72675	0.00391
2356.76245	0.0039
2355.79814	0.00391
2354.83384	0.00392
2353.86953	0.00393
2352.90522	0.00396
2351.94092	0.00395
2350.97661	0.00388
2350.01231	0.00381
2349.048	0.00375
2348.0837	0.00369
2347.11939	0.00364
2346.15509	0.0036
2345.19078	0.00355
2344.22648	0.00349
2343.26217	0.00344
2342.29786	0.00341
2341.33356	0.00339
2340.36925	0.00339
2339.40495	0.0034
2338.44064	0.00338
2337.47634	0.00332
2336.51203	0.00329
2335.54773	0.00327
2334.58342	0.00327
2333.61912	0.00327
2332.65481	0.00325
2331.69051	0.00319
2330.7262	0.00312
2329.76189	0.00311
2328.79759	0.00314
2327.83328	0.00313
2326.86898	0.00313
2325.90467	0.0031
2324.94037	0.00308
2323.97606	0.00308
2323.01176	0.00313
2322.04745	0.00316
2321.08315	0.00315
2320.11884	0.00313
2319.15453	0.00311
2318.19023	0.00312
2317.22592	0.00318
2316.26162	0.00323
2315.29731	0.00322
2314.33301	0.0032
2313.3687	0.00318
2312.4044	0.00318
2311.44009	0.00322
2310.47579	0.00327
2309.51148	0.00327
2308.54718	0.00324
2307.58287	0.0032
2306.61856	0.0032
2305.65426	0.00322
2304.68995	0.00326
2303.72565	0.00329
2302.76134	0.00328
2301.79704	0.00324
2300.83273	0.00322
2299.86843	0.00324
2298.90412	0.00327
2297.93982	0.00327
2296.97551	0.00325
2296.0112	0.00321
2295.0469	0.00318
2294.08259	0.00318
2293.11829	0.00322
2292.15398	0.00324
2291.18968	0.00324
2290.22537	0.00321
2289.26107	0.00315
2288.29676	0.00314
2287.33246	0.00317
2286.36815	0.00319
2285.40385	0.0032
2284.43954	0.00319
2283.47523	0.00316
2282.51093	0.00315
2281.54662	0.00317
2280.58232	0.00321
2279.61801	0.00325
2278.65371	0.00326
2277.6894	0.00325
2276.7251	0.00325
2275.76079	0.00329
2274.79649	0.00336
2273.83218	0.00342
2272.86787	0.00344
2271.90357	0.00344
2270.93926	0.00346
2269.97496	0.0035
2269.01065	0.00356
2268.04635	0.00365
2267.08204	0.00371
2266.11774	0.00372
2265.15343	0.00373
2264.18913	0.00376
2263.22482	0.00382
2262.26052	0.00391
2261.29621	0.00401
2260.3319	0.00405
2259.3676	0.00405
2258.40329	0.00407
2257.43899	0.00412
2256.47468	0.00419
2255.51038	0.00428
2254.54607	0.00434
2253.58177	0.00436
2252.61746	0.00436
2251.65316	0.00439
2250.68885	0.00446
2249.72454	0.00454
2248.76024	0.00461
2247.79593	0.00464
2246.83163	0.00464
2245.86732	0.00467
2244.90302	0.00474
2243.93871	0.00481
2242.97441	0.00489
2242.0101	0.00495
2241.0458	0.00496
2240.08149	0.00498
2239.11719	0.00503
2238.15288	0.00511
2237.18857	0.00518
2236.22427	0.00523
2235.25996	0.00525
2234.29566	0.00527
2233.33135	0.0053
2232.36705	0.00535
2231.40274	0.00542
2230.43844	0.00549
2229.47413	0.00554
2228.50983	0.00556
2227.54552	0.00558
2226.58121	0.00559
2225.61691	0.00566
2224.6526	0.00574
2223.6883	0.00581
2222.72399	0.00585
2221.75969	0.00587
2220.79538	0.00591
2219.83108	0.00597
2218.86677	0.00607
2217.90247	0.00617
2216.93816	0.00622
2215.97385	0.00624
2215.00955	0.00627
2214.04524	0.00634
2213.08094	0.00645
2212.11663	0.00658
2211.15233	0.00667
2210.18802	0.00671
2209.22372	0.00677
2208.25941	0.00685
2207.29511	0.00696
2206.3308	0.00711
2205.3665	0.00724
2204.40219	0.00732
2203.43788	0.00738
2202.47358	0.00747
2201.50927	0.00759
2200.54497	0.00773
2199.58066	0.00788
2198.61636	0.00799
2197.65205	0.00805
2196.68775	0.00812
2195.72344	0.00824
2194.75914	0.0084
2193.79483	0.00856
2192.83052	0.00868
2191.86622	0.00875
2190.90191	0.00879
2189.93761	0.00888
2188.9733	0.00902
2188.009	0.00918
2187.04469	0.0093
2186.08039	0.00936
2185.11608	0.0094
2184.15178	0.00946
2183.18747	0.00958
2182.22317	0.00973
2181.25886	0.00984
2180.29455	0.00989
2179.33025	0.00994
2178.36594	0.00998
2177.40164	0.01008
2176.43733	0.01021
2175.47303	0.01033
2174.50872	0.01039
2173.54442	0.01042
2172.58011	0.01046
2171.61581	0.01055
2170.6515	0.01068
2169.68719	0.01082
2168.72289	0.0109
2167.75858	0.01092
2166.79428	0.01094
2165.82997	0.011
2164.86567	0.0111
2163.90136	0.01122
2162.93706	0.01132
2161.97275	0.01134
2161.00845	0.01134
2160.04414	0.01139
2159.07984	0.01147
2158.11553	0.01155
2157.15122	0.01161
2156.18692	0.01163
2155.22261	0.01162
2154.25831	0.01161
2153.294	0.01166
2152.3297	0.01173
2151.36539	0.01178
2150.40109	0.01179
2149.43678	0.01175
2148.47248	0.0117
2147.50817	0.0117
2146.54386	0.01175
2145.57956	0.0118
2144.61525	0.0118
2143.65095	0.01174
2142.68664	0.01166
2141.72234	0.01162
2140.75803	0.01164
2139.79373	0.0117
2138.82942	0.01172
2137.86512	0.01166
2136.90081	0.01159
2135.93651	0.01154
2134.9722	0.01155
2134.00789	0.01162
2133.04359	0.01165
2132.07928	0.0116
2131.11498	0.01152
2130.15067	0.01147
2129.18637	0.01146
2128.22206	0.01149
2127.25776	0.01153
2126.29345	0.01153
2125.32915	0.01147
2124.36484	0.01141
2123.40053	0.01141
2122.43623	0.01146
2121.47192	0.01153
2120.50762	0.01155
2119.54331	0.0115
2118.57901	0.01142
2117.6147	0.01141
2116.6504	0.01146
2115.68609	0.01155
2114.72179	0.01158
2113.75748	0.01153
2112.79318	0.01145
2111.82887	0.01143
2110.86456	0.01148
2109.90026	0.01158
2108.93595	0.01164
2107.97165	0.01161
2107.00734	0.01154
2106.04304	0.01148
2105.07873	0.0115
2104.11443	0.01158
2103.15012	0.01166
2102.18582	0.01165
2101.22151	0.01158
2100.2572	0.01153
2099.2929	0.01153
2098.32859	0.01161
2097.36429	0.0117
2096.39998	0.01172
2095.43568	0.01164
2094.47137	0.01156
2093.50707	0.01156
2092.54276	0.01164
2091.57846	0.01173
2090.61415	0.0118
2089.64984	0.01175
2088.68554	0.01167
2087.72123	0.01165
2086.75693	0.01172
2085.79262	0.01181
2084.82832	0.01185
2083.86401	0.01181
2082.89971	0.0117
2081.9354	0.01166
2080.9711	0.01172
2080.00679	0.0118
2079.04249	0.01183
2078.07818	0.0118
2077.11387	0.01172
2076.14957	0.01165
2075.18526	0.01167
2074.22096	0.01175
2073.25665	0.01179
2072.29235	0.01177
2071.32804	0.01169
2070.36374	0.0116
2069.39943	0.01159
2068.43513	0.01166
2067.47082	0.01172
2066.50651	0.01171
2065.54221	0.01164
2064.5779	0.01155
2063.6136	0.01148
2062.64929	0.0115
2061.68499	0.01157
2060.72068	0.01158
2059.75638	0.01147
2058.79207	0.01132
2057.82777	0.01125
2056.86346	0.01125
2055.89916	0.01128
2054.93485	0.01125
2053.97054	0.01113
2053.00624	0.01097
2052.04193	0.01086
2051.07763	0.01083
2050.11332	0.01083
2049.14902	0.01076
2048.18471	0.01059
2047.22041	0.01038
2046.2561	0.01022
2045.2918	0.01016
2044.32749	0.01013
2043.36318	0.01003
2042.39888	0.00988
2041.43457	0.00967
2040.47027	0.00947
2039.50596	0.00934
2038.54166	0.00927
2037.57735	0.00915
2036.61305	0.00895
2035.64874	0.00873
2034.68444	0.00852
2033.72013	0.00834
2032.75583	0.00823
2031.79152	0.00811
2030.82721	0.00793
2029.86291	0.00769
2028.8986	0.00749
2027.9343	0.00733
2026.96999	0.00722
2026.00569	0.00711
2025.04138	0.00695
2024.07708	0.00676
2023.11277	0.00658
2022.14847	0.00644
2021.18416	0.00634
2020.21985	0.00625
2019.25555	0.00616
2018.29124	0.00603
2017.32694	0.00591
2016.36263	0.00579
2015.39833	0.00567
2014.43402	0.00559
2013.46972	0.0055
2012.50541	0.00538
2011.54111	0.00527
2010.5768	0.0052
2009.6125	0.00518
2008.64819	0.00516
2007.68388	0.00509
2006.71958	0.00499
2005.75527	0.00488
2004.79097	0.00481
2003.82666	0.0048
2002.86236	0.00479
2001.89805	0.00475
2000.93375	0.00466
1999.96944	0.00459
1999.00514	0.00458
1998.04083	0.00458
1997.07652	0.00456
1996.11222	0.00453
1995.14791	0.00448
1994.18361	0.00442
1993.2193	0.00448
1992.255	0.00465
1991.29069	0.0046
1990.32639	0.00441
1989.36208	0.00433
1988.39778	0.00431
1987.43347	0.00428
1986.46917	0.00427
1985.50486	0.00427
1984.54055	0.00423
1983.57625	0.00418
1982.61194	0.00413
1981.64764	0.00412
1980.68333	0.00416
1979.71903	0.0042
1978.75472	0.00417
1977.79042	0.00411
1976.82611	0.00409
1975.86181	0.00408
1974.8975	0.00411
1973.93319	0.00413
1972.96889	0.00412
1972.00458	0.00407
1971.04028	0.00403
1970.07597	0.00405
1969.11167	0.00411
1968.14736	0.00427
1967.18306	0.00437
1966.21875	0.00427
1965.25445	0.00414
1964.29014	0.00411
1963.32583	0.00417
1962.36153	0.00423
1961.39722	0.00426
1960.43292	0.00425
1959.46861	0.00417
1958.50431	0.00415
1957.54	0.00419
1956.5757	0.00428
1955.61139	0.00432
1954.64709	0.00428
1953.68278	0.00421
1952.71848	0.00417
1951.75417	0.00421
1950.78986	0.00427
1949.82556	0.00433
1948.86125	0.00429
1947.89695	0.0042
1946.93264	0.00416
1945.96834	0.00419
1945.00403	0.00425
1944.03973	0.00434
1943.07542	0.00453
1942.11112	0.00447
1941.14681	0.00416
1940.1825	0.00405
1939.2182	0.00409
1938.25389	0.00413
1937.28959	0.0041
1936.32528	0.00401
1935.36098	0.00392
1934.39667	0.00391
1933.43237	0.00399
1932.46806	0.00405
1931.50376	0.004
1930.53945	0.0039
1929.57515	0.00382
1928.61084	0.0038
1927.64653	0.00386
1926.68223	0.00392
1925.71792	0.00392
1924.75362	0.00387
1923.78931	0.00392
1922.82501	0.00399
1921.8607	0.0039
1920.8964	0.00384
1919.93209	0.00386
1918.96779	0.00413
1918.00348	0.00437
1917.03917	0.00404
1916.07487	0.00372
1915.11056	0.00376
1914.14626	0.00381
1913.18195	0.00379
1912.21765	0.00369
1911.25334	0.00365
1910.28904	0.00375
1909.32473	0.00385
1908.36043	0.00389
1907.39612	0.00385
1906.43182	0.00372
1905.46751	0.00361
1904.5032	0.00362
1903.5389	0.00369
1902.57459	0.00379
1901.61029	0.00381
1900.64598	0.00372
1899.68168	0.00361
1898.71737	0.00359
1897.75307	0.00366
1896.78876	0.00378
1895.82446	0.00392
1894.86015	0.00391
1893.89584	0.00371
1892.93154	0.00361
1891.96723	0.00365
1891.00293	0.00383
1890.03862	0.00415
1889.07432	0.00413
1888.11001	0.0038
1887.14571	0.00364
1886.1814	0.00365
1885.2171	0.00375
1884.25279	0.00383
1883.28849	0.00379
1882.32418	0.00372
1881.35987	0.00364
1880.39557	0.00362
1879.43126	0.00367
1878.46696	0.00375
1877.50265	0.00378
1876.53835	0.00372
1875.57404	0.00364
1874.60974	0.00359
1873.64543	0.00362
1872.68113	0.00369
1871.71682	0.00374
1870.75251	0.00387
1869.78821	0.0042
1868.8239	0.00431
1867.8596	0.0041
1866.89529	0.00393
1865.93099	0.00381
1864.96668	0.00367
1864.00238	0.00354
1863.03807	0.00345
1862.07377	0.00346
1861.10946	0.00351
1860.14516	0.00356
1859.18085	0.00356
1858.21654	0.00349
1857.25224	0.00337
1856.28793	0.00329
1855.32363	0.00334
1854.35932	0.0034
1853.39502	0.00343
1852.43071	0.00337
1851.46641	0.00328
1850.5021	0.00322
1849.5378	0.00328
1848.57349	0.00345
1847.60918	0.00354
1846.64488	0.0034
1845.68057	0.00352
1844.71627	0.0042
1843.75196	0.00423
1842.78766	0.00357
1841.82335	0.00332
1840.85905	0.00326
1839.89474	0.00317
1838.93044	0.00313
1837.96613	0.00318
1837.00182	0.0033
1836.03752	0.00327
1835.07321	0.00325
1834.10891	0.00322
1833.1446	0.00318
1832.1803	0.00316
1831.21599	0.00343
1830.25169	0.00402
1829.28738	0.00407
1828.32308	0.00361
1827.35877	0.00331
1826.39447	0.0035
1825.43016	0.00399
1824.46585	0.00393
1823.50155	0.00364
1822.53724	0.00359
1821.57294	0.00351
1820.60863	0.00345
1819.64433	0.0035
1818.68002	0.00369
1817.71572	0.0039
1816.75141	0.00392
1815.78711	0.00382
1814.8228	0.00375
1813.85849	0.00382
1812.89419	0.004
1811.92988	0.00427
1810.96558	0.00452
1810.00127	0.00445
1809.03697	0.00424
1808.07266	0.00426
1807.10836	0.00438
1806.14405	0.00445
1805.17975	0.00454
1804.21544	0.00457
1803.25114	0.00471
1802.28683	0.005
1801.32252	0.00514
1800.35822	0.00533
1799.39391	0.00542
1798.42961	0.00519
1797.4653	0.00508
1796.501	0.00527
1795.53669	0.00538
1794.57239	0.0054
1793.60808	0.00589
1792.64378	0.00644
1791.67947	0.00639
1790.71516	0.0061
1789.75086	0.00585
1788.78655	0.00577
1787.82225	0.00591
1786.85794	0.00602
1785.89364	0.00635
1784.92933	0.00667
1783.96503	0.00649
1783.00072	0.0063
1782.03642	0.00651
1781.07211	0.00693
1780.10781	0.00703
1779.1435	0.00677
1778.17919	0.00667
1777.21489	0.00674
1776.25058	0.00706
1775.28628	0.00724
1774.32197	0.00724
1773.35767	0.00774
1772.39336	0.00821
1771.42906	0.00813
1770.46475	0.00777
1769.50045	0.0078
1768.53614	0.00845
1767.57183	0.00845
1766.60753	0.0079
1765.64322	0.00779
1764.67892	0.00795
1763.71461	0.00816
1762.75031	0.00871
1761.786	0.00919
1760.8217	0.00895
1759.85739	0.00864
1758.89309	0.0088
1757.92878	0.00922
1756.96448	0.00976
1756.00017	0.00975
1755.03586	0.00947
1754.07156	0.00954
1753.10725	0.00978
1752.14295	0.01067
1751.17864	0.01148
1750.21434	0.01133
1749.25003	0.01125
1748.28573	0.0114
1747.32142	0.01134
1746.35712	0.01133
1745.39281	0.01143
1744.4285	0.01177
1743.4642	0.01214
1742.49989	0.01204
1741.53559	0.01193
1740.57128	0.01249
1739.60698	0.01302
1738.64267	0.01284
1737.67837	0.01276
1736.71406	0.01285
1735.74976	0.01341
1734.78545	0.0147
1733.82115	0.01522
1732.85684	0.01468
1731.89253	0.01425
1730.92823	0.01451
1729.96392	0.01492
1728.99962	0.01483
1728.03531	0.01484
1727.07101	0.01518
1726.1067	0.01552
1725.1424	0.01581
1724.17809	0.01615
1723.21379	0.01647
1722.24948	0.01668
1721.28517	0.01698
1720.32087	0.01752
1719.35656	0.0185
1718.39226	0.01948
1717.42795	0.01959
1716.46365	0.01946
1715.49934	0.01995
1714.53504	0.02059
1713.57073	0.02067
1712.60643	0.02064
1711.64212	0.02094
1710.67781	0.02149
1709.71351	0.02207
1708.7492	0.02251
1707.7849	0.0233
1706.82059	0.02428
1705.85629	0.02487
1704.89198	0.02533
1703.92768	0.0258
1702.96337	0.02623
1701.99907	0.02735
1701.03476	0.02949
1700.07046	0.03052
1699.10615	0.0299
1698.14184	0.02986
1697.17754	0.03099
1696.21323	0.03266
1695.24893	0.03356
1694.28462	0.03348
1693.32032	0.0339
1692.35601	0.03482
1691.39171	0.03596
1690.4274	0.03731
1689.4631	0.03849
1688.49879	0.03953
1687.53448	0.0404
1686.57018	0.04135
1685.60587	0.04311
1684.64157	0.04524
1683.67726	0.04664
1682.71296	0.04713
1681.74865	0.04768
1680.78435	0.04898
1679.82004	0.05034
1678.85574	0.05143
1677.89143	0.05262
1676.92713	0.05414
1675.96282	0.05626
1674.99851	0.05783
1674.03421	0.05828
1673.0699	0.05923
1672.1056	0.06104
1671.14129	0.06257
1670.17699	0.06399
1669.21268	0.06552
1668.24838	0.06629
1667.28407	0.06682
1666.31977	0.06789
1665.35546	0.06906
1664.39115	0.07033
1663.42685	0.07186
1662.46254	0.07309
1661.49824	0.07368
1660.53393	0.07439
1659.56963	0.07532
1658.60532	0.07617
1657.64102	0.07701
1656.67671	0.0777
1655.71241	0.07864
1654.7481	0.08006
1653.7838	0.08166
1652.81949	0.08244
1651.85518	0.08177
1650.89088	0.08104
1649.92657	0.08108
1648.96227	0.08173
1647.99796	0.08243
1647.03366	0.0827
1646.06935	0.08261
1645.10505	0.08197
1644.14074	0.08122
1643.17644	0.08089
1642.21213	0.08063
1641.24782	0.08031
1640.28352	0.07987
1639.31921	0.0793
1638.35491	0.07887
1637.3906	0.0784
1636.4263	0.07796
1635.46199	0.07764
1634.49769	0.0763
1633.53338	0.0745
1632.56908	0.07321
1631.60477	0.07198
1630.64047	0.07081
1629.67616	0.06965
1628.71185	0.06877
1627.74755	0.06771
1626.78324	0.06599
1625.81894	0.06429
1624.85463	0.06302
1623.89033	0.06215
1622.92602	0.06074
1621.96172	0.05879
1620.99741	0.05702
1620.03311	0.05537
1619.0688	0.05379
1618.10449	0.05253
1617.14019	0.05174
1616.17588	0.05036
1615.21158	0.04834
1614.24727	0.04666
1613.28297	0.04526
1612.31866	0.04399
1611.35436	0.04281
1610.39005	0.04179
1609.42575	0.04077
1608.46144	0.03956
1607.49714	0.03843
1606.53283	0.03741
1605.56852	0.03647
1604.60422	0.03568
1603.63991	0.03496
1602.67561	0.03414
1601.7113	0.03328
1600.747	0.03253
1599.78269	0.03191
1598.81839	0.03139
1597.85408	0.03087
1596.88978	0.03035
1595.92547	0.02979
1594.96116	0.02931
1593.99686	0.02892
1593.03255	0.02857
1592.06825	0.0283
1591.10394	0.02796
1590.13964	0.0276
1589.17533	0.02724
1588.21103	0.02699
1587.24672	0.02689
1586.28242	0.02684
1585.31811	0.0267
1584.3538	0.02645
1583.3895	0.02625
1582.42519	0.02614
1581.46089	0.02618
1580.49658	0.02625
1579.53228	0.02627
1578.56797	0.02619
1577.60367	0.0263
1576.63936	0.02684
1575.67506	0.02695
1574.71075	0.02655
1573.74645	0.02643
1572.78214	0.0264
1571.81783	0.02635
1570.85353	0.02671
1569.88922	0.0275
1568.92492	0.02764
1567.96061	0.0272
1566.99631	0.02702
1566.032	0.02717
1565.0677	0.0275
1564.10339	0.02754
1563.13909	0.0275
1562.17478	0.0277
1561.21047	0.02832
1560.24617	0.02932
1559.28186	0.0298
1558.31756	0.03017
1557.35325	0.03009
1556.38895	0.02922
1555.42464	0.02919
1554.46034	0.0297
1553.49603	0.02953
1552.53173	0.02924
1551.56742	0.02955
1550.60312	0.03036
1549.63881	0.03076
1548.6745	0.0305
1547.7102	0.03036
1546.74589	0.03071
1545.78159	0.03152
1544.81728	0.03213
1543.85298	0.03233
1542.88867	0.03304
1541.92437	0.03365
1540.96006	0.03364
1539.99576	0.03404
1539.03145	0.03447
1538.06714	0.03423
1537.10284	0.034
1536.13853	0.03421
1535.17423	0.0348
1534.20992	0.03579
1533.24562	0.03644
1532.28131	0.0364
1531.31701	0.03649
1530.3527	0.03675
1529.3884	0.03724
1528.42409	0.03801
1527.45979	0.03854
1526.49548	0.03913
1525.53117	0.03983
1524.56687	0.04014
1523.60256	0.04052
1522.63826	0.04155
1521.67395	0.04287
1520.70965	0.04361
1519.74534	0.04336
1518.78104	0.04333
1517.81673	0.04447
1516.85243	0.04538
1515.88812	0.04556
1514.92381	0.04586
1513.95951	0.04639
1512.9952	0.04744
1512.0309	0.04842
1511.06659	0.04897
1510.10229	0.04992
1509.13798	0.05106
1508.17368	0.0523
1507.20937	0.05367
1506.24507	0.05456
1505.28076	0.05488
1504.31646	0.05511
1503.35215	0.05586
1502.38784	0.05709
1501.42354	0.05839
1500.45923	0.05972
1499.49493	0.06148
1498.53062	0.06298
1497.56632	0.064
1496.60201	0.06567
1495.63771	0.0673
1494.6734	0.06857
1493.7091	0.07023
1492.74479	0.0721
1491.78048	0.07442
1490.81618	0.07719
1489.85187	0.07975
1488.88757	0.08196
1487.92326	0.08447
1486.95896	0.08723
1485.99465	0.08982
1485.03035	0.09274
1484.06604	0.09611
1483.10174	0.09976
1482.13743	0.10375
1481.17313	0.10776
1480.20882	0.11166
1479.24451	0.11577
1478.28021	0.12029
1477.3159	0.1254
1476.3516	0.1307
1475.38729	0.13527
1474.42299	0.13994
1473.45868	0.14523
1472.49438	0.15035
1471.53007	0.15502
1470.56577	0.15921
1469.60146	0.16341
1468.63715	0.16757
1467.67285	0.1713
1466.70854	0.1749
1465.74424	0.17855
1464.77993	0.18182
1463.81563	0.18387
1462.85132	0.18539
1461.88702	0.18685
1460.92271	0.18794
1459.95841	0.18906
1458.9941	0.18988
1458.02979	0.19036
1457.06549	0.19028
1456.10118	0.1888
1455.13688	0.18649
1454.17257	0.18444
1453.20827	0.18275
1452.24396	0.18109
1451.27966	0.17918
1450.31535	0.17707
1449.35105	0.17538
1448.38674	0.17423
1447.42244	0.17298
1446.45813	0.17162
1445.49382	0.17063
1444.52952	0.17005
1443.56521	0.16978
1442.60091	0.16999
1441.6366	0.17062
1440.6723	0.17157
1439.70799	0.17274
1438.74369	0.17407
1437.77938	0.17618
1436.81508	0.17867
1435.85077	0.18008
1434.88646	0.18112
1433.92216	0.1829
1432.95785	0.18479
1431.99355	0.18653
1431.02924	0.18845
1430.06494	0.19058
1429.10063	0.19248
1428.13633	0.19413
1427.17202	0.19587
1426.20772	0.19752
1425.24341	0.19928
1424.27911	0.2013
1423.3148	0.20298
1422.35049	0.20443
1421.38619	0.20594
1420.42188	0.20801
1419.45758	0.21013
1418.49327	0.21116
1417.52897	0.21185
1416.56466	0.21287
1415.60036	0.21375
1414.63605	0.21448
1413.67175	0.21507
1412.70744	0.21565
1411.74313	0.21622
1410.77883	0.21667
1409.81452	0.217
1408.85022	0.217
1407.88591	0.2167
1406.92161	0.21632
1405.9573	0.21613
1404.993	0.21588
1404.02869	0.21503
1403.06439	0.21389
1402.10008	0.21262
1401.13578	0.21114
1400.17147	0.20986
1399.20716	0.20868
1398.24286	0.20711
1397.27855	0.20544
1396.31425	0.20403
1395.34994	0.203
1394.38564	0.20206
1393.42133	0.20102
1392.45703	0.20047
1391.49272	0.20055
1390.52842	0.20082
1389.56411	0.2012
1388.5998	0.20196
1387.6355	0.203
1386.67119	0.20331
1385.70689	0.20314
1384.74258	0.20348
1383.77828	0.20481
1382.81397	0.20717
1381.84967	0.20975
1380.88536	0.21204
1379.92106	0.21391
1378.95675	0.21536
1377.99245	0.21644
1377.02814	0.21722
1376.06383	0.21817
1375.09953	0.2194
1374.13522	0.22064
1373.17092	0.22153
1372.20661	0.22215
1371.24231	0.22291
1370.278	0.2238
1369.3137	0.22482
1368.34939	0.22571
1367.38509	0.22621
1366.42078	0.22639
1365.45647	0.22614
1364.49217	0.22567
1363.52786	0.22507
1362.56356	0.22385
1361.59925	0.22198
1360.63495	0.21978
1359.67064	0.21735
1358.70634	0.21511
1357.74203	0.21314
1356.77773	0.21141
1355.81342	0.21011
1354.84911	0.20909
1353.88481	0.20822
1352.9205	0.20756
1351.9562	0.20718
1350.99189	0.20699
1350.02759	0.20686
1349.06328	0.20672
1348.09898	0.20658
1347.13467	0.20655
1346.17037	0.20666
1345.20606	0.20701
1344.24176	0.20768
1343.27745	0.20863
1342.31314	0.20979
1341.34884	0.21131
1340.38453	0.21317
1339.42023	0.21502
1338.45592	0.21674
1337.49162	0.21838
1336.52731	0.21988
1335.56301	0.221
1334.5987	0.22167
1333.6344	0.22198
1332.67009	0.22179
1331.70578	0.22108
1330.74148	0.21977
1329.77717	0.21792
1328.81287	0.21563
1327.84856	0.21302
1326.88426	0.21015
1325.91995	0.207
1324.95565	0.20365
1323.99134	0.20008
1323.02704	0.19635
1322.06273	0.19258
1321.09843	0.18878
1320.13412	0.185
1319.16981	0.18121
1318.20551	0.17739
1317.2412	0.17368
1316.2769	0.17018
1315.31259	0.16694
1314.34829	0.16408
1313.38398	0.1616
1312.41968	0.15948
1311.45537	0.15777
1310.49107	0.15654
1309.52676	0.15586
1308.56245	0.15573
1307.59815	0.15607
1306.63384	0.15685
1305.66954	0.15804
1304.70523	0.15953
1303.74093	0.16116
1302.77662	0.16297
1301.81232	0.16493
1300.84801	0.16691
1299.88371	0.16876
1298.9194	0.17031
1297.9551	0.17144
1296.99079	0.1721
1296.02648	0.17234
1295.06218	0.17209
1294.09787	0.17127
1293.13357	0.16985
1292.16926	0.16785
1291.20496	0.16534
1290.24065	0.16258
1289.27635	0.15974
1288.31204	0.1568
1287.34774	0.15371
1286.38343	0.15053
1285.41912	0.14753
1284.45482	0.14489
1283.49051	0.14265
1282.52621	0.14081
1281.5619	0.13925
1280.5976	0.1379
1279.63329	0.13681
1278.66899	0.13607
1277.70468	0.13573
1276.74038	0.13568
1275.77607	0.1358
1274.81177	0.13593
1273.84746	0.13609
1272.88315	0.13635
1271.91885	0.13677
1270.95454	0.13728
1269.99024	0.13782
1269.02593	0.13829
1268.06163	0.13859
1267.09732	0.13878
1266.13302	0.13903
1265.16871	0.13939
1264.20441	0.13974
1263.2401	0.13996
1262.27579	0.13998
1261.31149	0.13992
1260.34718	0.13992
1259.38288	0.14002
1258.41857	0.14024
1257.45427	0.14048
1256.48996	0.14067
1255.52566	0.14082
1254.56135	0.14106
1253.59705	0.14156
1252.63274	0.14224
1251.66844	0.14298
1250.70413	0.14362
1249.73982	0.14417
1248.77552	0.14463
1247.81121	0.14514
1246.84691	0.14575
1245.8826	0.14628
1244.9183	0.14654
1243.95399	0.14654
1242.98969	0.14631
1242.02538	0.14587
1241.06108	0.1453
1240.09677	0.14463
1239.13246	0.14367
1238.16816	0.14235
1237.20385	0.14075
1236.23955	0.139
1235.27524	0.13715
1234.31094	0.13536
1233.34663	0.13358
1232.38233	0.13162
1231.41802	0.12952
1230.45372	0.12747
1229.48941	0.12559
1228.5251	0.12393
1227.5608	0.12256
1226.59649	0.12143
1225.63219	0.1204
1224.66788	0.11953
1223.70358	0.11905
1222.73927	0.11912
1221.77497	0.11966
1220.81066	0.12059
1219.84636	0.12178
1218.88205	0.12312
1217.91775	0.12474
1216.95344	0.12678
1215.98913	0.12919
1215.02483	0.13173
1214.06052	0.13419
1213.09622	0.13648
1212.13191	0.13865
1211.16761	0.14083
1210.2033	0.14301
1209.239	0.14503
1208.27469	0.14669
1207.31039	0.14799
1206.34608	0.14902
1205.38177	0.14989
1204.41747	0.15079
1203.45316	0.15165
1202.48886	0.15231
1201.52455	0.15276
1200.56025	0.1531
1199.59594	0.15347
1198.63164	0.15399
1197.66733	0.15472
1196.70303	0.15562
1195.73872	0.15666
1194.77442	0.15787
1193.81011	0.1594
1192.8458	0.16138
1191.8815	0.16395
1190.91719	0.16714
1189.95289	0.1708
1188.98858	0.17487
1188.02428	0.17953
1187.05997	0.18483
1186.09567	0.19084
1185.13136	0.1977
1184.16706	0.20532
1183.20275	0.21351
1182.23844	0.22237
1181.27414	0.23211
1180.30983	0.24291
1179.34553	0.25468
1178.38122	0.26738
1177.41692	0.28096
1176.45261	0.29532
1175.48831	0.31055
1174.524	0.32679
1173.5597	0.34396
1172.59539	0.36191
1171.63109	0.3805
1170.66678	0.39958
1169.70247	0.41916
1168.73817	0.43932
1167.77386	0.46006
1166.80956	0.48121
1165.84525	0.50252
1164.88095	0.52392
1163.91664	0.54509
1162.95234	0.56587
1161.98803	0.58611
1161.02373	0.60535
1160.05942	0.62304
1159.09511	0.63869
1158.13081	0.65173
1157.1665	0.66173
1156.2022	0.66867
1155.23789	0.67233
1154.27359	0.67249
1153.30928	0.66907
1152.34498	0.66217
1151.38067	0.65227
1150.41637	0.63989
1149.45206	0.62558
1148.48776	0.60971
1147.52345	0.5927
1146.55914	0.57512
1145.59484	0.55765
1144.63053	0.54062
1143.66623	0.52441
1142.70192	0.50966
1141.73762	0.49655
1140.77331	0.48509
1139.80901	0.47534
1138.8447	0.46743
1137.8804	0.46148
1136.91609	0.45737
1135.95178	0.45491
1134.98748	0.45375
1134.02317	0.45356
1133.05887	0.45425
1132.09456	0.45588
1131.13026	0.45811
1130.16595	0.46054
1129.20165	0.46317
1128.23734	0.46567
1127.27304	0.46776
1126.30873	0.46958
1125.34443	0.47133
1124.38012	0.47287
1123.41581	0.47414
1122.45151	0.47526
1121.4872	0.47628
1120.5229	0.47734
1119.55859	0.47877
1118.59429	0.48087
1117.62998	0.48359
1116.66568	0.48672
1115.70137	0.49024
1114.73707	0.49423
1113.77276	0.49884
1112.80845	0.50409
1111.84415	0.50975
1110.87984	0.51534
1109.91554	0.52063
1108.95123	0.52562
1107.98693	0.53033
1107.02262	0.53481
1106.05832	0.53915
1105.09401	0.54304
1104.12971	0.54626
1103.1654	0.54917
1102.20109	0.55191
1101.23679	0.55488
1100.27248	0.55836
1099.30818	0.56208
1098.34387	0.56599
1097.37957	0.57008
1096.41526	0.5747
1095.45096	0.58011
1094.48665	0.58636
1093.52235	0.5935
1092.55804	0.60128
1091.59374	0.60955
1090.62943	0.61861
1089.66512	0.62896
1088.70082	0.64049
1087.73651	0.65284
1086.77221	0.66558
1085.8079	0.67836
1084.8436	0.69078
1083.87929	0.70244
1082.91499	0.71308
1081.95068	0.72174
1080.98638	0.72766
1080.02207	0.73018
1079.05776	0.72896
1078.09346	0.72396
1077.12915	0.71533
1076.16485	0.7041
1075.20054	0.69115
1074.23624	0.67773
1073.27193	0.6657
1072.30763	0.65678
1071.34332	0.65205
1070.37902	0.6523
1069.41471	0.65721
1068.45041	0.6656
1067.4861	0.67672
1066.52179	0.68972
1065.55749	0.70377
1064.59318	0.71811
1063.62888	0.73252
1062.66457	0.74658
1061.70027	0.7593
1060.73596	0.77095
1059.77166	0.78152
1058.80735	0.7912
1057.84305	0.80033
1056.87874	0.80883
1055.91443	0.81685
1054.95013	0.82424
1053.98582	0.83153
1053.02152	0.83929
1052.05721	0.8476
1051.09291	0.85648
1050.1286	0.86617
1049.1643	0.87639
1048.19999	0.8867
1047.23569	0.89728
1046.27138	0.90787
1045.30708	0.91839
1044.34277	0.92899
1043.37846	0.93974
1042.41416	0.94977
1041.44985	0.95861
1040.48555	0.96708
1039.52124	0.97525
1038.55694	0.98277
1037.59263	0.98879
1036.62833	0.9933
1035.66402	0.99663
1034.69972	0.99892
1033.73541	1
1032.7711	0.99908
1031.8068	0.99632
1030.84249	0.99137
1029.87819	0.98402
1028.91388	0.97487
1027.94958	0.96456
1026.98527	0.95303
1026.02097	0.93967
1025.05666	0.92465
1024.09236	0.90827
1023.12805	0.89147
1022.16375	0.87464
1021.19944	0.8576
1020.23513	0.84045
1019.27083	0.82309
1018.30652	0.80571
1017.34222	0.78892
1016.37791	0.77306
1015.41361	0.75795
1014.4493	0.74366
1013.485	0.73011
1012.52069	0.71721
1011.55639	0.70525
1010.59208	0.69417
1009.62777	0.68401
1008.66347	0.67455
1007.69916	0.66513
1006.73486	0.65538
1005.77055	0.6456
1004.80625	0.63586
1003.84194	0.62593
1002.87764	0.61586
1001.91333	0.60536
1000.94903	0.59388
999.98472	0.58113
999.02042	0.56729
998.05611	0.55235
997.0918	0.53614
996.1275	0.51858
995.16319	0.49955
994.19889	0.47934
993.23458	0.45857
992.27028	0.43806
991.30597	0.41826
990.34167	0.39908
989.37736	0.38062
988.41306	0.3629
987.44875	0.34602
986.48444	0.3302
985.52014	0.31555
984.55583	0.30193
983.59153	0.28892
982.62722	0.27627
981.66292	0.26416
980.69861	0.2528
979.73431	0.24225
978.77	0.23255
977.8057	0.22338
976.84139	0.21426
975.87708	0.20508
974.91278	0.19608
973.94847	0.18735
972.98417	0.17893
972.01986	0.1706
971.05556	0.16197
970.09125	0.15302
969.12695	0.14427
968.16264	0.13617
967.19834	0.12889
966.23403	0.12246
965.26973	0.11688
964.30542	0.11203
963.34111	0.10819
962.37681	0.10613
961.4125	0.10622
960.4482	0.1084
959.48389	0.11252
958.51959	0.11844
957.55528	0.12599
956.59098	0.13496
955.62667	0.14491
954.66237	0.15485
953.69806	0.16339
952.73375	0.16927
951.76945	0.17185
950.80514	0.1712
949.84084	0.16807
948.87653	0.16341
947.91223	0.15798
946.94792	0.15244
945.98362	0.14728
945.01931	0.14285
944.05501	0.13938
943.0907	0.13703
942.1264	0.13536
941.16209	0.13368
940.19778	0.13167
939.23348	0.12941
938.26917	0.12712
937.30487	0.12491
936.34056	0.12287
935.37626	0.1208
934.41195	0.11844
933.44765	0.11591
932.48334	0.11355
931.51904	0.11157
930.55473	0.11
929.59042	0.10871
928.62612	0.10708
927.66181	0.10488
926.69751	0.10231
925.7332	0.09956
924.7689	0.09663
923.80459	0.09336
922.84029	0.08962
921.87598	0.08522
920.91168	0.08029
919.94737	0.07538
918.98307	0.07084
918.01876	0.0666
917.05445	0.06246
916.09015	0.05829
915.12584	0.05397
914.16154	0.04987
913.19723	0.04625
912.23293	0.04308
911.26862	0.04026
910.30432	0.03752
909.34001	0.03484
908.37571	0.03239
907.4114	0.03049
906.44709	0.02917
905.48279	0.02804
904.51848	0.02672
903.55418	0.02511
902.58987	0.02325
901.62557	0.02121
900.66126	0.01934
899.69696	0.01763
898.73265	0.01574
897.76835	0.01367
896.80404	0.01166
895.83974	0.00994
894.87543	0.00868
893.91112	0.00806
892.94682	0.00781
891.98251	0.00752
891.01821	0.00696
890.0539	0.00621
889.0896	0.00547
888.12529	0.00484
887.16099	0.00435
886.19668	0.00373
885.23238	0.00288
884.26807	0.00215
883.30376	0.00195
882.33946	0.00243
881.37515	0.00352
880.41085	0.00498
879.44654	0.00661
878.48224	0.00836
877.51793	0.01054
876.55363	0.0134
875.58932	0.01687
874.62502	0.02067
873.66071	0.0246
872.69641	0.02843
871.7321	0.03223
870.76779	0.03634
869.80349	0.04087
868.83918	0.04561
867.87488	0.0502
866.91057	0.05439
865.94627	0.05823
864.98196	0.06205
864.01766	0.06614
863.05335	0.0703
862.08905	0.0742
861.12474	0.07753
860.16043	0.08018
859.19613	0.08239
858.23182	0.08454
857.26752	0.08661
856.30321	0.08818
855.33891	0.08892
854.3746	0.08886
853.4103	0.08831
852.44599	0.08767
851.48169	0.08722
850.51738	0.08686
849.55307	0.08627
848.58877	0.08523
847.62446	0.08397
846.66016	0.08289
845.69585	0.08218
844.73155	0.08161
843.76724	0.0807
842.80294	0.07899
841.83863	0.07655
840.87433	0.07373
839.91002	0.07079
838.94572	0.06764
837.98141	0.06393
837.0171	0.05934
836.0528	0.05387
835.08849	0.04796
834.12419	0.04215
833.15988	0.03684
832.19558	0.03205
831.23127	0.02745
830.26697	0.02287
829.30266	0.01871
828.33836	0.0155
827.37405	0.01324
826.40974	0.01171
825.44544	0.01051
824.48113	0.00913
823.51683	0.00745
822.55252	0.00597
821.58822	0.00515
820.62391	0.00485
819.65961	0.00451
818.6953	0.0037
817.731	0.0025
816.76669	0.00137
815.80239	8.50521E-4
814.83808	9.89995E-4
813.87377	0.00135
812.90947	0.00133
811.94516	7.76737E-4
810.98086	8.55085E-5
810.01655	0
809.05225	8.14423E-4
808.08794	0.00195
807.12364	0.00273
806.15933	0.00296
805.19503	0.003
804.23072	0.00334
803.26641	0.00448
802.30211	0.0062
801.3378	0.00768
800.3735	0.00842
799.40919	0.0086
798.44489	0.00886
797.48058	0.00964
796.51628	0.01086
795.55197	0.01184
794.58767	0.01204
793.62336	0.01164
792.65906	0.01129
791.69475	0.01169
790.73044	0.01286
789.76614	0.01445
788.80183	0.01579
787.83753	0.0165
786.87322	0.01712
785.90892	0.01834
784.94461	0.0202
783.98031	0.02215
783.016	0.02359
782.0517	0.02415
781.08739	0.02403
780.12308	0.02415
779.15878	0.02488
778.19447	0.02576
777.23017	0.02617
776.26586	0.02597
775.30156	0.02546
774.33725	0.0254
773.37295	0.02641
772.40864	0.02841
771.44434	0.03087
770.48003	0.03337
769.51573	0.03607
768.55142	0.03937
767.58711	0.04377
766.62281	0.04941
765.6585	0.05558
764.6942	0.06126
763.72989	0.06598
762.76559	0.07009
761.80128	0.07396
760.83698	0.07772
759.87267	0.08106
758.90837	0.08336
757.94406	0.08444
756.97975	0.08474
756.01545	0.08494
755.05114	0.0856
754.08684	0.08706
753.12253	0.08859
752.15823	0.08925
751.19392	0.08896
750.22962	0.08781
749.26531	0.08588
748.30101	0.08309
747.3367	0.07926
746.3724	0.07407
745.40809	0.0678
744.44378	0.06163
743.47948	0.05654
742.51517	0.05289
741.55087	0.05039
740.58656	0.04835
739.62226	0.04644
738.65795	0.04489
737.69365	0.04416
736.72934	0.04443
735.76504	0.0453
734.80073	0.0461
733.83642	0.04659
732.87212	0.04682
731.90781	0.04722
730.94351	0.04842
729.9792	0.05018
729.0149	0.05188
728.05059	0.05333
727.08629	0.05454
726.12198	0.05562
725.15768	0.05716
724.19337	0.05967
723.22906	0.06271
722.26476	0.06546
721.30045	0.06788
720.33615	0.07048
719.37184	0.07377
718.40754	0.07808
717.44323	0.08302
716.47893	0.0879
715.51462	0.09233
714.55032	0.09652
713.58601	0.10095
712.62171	0.10571
711.6574	0.11051
710.69309	0.11463
709.72879	0.11741
708.76448	0.11886
707.80018	0.11964
706.83587	0.11996
705.87157	0.11946
704.90726	0.11794
703.94296	0.11518
702.97865	0.11125
702.01435	0.10698
701.05004	0.10305
700.08573	0.09942
699.12143	0.09597
698.15712	0.09266
697.19282	0.0894
696.22851	0.08648
695.26421	0.08437
694.2999	0.08315
693.3356	0.08235
692.37129	0.08172
691.40699	0.08117
690.44268	0.08042
689.47838	0.07985
688.51407	0.08008
687.54976	0.08083
686.58546	0.08138
685.62115	0.08163
684.65685	0.08168
683.69254	0.08162
682.72824	0.08201
681.76393	0.08306
680.79963	0.08402
679.83532	0.08446
678.87102	0.08477
677.90671	0.08511
676.9424	0.08561
675.9781	0.08656
675.01379	0.08783
674.04949	0.08879
673.08518	0.08922
672.12088	0.08965
671.15657	0.09032
670.19227	0.09134
669.22796	0.09274
668.26366	0.09406
667.29935	0.0949
666.33505	0.09542
665.37074	0.09625
664.40643	0.09724
663.44213	0.09827
662.47782	0.0993
661.51352	0.09997
660.54921	0.10022
659.58491	0.1003
658.6206	0.10063
657.6563	0.1011
656.69199	0.10161
655.72769	0.10201
654.76338	0.1018
653.79907	0.10124
652.83477	0.10086
651.87046	0.10072
650.90616	0.10068
649.94185	0.10063
648.97755	0.10022
648.01324	0.09935
647.04894	0.0987
646.08463	0.09861
645.12033	0.0988
644.15602	0.09888
643.19172	0.09888
642.22741	0.09864
641.2631	0.09838
640.2988	0.09873
639.33449	0.09952
638.37019	0.10035
637.40588	0.10093
636.44158	0.10128
635.47727	0.10144
634.51297	0.10175
633.54866	0.10265
632.58436	0.10384
631.62005	0.10477
630.65574	0.10539
629.69144	0.10626
628.72713	0.10726
627.76283	0.10837
626.79852	0.11019
625.83422	0.11232
624.86991	0.11417
623.90561	0.11594
622.9413	0.11827
621.977	0.12118
621.01269	0.12479
620.04839	0.12912
619.08408	0.13344
618.11977	0.13754
617.15547	0.142
616.19116	0.14716
615.22686	0.15239
614.26255	0.1575
613.29825	0.16208
612.33394	0.16528
611.36964	0.16749
610.40533	0.16949
609.44103	0.17094
608.47672	0.17117
607.51241	0.17088
606.54811	0.17009
605.5838	0.1683
604.6195	0.16638
603.65519	0.16491
602.69089	0.16366
601.72658	0.16218
600.76228	0.16068
599.79797	0.15945
598.83367	0.15859
597.86936	0.15823
596.90505	0.15854
595.94075	0.15945
594.97644	0.16068
594.01214	0.16229
593.04783	0.16383
592.08353	0.16521
591.11922	0.16724
590.15492	0.1701
589.19061	0.17311
588.22631	0.17597
587.262	0.17884
586.2977	0.18169
585.33339	0.18486
584.36908	0.18867
583.40478	0.19284
582.44047	0.19634
581.47617	0.19923
580.51186	0.20237
579.54756	0.2055
578.58325	0.20834
577.61895	0.2105
576.65464	0.21184
575.69034	0.21206
574.72603	0.21124
573.76172	0.20961
572.79742	0.20666
571.83311	0.20279
570.86881	0.19794
569.9045	0.19172
568.9402	0.1844
567.97589	0.17688
567.01159	0.16983
566.04728	0.16297
565.08298	0.15669
564.11867	0.15137
563.15437	0.1466
562.19006	0.14214
561.22575	0.13846
560.26145	0.13592
559.29714	0.13431
558.33284	0.13304
557.36853	0.13148
556.40423	0.12992
555.43992	0.12866
554.47562	0.12789
553.51131	0.12753
552.54701	0.12715
551.5827	0.12661
550.61839	0.12561
549.65409	0.12429
548.68978	0.12346
547.72548	0.12334
546.76117	0.12307
545.79687	0.12247
544.83256	0.12188
543.86826	0.12117
542.90395	0.12069
541.93965	0.12064
540.97534	0.12094
540.01104	0.121
539.04673	0.1207
538.08242	0.12031
537.11812	0.11995
536.15381	0.12025
535.18951	0.12086
534.2252	0.12093
533.2609	0.1203
532.29659	0.11964
531.33229	0.11946
530.36798	0.11931
529.40368	0.11892
528.43937	0.11835
527.47506	0.1174
526.51076	0.11588
525.54645	0.11437
524.58215	0.11298
523.61784	0.1116
522.65354	0.11013
521.68923	0.10812
520.72493	0.10588
519.76062	0.10374
518.79632	0.10191
517.83201	0.10055
516.86771	0.0992
515.9034	0.09731
514.93909	0.09513
513.97479	0.09289
513.01048	0.0909
512.04618	0.08976
511.08187	0.08881
510.11757	0.08764
509.15326	0.08612
508.18896	0.08437
507.22465	0.08303
506.26035	0.0821
505.29604	0.08172
504.33173	0.08086
503.36743	0.07941
502.40312	0.07829
501.43882	0.07738
500.47451	0.07689
499.51021	0.07673
498.5459	0.07608
497.5816	0.07489
496.61729	0.07396
495.65299	0.07306
494.68868	0.07195
493.72438	0.0717
492.76007	0.07193
491.79576	0.07109
490.83146	0.06901
489.86715	0.06747
488.90285	0.06706
487.93854	0.06722
486.97424	0.06722
486.00993	0.06658
485.04563	0.06557
484.08132	0.06401
483.11702	0.06294
482.15271	0.0625
481.1884	0.06199
480.2241	0.06185
479.25979	0.06105
478.29549	0.05906
477.33118	0.05743
476.36688	0.05705
475.40257	0.05668
474.43827	0.0556
473.47396	0.05407
472.50966	0.0522
471.54535	0.05026
470.58104	0.04881
469.61674	0.04856
468.65243	0.04827
467.68813	0.04676
466.72382	0.04459
465.75952	0.04298
464.79521	0.04261
463.83091	0.04275
462.8666	0.04286
461.9023	0.04223
460.93799	0.04076
459.97369	0.03952
459.00938	0.0396
458.04507	0.04053
457.08077	0.04077
456.11646	0.03997
455.15216	0.03867
454.18785	0.03851
453.22355	0.03939
452.25924	0.04036
451.29494	0.04168
450.33063	0.04212
449.36633	0.04104
448.40202	0.0398
447.43771	0.03981
446.47341	0.0405
445.5091	0.04099
444.5448	0.0411
443.58049	0.04041
442.61619	0.03955
441.65188	0.03944
440.68758	0.03975
439.72327	0.03983
438.75897	0.03969
437.79466	0.03855
436.83036	0.0365
435.86605	0.03529
434.90174	0.03517
433.93744	0.03491
432.97313	0.03373
432.00883	0.032
431.04452	0.02982
430.08022	0.02759
429.11591	0.02655
428.15161	0.02685
427.1873	0.02626
426.223	0.0241
425.25869	0.02212
424.29438	0.02088
423.33008	0.02145
422.36577	0.02225
421.40147	0.02118
420.43716	0.01935
419.47286	0.01744
418.50855	0.0168
417.54425	0.01707
416.57994	0.01706
415.61564	0.01671
414.65133	0.01573
413.68703	0.01373
412.72272	0.01232
411.75841	0.013
410.79411	0.01345
409.8298	0.01327
408.8655	0.01188
407.90119	0.00918
406.93689	0.00769
405.97258	0.00773
405.00828	0.00905
404.04397	0.00964
403.07967	0.00862
402.11536	0.00686
401.15105	0.00523
400.18675	0.00493