3999.93888	0.00681
3998.97458	0.00685
3998.01027	0.00686
3997.04597	0.00687
3996.08166	0.00689
3995.11735	0.00688
3994.15305	0.00682
3993.18874	0.00683
3992.22444	0.00689
3991.26013	0.00691
3990.29583	0.00689
3989.33152	0.00687
3988.36722	0.00685
3987.40291	0.00685
3986.43861	0.00688
3985.4743	0.00689
3984.51	0.00691
3983.54569	0.00693
3982.58138	0.00691
3981.61708	0.00689
3980.65277	0.00686
3979.68847	0.00684
3978.72416	0.00685
3977.75986	0.00687
3976.79555	0.00685
3975.83125	0.00684
3974.86694	0.00678
3973.90264	0.00671
3972.93833	0.0067
3971.97402	0.00671
3971.00972	0.00666
3970.04541	0.00661
3969.08111	0.00658
3968.1168	0.00656
3967.1525	0.00652
3966.18819	0.00649
3965.22389	0.00648
3964.25958	0.00647
3963.29528	0.00647
3962.33097	0.00649
3961.36667	0.00646
3960.40236	0.00643
3959.43805	0.0064
3958.47375	0.00637
3957.50944	0.00635
3956.54514	0.00633
3955.58083	0.00633
3954.61653	0.0063
3953.65222	0.00628
3952.68792	0.00627
3951.72361	0.00626
3950.75931	0.00632
3949.795	0.00638
3948.83069	0.00636
3947.86639	0.00634
3946.90208	0.00627
3945.93778	0.00617
3944.97347	0.00614
3944.00917	0.00618
3943.04486	0.00633
3942.08056	0.00635
3941.11625	0.00621
3940.15195	0.00609
3939.18764	0.00607
3938.22333	0.0061
3937.25903	0.00608
3936.29472	0.00607
3935.33042	0.00611
3934.36611	0.00614
3933.40181	0.00624
3932.4375	0.00631
3931.4732	0.00621
3930.50889	0.00612
3929.54459	0.00608
3928.58028	0.00603
3927.61598	0.00596
3926.65167	0.00597
3925.68736	0.00609
3924.72306	0.00617
3923.75875	0.0061
3922.79445	0.00601
3921.83014	0.00594
3920.86584	0.006
3919.90153	0.00607
3918.93723	0.00603
3917.97292	0.00622
3917.00862	0.00636
3916.04431	0.00619
3915.08	0.00598
3914.1157	0.00591
3913.15139	0.00592
3912.18709	0.00594
3911.22278	0.00594
3910.25848	0.00588
3909.29417	0.00589
3908.32987	0.00594
3907.36556	0.00602
3906.40126	0.0062
3905.43695	0.00654
3904.47265	0.00692
3903.50834	0.00685
3902.54403	0.00681
3901.57973	0.00681
3900.61542	0.00666
3899.65112	0.00688
3898.68681	0.00679
3897.72251	0.00637
3896.7582	0.00622
3895.7939	0.00619
3894.82959	0.00626
3893.86529	0.00631
3892.90098	0.00653
3891.93667	0.00697
3890.97237	0.0071
3890.00806	0.00671
3889.04376	0.00646
3888.07945	0.0065
3887.11515	0.00689
3886.15084	0.00765
3885.18654	0.00763
3884.22223	0.00708
3883.25793	0.00686
3882.29362	0.00689
3881.32932	0.00728
3880.36501	0.00764
3879.4007	0.00747
3878.4364	0.00712
3877.47209	0.00703
3876.50779	0.00704
3875.54348	0.00732
3874.57918	0.0078
3873.61487	0.00781
3872.65057	0.00755
3871.68626	0.00767
3870.72196	0.00843
3869.75765	0.00887
3868.79334	0.00843
3867.82904	0.00793
3866.86473	0.00787
3865.90043	0.00834
3864.93612	0.00872
3863.97182	0.00851
3863.00751	0.00839
3862.04321	0.0086
3861.0789	0.00855
3860.1146	0.00832
3859.15029	0.00828
3858.18599	0.00844
3857.22168	0.0087
3856.25737	0.00883
3855.29307	0.0099
3854.32876	0.01135
3853.36446	0.01113
3852.40015	0.01046
3851.43585	0.00998
3850.47154	0.00937
3849.50724	0.00923
3848.54293	0.00916
3847.57863	0.00914
3846.61432	0.0092
3845.65001	0.00935
3844.68571	0.00971
3843.7214	0.00994
3842.7571	0.00991
3841.79279	0.00999
3840.82849	0.0103
3839.86418	0.01033
3838.89988	0.01073
3837.93557	0.01135
3836.97127	0.01101
3836.00696	0.01066
3835.04266	0.0108
3834.07835	0.01064
3833.11404	0.01066
3832.14974	0.01109
3831.18543	0.01117
3830.22113	0.0109
3829.25682	0.01083
3828.29252	0.01097
3827.32821	0.01129
3826.36391	0.01157
3825.3996	0.01165
3824.4353	0.01176
3823.47099	0.01201
3822.50668	0.01268
3821.54238	0.01352
3820.57807	0.01365
3819.61377	0.01327
3818.64946	0.01308
3817.68516	0.01341
3816.72085	0.01437
3815.75655	0.01483
3814.79224	0.01437
3813.82794	0.01417
3812.86363	0.01435
3811.89932	0.01454
3810.93502	0.01475
3809.97071	0.01492
3809.00641	0.0152
3808.0421	0.01593
3807.0778	0.01673
3806.11349	0.01664
3805.14919	0.01631
3804.18488	0.01648
3803.22058	0.01691
3802.25627	0.01786
3801.29197	0.01851
3800.32766	0.01818
3799.36335	0.01784
3798.39905	0.01798
3797.43474	0.01843
3796.47044	0.01883
3795.50613	0.01892
3794.54183	0.01894
3793.57752	0.01915
3792.61322	0.01939
3791.64891	0.01961
3790.68461	0.01985
3789.7203	0.02015
3788.75599	0.02044
3787.79169	0.02068
3786.82738	0.02096
3785.86308	0.02125
3784.89877	0.02159
3783.93447	0.02183
3782.97016	0.02204
3782.00586	0.02231
3781.04155	0.02265
3780.07725	0.02318
3779.11294	0.0235
3778.14864	0.02352
3777.18433	0.02367
3776.22002	0.02394
3775.25572	0.02424
3774.29141	0.02451
3773.32711	0.0248
3772.3628	0.0251
3771.3985	0.02556
3770.43419	0.02632
3769.46989	0.0267
3768.50558	0.02657
3767.54128	0.02664
3766.57697	0.02714
3765.61266	0.02763
3764.64836	0.02777
3763.68405	0.0279
3762.71975	0.02817
3761.75544	0.0285
3760.79114	0.02903
3759.82683	0.0296
3758.86253	0.02982
3757.89822	0.03002
3756.93392	0.03049
3755.96961	0.03074
3755.00531	0.03088
3754.041	0.0313
3753.07669	0.0324
3752.11239	0.03331
3751.14808	0.03325
3750.18378	0.03389
3749.21947	0.03457
3748.25517	0.03407
3747.29086	0.03379
3746.32656	0.03444
3745.36225	0.03633
3744.39795	0.03758
3743.43364	0.03661
3742.46933	0.03577
3741.50503	0.03597
3740.54072	0.03633
3739.57642	0.03676
3738.61211	0.03731
3737.64781	0.03817
3736.6835	0.03898
3735.7192	0.03943
3734.75489	0.03959
3733.79059	0.03967
3732.82628	0.04026
3731.86198	0.04078
3730.89767	0.04066
3729.93336	0.04072
3728.96906	0.0411
3728.00475	0.04169
3727.04045	0.04248
3726.07614	0.04297
3725.11184	0.04324
3724.14753	0.04359
3723.18323	0.04418
3722.21892	0.04483
3721.25462	0.04513
3720.29031	0.04546
3719.326	0.04603
3718.3617	0.0465
3717.39739	0.04688
3716.43309	0.04734
3715.46878	0.04796
3714.50448	0.04858
3713.54017	0.04938
3712.57587	0.05054
3711.61156	0.05111
3710.64726	0.05124
3709.68295	0.05188
3708.71865	0.05237
3707.75434	0.05264
3706.79003	0.05316
3705.82573	0.05378
3704.86142	0.0544
3703.89712	0.05501
3702.93281	0.05593
3701.96851	0.05698
3701.0042	0.05759
3700.0399	0.05797
3699.07559	0.05854
3698.11129	0.05931
3697.14698	0.06013
3696.18267	0.06101
3695.21837	0.06184
3694.25406	0.06269
3693.28976	0.06358
3692.32545	0.06474
3691.36115	0.06604
3690.39684	0.06695
3689.43254	0.06824
3688.46823	0.0697
3687.50393	0.07019
3686.53962	0.07053
3685.57531	0.07148
3684.61101	0.07265
3683.6467	0.0738
3682.6824	0.0749
3681.71809	0.076
3680.75379	0.07724
3679.78948	0.07854
3678.82518	0.07967
3677.86087	0.08079
3676.89657	0.08254
3675.93226	0.08451
3674.96796	0.08556
3674.00365	0.0859
3673.03934	0.08653
3672.07504	0.08802
3671.11073	0.08999
3670.14643	0.09134
3669.18212	0.09223
3668.21782	0.09322
3667.25351	0.09412
3666.28921	0.09527
3665.3249	0.09666
3664.3606	0.0981
3663.39629	0.09952
3662.43198	0.10089
3661.46768	0.10239
3660.50337	0.10388
3659.53907	0.10538
3658.57476	0.10691
3657.61046	0.10871
3656.64615	0.11078
3655.68185	0.11223
3654.71754	0.11334
3653.75324	0.11478
3652.78893	0.11656
3651.82463	0.11869
3650.86032	0.12081
3649.89601	0.12274
3648.93171	0.12438
3647.9674	0.12593
3647.0031	0.12761
3646.03879	0.12911
3645.07449	0.13061
3644.11018	0.13229
3643.14588	0.13413
3642.18157	0.13608
3641.21727	0.13799
3640.25296	0.13992
3639.28865	0.14191
3638.32435	0.1439
3637.36004	0.14586
3636.39574	0.14785
3635.43143	0.14997
3634.46713	0.15225
3633.50282	0.15444
3632.53852	0.15639
3631.57421	0.15854
3630.60991	0.16125
3629.6456	0.1643
3628.6813	0.16674
3627.71699	0.16839
3626.75268	0.17013
3625.78838	0.17224
3624.82407	0.17451
3623.85977	0.17682
3622.89546	0.1793
3621.93116	0.18187
3620.96685	0.18461
3620.00255	0.18747
3619.03824	0.19
3618.07394	0.19234
3617.10963	0.19474
3616.14532	0.19721
3615.18102	0.19997
3614.21671	0.20274
3613.25241	0.20555
3612.2881	0.20832
3611.3238	0.21077
3610.35949	0.21368
3609.39519	0.21689
3608.43088	0.21955
3607.46658	0.22211
3606.50227	0.22478
3605.53797	0.22744
3604.57366	0.23023
3603.60935	0.23311
3602.64505	0.23604
3601.68074	0.23898
3600.71644	0.24195
3599.75213	0.24489
3598.78783	0.24787
3597.82352	0.25084
3596.85922	0.2538
3595.89491	0.25686
3594.93061	0.25981
3593.9663	0.26276
3593.00199	0.26577
3592.03769	0.26871
3591.07338	0.27171
3590.10908	0.27494
3589.14477	0.27834
3588.18047	0.28146
3587.21616	0.28444
3586.25186	0.28745
3585.28755	0.29025
3584.32325	0.29318
3583.35894	0.29618
3582.39464	0.2992
3581.43033	0.30229
3580.46602	0.30539
3579.50172	0.30848
3578.53741	0.31155
3577.57311	0.31466
3576.6088	0.31773
3575.6445	0.32081
3574.68019	0.32394
3573.71589	0.32702
3572.75158	0.33009
3571.78728	0.33315
3570.82297	0.33622
3569.85866	0.33935
3568.89436	0.34273
3567.93005	0.34608
3566.96575	0.34912
3566.00144	0.35204
3565.03714	0.35488
3564.07283	0.35783
3563.10853	0.36084
3562.14422	0.36384
3561.17992	0.36695
3560.21561	0.3701
3559.2513	0.3732
3558.287	0.37617
3557.32269	0.37921
3556.35839	0.38234
3555.39408	0.38542
3554.42978	0.38853
3553.46547	0.39171
3552.50117	0.39488
3551.53686	0.39782
3550.57256	0.40073
3549.60825	0.40379
3548.64395	0.40697
3547.67964	0.4102
3546.71533	0.4133
3545.75103	0.41629
3544.78672	0.41932
3543.82242	0.42231
3542.85811	0.42524
3541.89381	0.42829
3540.9295	0.43143
3539.9652	0.43453
3539.00089	0.43758
3538.03659	0.44064
3537.07228	0.44373
3536.10797	0.4468
3535.14367	0.44982
3534.17936	0.45289
3533.21506	0.45596
3532.25075	0.45899
3531.28645	0.46203
3530.32214	0.46514
3529.35784	0.46826
3528.39353	0.47131
3527.42923	0.47435
3526.46492	0.47736
3525.50062	0.48029
3524.53631	0.48322
3523.572	0.48622
3522.6077	0.48923
3521.64339	0.49217
3520.67909	0.49516
3519.71478	0.49815
3518.75048	0.5011
3517.78617	0.50405
3516.82187	0.50696
3515.85756	0.50989
3514.89326	0.51282
3513.92895	0.51566
3512.96464	0.51854
3512.00034	0.52153
3511.03603	0.5245
3510.07173	0.52743
3509.10742	0.53033
3508.14312	0.53308
3507.17881	0.53591
3506.21451	0.53888
3505.2502	0.54177
3504.2859	0.54455
3503.32159	0.54726
3502.35729	0.54997
3501.39298	0.55277
3500.42867	0.55559
3499.46437	0.5584
3498.50006	0.56113
3497.53576	0.56377
3496.57145	0.56638
3495.60715	0.56905
3494.64284	0.57177
3493.67854	0.57445
3492.71423	0.5771
3491.74993	0.57976
3490.78562	0.58243
3489.82131	0.58512
3488.85701	0.58783
3487.8927	0.59042
3486.9284	0.59279
3485.96409	0.59525
3484.99979	0.59778
3484.03548	0.60027
3483.07118	0.60286
3482.10687	0.60544
3481.14257	0.60801
3480.17826	0.61053
3479.21396	0.61283
3478.24965	0.61513
3477.28534	0.61755
3476.32104	0.61993
3475.35673	0.6223
3474.39243	0.62474
3473.42812	0.62712
3472.46382	0.62939
3471.49951	0.63161
3470.53521	0.63387
3469.5709	0.63615
3468.6066	0.63845
3467.64229	0.6407
3466.67798	0.64281
3465.71368	0.64492
3464.74937	0.6471
3463.78507	0.64925
3462.82076	0.6513
3461.85646	0.65338
3460.89215	0.65552
3459.92785	0.65746
3458.96354	0.65933
3457.99924	0.66134
3457.03493	0.6634
3456.07063	0.66531
3455.10632	0.66707
3454.14201	0.66878
3453.17771	0.67059
3452.2134	0.67244
3451.2491	0.67414
3450.28479	0.67585
3449.32049	0.67757
3448.35618	0.67931
3447.39188	0.68112
3446.42757	0.68269
3445.46327	0.68411
3444.49896	0.6855
3443.53465	0.68688
3442.57035	0.68827
3441.60604	0.6896
3440.64174	0.69095
3439.67743	0.69236
3438.71313	0.69377
3437.74882	0.69507
3436.78452	0.69628
3435.82021	0.69738
3434.85591	0.69826
3433.8916	0.69923
3432.92729	0.70039
3431.96299	0.70142
3430.99868	0.70235
3430.03438	0.70319
3429.07007	0.70383
3428.10577	0.70457
3427.14146	0.70543
3426.17716	0.70625
3425.21285	0.70716
3424.24855	0.7079
3423.28424	0.70839
3422.31994	0.70886
3421.35563	0.70937
3420.39132	0.70999
3419.42702	0.71064
3418.46271	0.71122
3417.49841	0.71143
3416.5341	0.71143
3415.5698	0.71166
3414.60549	0.71205
3413.64119	0.7124
3412.67688	0.71263
3411.71258	0.71272
3410.74827	0.71281
3409.78396	0.71284
3408.81966	0.7128
3407.85535	0.71277
3406.89105	0.71284
3405.92674	0.71287
3404.96244	0.7128
3403.99813	0.71253
3403.03383	0.71232
3402.06952	0.71219
3401.10522	0.71197
3400.14091	0.71182
3399.17661	0.71155
3398.2123	0.71113
3397.24799	0.71087
3396.28369	0.71056
3395.31938	0.71008
3394.35508	0.70969
3393.39077	0.70932
3392.42647	0.70882
3391.46216	0.70813
3390.49786	0.70747
3389.53355	0.70699
3388.56925	0.70646
3387.60494	0.70574
3386.64063	0.70498
3385.67633	0.70413
3384.71202	0.70322
3383.74772	0.70236
3382.78341	0.70152
3381.81911	0.70064
3380.8548	0.6996
3379.8905	0.69849
3378.92619	0.69741
3377.96189	0.69625
3376.99758	0.69514
3376.03328	0.69417
3375.06897	0.69307
3374.10466	0.69178
3373.14036	0.69046
3372.17605	0.68915
3371.21175	0.68784
3370.24744	0.6864
3369.28314	0.68492
3368.31883	0.68352
3367.35453	0.68217
3366.39022	0.68071
3365.42592	0.6791
3364.46161	0.67757
3363.4973	0.67611
3362.533	0.67458
3361.56869	0.67293
3360.60439	0.67119
3359.64008	0.66952
3358.67578	0.66785
3357.71147	0.66615
3356.74717	0.66447
3355.78286	0.66274
3354.81856	0.661
3353.85425	0.65921
3352.88995	0.65743
3351.92564	0.65575
3350.96133	0.65405
3349.99703	0.65228
3349.03272	0.65044
3348.06842	0.64866
3347.10411	0.64697
3346.13981	0.64525
3345.1755	0.64336
3344.2112	0.64143
3343.24689	0.63955
3342.28259	0.63762
3341.31828	0.63567
3340.35397	0.63387
3339.38967	0.63218
3338.42536	0.63035
3337.46106	0.62841
3336.49675	0.62647
3335.53245	0.62457
3334.56814	0.62268
3333.60384	0.62071
3332.63953	0.61868
3331.67523	0.61674
3330.71092	0.61481
3329.74661	0.61278
3328.78231	0.61076
3327.818	0.60885
3326.8537	0.60692
3325.88939	0.60492
3324.92509	0.60293
3323.96078	0.60092
3322.99648	0.59891
3322.03217	0.59699
3321.06787	0.59504
3320.10356	0.59294
3319.13926	0.59084
3318.17495	0.58875
3317.21064	0.58669
3316.24634	0.58472
3315.28203	0.5828
3314.31773	0.58085
3313.35342	0.57882
3312.38912	0.57672
3311.42481	0.57461
3310.46051	0.5725
3309.4962	0.5705
3308.5319	0.56862
3307.56759	0.56661
3306.60328	0.5645
3305.63898	0.5624
3304.67467	0.56027
3303.71037	0.5582
3302.74606	0.55619
3301.78176	0.55417
3300.81745	0.55218
3299.85315	0.55019
3298.88884	0.54814
3297.92454	0.54608
3296.96023	0.54395
3295.99593	0.54183
3295.03162	0.53979
3294.06731	0.53771
3293.10301	0.5356
3292.1387	0.53346
3291.1744	0.5313
3290.21009	0.52925
3289.24579	0.52733
3288.28148	0.5253
3287.31718	0.52319
3286.35287	0.52105
3285.38857	0.51882
3284.42426	0.51673
3283.45995	0.5147
3282.49565	0.51258
3281.53134	0.51049
3280.56704	0.5084
3279.60273	0.50628
3278.63843	0.50416
3277.67412	0.50211
3276.70982	0.50004
3275.74551	0.49787
3274.78121	0.49569
3273.8169	0.4935
3272.8526	0.49132
3271.88829	0.48917
3270.92398	0.48703
3269.95968	0.48484
3268.99537	0.48261
3268.03107	0.48043
3267.06676	0.47828
3266.10246	0.47606
3265.13815	0.47387
3264.17385	0.47173
3263.20954	0.46959
3262.24524	0.46742
3261.28093	0.46515
3260.31662	0.46283
3259.35232	0.46054
3258.38801	0.4583
3257.42371	0.45608
3256.4594	0.45381
3255.4951	0.45148
3254.53079	0.4491
3253.56649	0.4467
3252.60218	0.44439
3251.63788	0.44213
3250.67357	0.43981
3249.70927	0.43743
3248.74496	0.43509
3247.78065	0.43272
3246.81635	0.43026
3245.85204	0.42786
3244.88774	0.42548
3243.92343	0.42306
3242.95913	0.42066
3241.99482	0.41824
3241.03052	0.41576
3240.06621	0.41332
3239.10191	0.4109
3238.1376	0.40843
3237.17329	0.406
3236.20899	0.40351
3235.24468	0.40102
3234.28038	0.39863
3233.31607	0.39622
3232.35177	0.39368
3231.38746	0.39114
3230.42316	0.38863
3229.45885	0.38609
3228.49455	0.38355
3227.53024	0.38105
3226.56594	0.37853
3225.60163	0.37603
3224.63732	0.37352
3223.67302	0.371
3222.70871	0.36847
3221.74441	0.36592
3220.7801	0.3634
3219.8158	0.36084
3218.85149	0.35824
3217.88719	0.35569
3216.92288	0.35317
3215.95858	0.35065
3214.99427	0.34813
3214.02996	0.34563
3213.06566	0.34308
3212.10135	0.34051
3211.13705	0.33796
3210.17274	0.33537
3209.20844	0.33281
3208.24413	0.33029
3207.27983	0.32773
3206.31552	0.32516
3205.35122	0.32264
3204.38691	0.32011
3203.4226	0.31758
3202.4583	0.31503
3201.49399	0.31248
3200.52969	0.30998
3199.56538	0.30748
3198.60108	0.30496
3197.63677	0.30239
3196.67247	0.29978
3195.70816	0.29725
3194.74386	0.29477
3193.77955	0.29229
3192.81525	0.28977
3191.85094	0.28725
3190.88663	0.28473
3189.92233	0.28221
3188.95802	0.27973
3187.99372	0.27726
3187.02941	0.27478
3186.06511	0.27235
3185.1008	0.26989
3184.1365	0.26741
3183.17219	0.26495
3182.20789	0.26254
3181.24358	0.26017
3180.27927	0.25777
3179.31497	0.25536
3178.35066	0.253
3177.38636	0.25063
3176.42205	0.24819
3175.45775	0.24583
3174.49344	0.24352
3173.52914	0.24117
3172.56483	0.2388
3171.60053	0.23644
3170.63622	0.23414
3169.67192	0.23186
3168.70761	0.22959
3167.7433	0.2273
3166.779	0.22499
3165.81469	0.22271
3164.85039	0.22049
3163.88608	0.21829
3162.92178	0.21607
3161.95747	0.21382
3160.99317	0.21158
3160.02886	0.20936
3159.06456	0.20717
3158.10025	0.20502
3157.13594	0.20293
3156.17164	0.20084
3155.20733	0.19871
3154.24303	0.19656
3153.27872	0.19445
3152.31442	0.19235
3151.35011	0.19028
3150.38581	0.18823
3149.4215	0.18617
3148.4572	0.1841
3147.49289	0.18208
3146.52859	0.18009
3145.56428	0.17812
3144.59997	0.17618
3143.63567	0.17422
3142.67136	0.17225
3141.70706	0.17032
3140.74275	0.1684
3139.77845	0.16649
3138.81414	0.16464
3137.84984	0.16279
3136.88553	0.16093
3135.92123	0.1591
3134.95692	0.1573
3133.99261	0.15552
3133.02831	0.15373
3132.064	0.15196
3131.0997	0.15021
3130.13539	0.14846
3129.17109	0.14666
3128.20678	0.14492
3127.24248	0.14325
3126.27817	0.14156
3125.31387	0.13987
3124.34956	0.13823
3123.38526	0.13661
3122.42095	0.13495
3121.45664	0.13332
3120.49234	0.13173
3119.52803	0.13016
3118.56373	0.12855
3117.59942	0.12697
3116.63512	0.12542
3115.67081	0.12389
3114.70651	0.12238
3113.7422	0.12091
3112.7779	0.11948
3111.81359	0.11801
3110.84928	0.11651
3109.88498	0.11502
3108.92067	0.11357
3107.95637	0.11217
3106.99206	0.11082
3106.02776	0.10948
3105.06345	0.10812
3104.09915	0.10669
3103.13484	0.1053
3102.17054	0.104
3101.20623	0.10272
3100.24193	0.10141
3099.27762	0.10009
3098.31331	0.09882
3097.34901	0.09755
3096.3847	0.09632
3095.4204	0.09509
3094.45609	0.09388
3093.49179	0.09271
3092.52748	0.09153
3091.56318	0.09033
3090.59887	0.08914
3089.63457	0.088
3088.67026	0.08692
3087.70595	0.08584
3086.74165	0.08472
3085.77734	0.08359
3084.81304	0.08249
3083.84873	0.08142
3082.88443	0.08041
3081.92012	0.07942
3080.95582	0.07841
3079.99151	0.07738
3079.02721	0.07636
3078.0629	0.07536
3077.09859	0.07441
3076.13429	0.07352
3075.16998	0.07264
3074.20568	0.0717
3073.24137	0.07075
3072.27707	0.06983
3071.31276	0.06896
3070.34846	0.06816
3069.38415	0.06736
3068.41985	0.06651
3067.45554	0.06569
3066.49124	0.06487
3065.52693	0.06409
3064.56262	0.06334
3063.59832	0.06261
3062.63401	0.06189
3061.66971	0.06118
3060.7054	0.06042
3059.7411	0.05966
3058.77679	0.05896
3057.81249	0.05834
3056.84818	0.05775
3055.88388	0.05712
3054.91957	0.05649
3053.95526	0.05586
3052.99096	0.05525
3052.02665	0.0547
3051.06235	0.0542
3050.09804	0.05372
3049.13374	0.05322
3048.16943	0.05267
3047.20513	0.05215
3046.24082	0.0517
3045.27652	0.05131
3044.31221	0.05093
3043.34791	0.0505
3042.3836	0.05009
3041.41929	0.04972
3040.45499	0.04942
3039.49068	0.04915
3038.52638	0.04889
3037.56207	0.04863
3036.59777	0.04836
3035.63346	0.04811
3034.66916	0.04792
3033.70485	0.04779
3032.74055	0.04768
3031.77624	0.04759
3030.81193	0.04753
3029.84763	0.04744
3028.88332	0.04737
3027.91902	0.0474
3026.95471	0.0475
3025.99041	0.04765
3025.0261	0.04782
3024.0618	0.04798
3023.09749	0.04817
3022.13319	0.04844
3021.16888	0.0488
3020.20458	0.04925
3019.24027	0.04975
3018.27596	0.05028
3017.31166	0.05086
3016.34735	0.05149
3015.38305	0.05225
3014.41874	0.05314
3013.45444	0.05413
3012.49013	0.05522
3011.52583	0.05636
3010.56152	0.05757
3009.59722	0.05892
3008.63291	0.06047
3007.6686	0.0622
3006.7043	0.06407
3005.73999	0.06606
3004.77569	0.06819
3003.81138	0.07049
3002.84708	0.07301
3001.88277	0.07581
3000.91847	0.07879
2999.95416	0.08193
2998.98986	0.08526
2998.02555	0.08882
2997.06125	0.09266
2996.09694	0.09676
2995.13263	0.1011
2994.16833	0.10562
2993.20402	0.11034
2992.23972	0.11526
2991.27541	0.12036
2990.31111	0.12568
2989.3468	0.13118
2988.3825	0.13681
2987.41819	0.14257
2986.45389	0.14834
2985.48958	0.15418
2984.52527	0.16006
2983.56097	0.1659
2982.59666	0.17169
2981.63236	0.17739
2980.66805	0.1829
2979.70375	0.18823
2978.73944	0.19331
2977.77514	0.19816
2976.81083	0.20276
2975.84653	0.20697
2974.88222	0.21067
2973.91792	0.21381
2972.95361	0.21638
2971.9893	0.21834
2971.025	0.21968
2970.06069	0.22034
2969.09639	0.22024
2968.13208	0.21943
2967.16778	0.21797
2966.20347	0.21596
2965.23917	0.21356
2964.27486	0.21088
2963.31056	0.20809
2962.34625	0.20533
2961.38194	0.2028
2960.41764	0.20074
2959.45333	0.19937
2958.48903	0.19883
2957.52472	0.1991
2956.56042	0.20016
2955.59611	0.202
2954.63181	0.20459
2953.6675	0.20787
2952.7032	0.21177
2951.73889	0.21619
2950.77458	0.22105
2949.81028	0.22621
2948.84597	0.23157
2947.88167	0.23713
2946.91736	0.2429
2945.95306	0.24884
2944.98875	0.25482
2944.02445	0.26073
2943.06014	0.26657
2942.09584	0.2723
2941.13153	0.27786
2940.16723	0.28324
2939.20292	0.28839
2938.23861	0.29316
2937.27431	0.29747
2936.31	0.30132
2935.3457	0.30463
2934.38139	0.30741
2933.41709	0.30967
2932.45278	0.31135
2931.48848	0.31243
2930.52417	0.31295
2929.55987	0.31295
2928.59556	0.31245
2927.63125	0.31152
2926.66695	0.31025
2925.70264	0.3086
2924.73834	0.30658
2923.77403	0.30425
2922.80973	0.30168
2921.84542	0.29891
2920.88112	0.29596
2919.91681	0.29281
2918.95251	0.2895
2917.9882	0.28614
2917.0239	0.28274
2916.05959	0.27931
2915.09528	0.27602
2914.13098	0.27289
2913.16667	0.26984
2912.20237	0.26685
2911.23806	0.26401
2910.27376	0.26134
2909.30945	0.25885
2908.34515	0.25656
2907.38084	0.25443
2906.41654	0.2524
2905.45223	0.25043
2904.48792	0.24854
2903.52362	0.2468
2902.55931	0.24524
2901.59501	0.24375
2900.6307	0.24227
2899.6664	0.24077
2898.70209	0.23927
2897.73779	0.23782
2896.77348	0.23644
2895.80918	0.23511
2894.84487	0.23382
2893.88057	0.23254
2892.91626	0.2312
2891.95195	0.22983
2890.98765	0.2286
2890.02334	0.22748
2889.05904	0.22635
2888.09473	0.22519
2887.13043	0.22397
2886.16612	0.2227
2885.20182	0.22142
2884.23751	0.22019
2883.27321	0.21889
2882.3089	0.2174
2881.34459	0.21572
2880.38029	0.21383
2879.41598	0.21172
2878.45168	0.20945
2877.48737	0.20702
2876.52307	0.20432
2875.55876	0.20132
2874.59446	0.19809
2873.63015	0.19465
2872.66585	0.191
2871.70154	0.18719
2870.73724	0.18327
2869.77293	0.17924
2868.80862	0.17507
2867.84432	0.17078
2866.88001	0.16645
2865.91571	0.16215
2864.9514	0.15793
2863.9871	0.1537
2863.02279	0.14946
2862.05849	0.14526
2861.09418	0.14115
2860.12988	0.13715
2859.16557	0.13324
2858.20126	0.12946
2857.23696	0.1258
2856.27265	0.12216
2855.30835	0.11856
2854.34404	0.11505
2853.37974	0.11171
2852.41543	0.10852
2851.45113	0.10543
2850.48682	0.1024
2849.52252	0.09945
2848.55821	0.09667
2847.59391	0.09413
2846.6296	0.09176
2845.66529	0.08954
2844.70099	0.08739
2843.73668	0.08528
2842.77238	0.08321
2841.80807	0.08128
2840.84377	0.07953
2839.87946	0.0779
2838.91516	0.07633
2837.95085	0.07478
2836.98655	0.07328
2836.02224	0.0719
2835.05793	0.07063
2834.09363	0.06947
2833.12932	0.06834
2832.16502	0.06726
2831.20071	0.06617
2830.23641	0.06509
2829.2721	0.06409
2828.3078	0.0632
2827.34349	0.06237
2826.37919	0.0615
2825.41488	0.06062
2824.45057	0.05973
2823.48627	0.05886
2822.52196	0.05804
2821.55766	0.05731
2820.59335	0.0566
2819.62905	0.05583
2818.66474	0.05501
2817.70044	0.05417
2816.73613	0.05338
2815.77183	0.05269
2814.80752	0.05206
2813.84322	0.05138
2812.87891	0.05062
2811.9146	0.04984
2810.9503	0.04913
2809.98599	0.04848
2809.02169	0.04789
2808.05738	0.04729
2807.09308	0.04664
2806.12877	0.04599
2805.16447	0.04535
2804.20016	0.04476
2803.23586	0.04424
2802.27155	0.04375
2801.30724	0.04323
2800.34294	0.04267
2799.37863	0.04211
2798.41433	0.0416
2797.45002	0.04112
2796.48572	0.04071
2795.52141	0.04029
2794.55711	0.03986
2793.5928	0.0394
2792.6285	0.03896
2791.66419	0.03857
2790.69989	0.03823
2789.73558	0.03795
2788.77127	0.03764
2787.80697	0.03728
2786.84266	0.03691
2785.87836	0.03655
2784.91405	0.03629
2783.94975	0.03607
2782.98544	0.03582
2782.02114	0.03554
2781.05683	0.03526
2780.09253	0.03501
2779.12822	0.03479
2778.16391	0.03461
2777.19961	0.03446
2776.2353	0.03427
2775.271	0.03405
2774.30669	0.03382
2773.34239	0.03364
2772.37808	0.0335
2771.41378	0.03342
2770.44947	0.0333
2769.48517	0.03312
2768.52086	0.03291
2767.55656	0.03273
2766.59225	0.03262
2765.62794	0.03251
2764.66364	0.03239
2763.69933	0.03224
2762.73503	0.03204
2761.77072	0.03184
2760.80642	0.0317
2759.84211	0.03158
2758.87781	0.03144
2757.9135	0.03127
2756.9492	0.03104
2755.98489	0.03084
2755.02058	0.03067
2754.05628	0.03052
2753.09197	0.03037
2752.12767	0.03021
2751.16336	0.03004
2750.19906	0.02986
2749.23475	0.0297
2748.27045	0.02954
2747.30614	0.0294
2746.34184	0.02928
2745.37753	0.02916
2744.41323	0.029
2743.44892	0.02884
2742.48461	0.02869
2741.52031	0.02856
2740.556	0.02847
2739.5917	0.02839
2738.62739	0.02828
2737.66309	0.02814
2736.69878	0.02799
2735.73448	0.02786
2734.77017	0.02776
2733.80587	0.02765
2732.84156	0.02753
2731.87725	0.02737
2730.91295	0.02717
2729.94864	0.02702
2728.98434	0.02689
2728.02003	0.02676
2727.05573	0.0266
2726.09142	0.02639
2725.12712	0.02615
2724.16281	0.02594
2723.19851	0.02575
2722.2342	0.0256
2721.2699	0.02545
2720.30559	0.02524
2719.34128	0.02498
2718.37698	0.02471
2717.41267	0.0245
2716.44837	0.02431
2715.48406	0.02414
2714.51976	0.02398
2713.55545	0.02377
2712.59115	0.02356
2711.62684	0.02336
2710.66254	0.0232
2709.69823	0.02307
2708.73392	0.0229
2707.76962	0.02269
2706.80531	0.02251
2705.84101	0.02235
2704.8767	0.02224
2703.9124	0.02213
2702.94809	0.022
2701.98379	0.02187
2701.01948	0.02176
2700.05518	0.02162
2699.09087	0.02149
2698.12656	0.02138
2697.16226	0.02128
2696.19795	0.02117
2695.23365	0.02107
2694.26934	0.02098
2693.30504	0.02088
2692.34073	0.02077
2691.37643	0.0207
2690.41212	0.02066
2689.44782	0.02063
2688.48351	0.02056
2687.51921	0.02047
2686.5549	0.02038
2685.59059	0.02031
2684.62629	0.02028
2683.66198	0.02024
2682.69768	0.02015
2681.73337	0.02006
2680.76907	0.01997
2679.80476	0.0199
2678.84046	0.01986
2677.87615	0.01981
2676.91185	0.01974
2675.94754	0.01965
2674.98323	0.01953
2674.01893	0.01944
2673.05462	0.01934
2672.09032	0.01926
2671.12601	0.01915
2670.16171	0.01898
2669.1974	0.01881
2668.2331	0.01867
2667.26879	0.01854
2666.30449	0.01842
2665.34018	0.0183
2664.37588	0.01813
2663.41157	0.01794
2662.44726	0.01775
2661.48296	0.01758
2660.51865	0.01741
2659.55435	0.01721
2658.59004	0.01699
2657.62574	0.01679
2656.66143	0.0166
2655.69713	0.01642
2654.73282	0.01623
2653.76852	0.01603
2652.80421	0.01581
2651.8399	0.01562
2650.8756	0.01545
2649.91129	0.01528
2648.94699	0.01508
2647.98268	0.01486
2647.01838	0.01467
2646.05407	0.01449
2645.08977	0.01434
2644.12546	0.01416
2643.16116	0.01395
2642.19685	0.01375
2641.23255	0.01357
2640.26824	0.01344
2639.30393	0.01335
2638.33963	0.01322
2637.37532	0.01302
2636.41102	0.01282
2635.44671	0.01267
2634.48241	0.01254
2633.5181	0.01243
2632.5538	0.01228
2631.58949	0.0121
2630.62519	0.01193
2629.66088	0.01181
2628.69657	0.01174
2627.73227	0.01163
2626.76796	0.01148
2625.80366	0.01133
2624.83935	0.0112
2623.87505	0.01109
2622.91074	0.01099
2621.94644	0.01085
2620.98213	0.01071
2620.01783	0.01056
2619.05352	0.01046
2618.08922	0.0104
2617.12491	0.01031
2616.1606	0.01018
2615.1963	0.01005
2614.23199	0.00996
2613.26769	0.00988
2612.30338	0.00982
2611.33908	0.00975
2610.37477	0.00965
2609.41047	0.00954
2608.44616	0.00947
2607.48186	0.00944
2606.51755	0.00941
2605.55324	0.00937
2604.58894	0.00929
2603.62463	0.0092
2602.66033	0.00918
2601.69602	0.00921
2600.73172	0.00923
2599.76741	0.0092
2598.80311	0.00914
2597.8388	0.00906
2596.8745	0.00905
2595.91019	0.00909
2594.94589	0.00912
2593.98158	0.00914
2593.01727	0.00914
2592.05297	0.00914
2591.08866	0.00916
2590.12436	0.00921
2589.16005	0.00928
2588.19575	0.00931
2587.23144	0.00932
2586.26714	0.0093
2585.30283	0.00929
2584.33853	0.0093
2583.37422	0.00934
2582.40991	0.00938
2581.44561	0.00938
2580.4813	0.00939
2579.517	0.00937
2578.55269	0.00936
2577.58839	0.00938
2576.62408	0.0094
2575.65978	0.00938
2574.69547	0.00936
2573.73117	0.00933
2572.76686	0.00929
2571.80255	0.00927
2570.83825	0.00927
2569.87394	0.00927
2568.90964	0.00924
2567.94533	0.0092
2566.98103	0.0092
2566.01672	0.00917
2565.05242	0.00915
2564.08811	0.00915
2563.12381	0.00914
2562.1595	0.0091
2561.1952	0.00905
2560.23089	0.00902
2559.26658	0.00899
2558.30228	0.00895
2557.33797	0.00896
2556.37367	0.00899
2555.40936	0.00897
2554.44506	0.00892
2553.48075	0.00887
2552.51645	0.00886
2551.55214	0.00887
2550.58784	0.00891
2549.62353	0.00889
2548.65922	0.00881
2547.69492	0.00872
2546.73061	0.0087
2545.76631	0.00873
2544.802	0.00876
2543.8377	0.00875
2542.87339	0.00866
2541.90909	0.00856
2540.94478	0.00853
2539.98048	0.00856
2539.01617	0.0086
2538.05187	0.00859
2537.08756	0.0085
2536.12325	0.0084
2535.15895	0.00835
2534.19464	0.00837
2533.23034	0.0084
2532.26603	0.0084
2531.30173	0.00835
2530.33742	0.00831
2529.37312	0.00827
2528.40881	0.00828
2527.44451	0.00833
2526.4802	0.00834
2525.51589	0.00833
2524.55159	0.00829
2523.58728	0.00825
2522.62298	0.00823
2521.65867	0.00826
2520.69437	0.00833
2519.73006	0.00835
2518.76576	0.00832
2517.80145	0.0083
2516.83715	0.00831
2515.87284	0.00834
2514.90854	0.00838
2513.94423	0.00842
2512.97992	0.00842
2512.01562	0.00842
2511.05131	0.00843
2510.08701	0.00847
2509.1227	0.00849
2508.1584	0.00851
2507.19409	0.00854
2506.22979	0.00857
2505.26548	0.0086
2504.30118	0.0086
2503.33687	0.00861
2502.37256	0.00865
2501.40826	0.00871
2500.44395	0.00876
2499.47965	0.00876
2498.51534	0.00872
2497.55104	0.0087
2496.58673	0.00873
2495.62243	0.00881
2494.65812	0.00889
2493.69382	0.00889
2492.72951	0.00881
2491.76521	0.00876
2490.8009	0.00879
2489.83659	0.00887
2488.87229	0.00894
2487.90798	0.00893
2486.94368	0.00886
2485.97937	0.00877
2485.01507	0.00878
2484.05076	0.00884
2483.08646	0.00888
2482.12215	0.00885
2481.15785	0.00878
2480.19354	0.0087
2479.22923	0.00867
2478.26493	0.00869
2477.30062	0.00873
2476.33632	0.00873
2475.37201	0.00866
2474.40771	0.00856
2473.4434	0.0085
2472.4791	0.00849
2471.51479	0.00853
2470.55049	0.00856
2469.58618	0.00852
2468.62188	0.00845
2467.65757	0.00838
2466.69326	0.00837
2465.72896	0.00841
2464.76465	0.00844
2463.80035	0.00841
2462.83604	0.00833
2461.87174	0.00827
2460.90743	0.00824
2459.94313	0.00823
2458.97882	0.00824
2458.01452	0.00824
2457.05021	0.00819
2456.0859	0.00816
2455.1216	0.00814
2454.15729	0.00813
2453.19299	0.00813
2452.22868	0.00813
2451.26438	0.00811
2450.30007	0.00809
2449.33577	0.00805
2448.37146	0.008
2447.40716	0.00795
2446.44285	0.00796
2445.47854	0.00798
2444.51424	0.00796
2443.54993	0.0079
2442.58563	0.00783
2441.62132	0.00778
2440.65702	0.00778
2439.69271	0.00782
2438.72841	0.00784
2437.7641	0.00776
2436.7998	0.00766
2435.83549	0.0076
2434.87119	0.00759
2433.90688	0.00763
2432.94257	0.00765
2431.97827	0.00758
2431.01396	0.00747
2430.04966	0.00741
2429.08535	0.0074
2428.12105	0.00744
2427.15674	0.00749
2426.19244	0.00746
2425.22813	0.00739
2424.26383	0.00734
2423.29952	0.00736
2422.33521	0.00743
2421.37091	0.00751
2420.4066	0.00751
2419.4423	0.00745
2418.47799	0.00738
2417.51369	0.00739
2416.54938	0.00748
2415.58508	0.00755
2414.62077	0.00757
2413.65647	0.00752
2412.69216	0.00746
2411.72786	0.00744
2410.76355	0.00751
2409.79924	0.0076
2408.83494	0.00764
2407.87063	0.00762
2406.90633	0.00757
2405.94202	0.00757
2404.97772	0.00763
2404.01341	0.0077
2403.04911	0.00773
2402.0848	0.00772
2401.1205	0.00772
2400.15619	0.00773
2399.19188	0.00775
2398.22758	0.00776
2397.26327	0.00778
2396.29897	0.00784
2395.33466	0.00788
2394.37036	0.00788
2393.40605	0.00786
2392.44175	0.00785
2391.47744	0.0079
2390.51314	0.00799
2389.54883	0.00808
2388.58453	0.00809
2387.62022	0.00804
2386.65591	0.008
2385.69161	0.00806
2384.7273	0.00817
2383.763	0.00825
2382.79869	0.00826
2381.83439	0.00823
2380.87008	0.00821
2379.90578	0.00827
2378.94147	0.00839
2377.97717	0.00849
2377.01286	0.00849
2376.04855	0.00846
2375.08425	0.00846
2374.11994	0.00851
2373.15564	0.00858
2372.19133	0.00864
2371.22703	0.00869
2370.26272	0.00869
2369.29842	0.00866
2368.33411	0.00868
2367.36981	0.00873
2366.4055	0.00878
2365.4412	0.00881
2364.47689	0.00883
2363.51258	0.00882
2362.54828	0.00879
2361.58397	0.00879
2360.61967	0.00888
2359.65536	0.00899
2358.69106	0.00903
2357.72675	0.009
2356.76245	0.00896
2355.79814	0.00897
2354.83384	0.00905
2353.86953	0.00917
2352.90522	0.00921
2351.94092	0.00916
2350.97661	0.00909
2350.01231	0.00907
2349.048	0.00912
2348.0837	0.00917
2347.11939	0.00917
2346.15509	0.00908
2345.19078	0.00898
2344.22648	0.0089
2343.26217	0.00891
2342.29786	0.00895
2341.33356	0.00894
2340.36925	0.00888
2339.40495	0.00881
2338.44064	0.00877
2337.47634	0.00878
2336.51203	0.00881
2335.54773	0.00882
2334.58342	0.00878
2333.61912	0.00871
2332.65481	0.00865
2331.69051	0.00862
2330.7262	0.00863
2329.76189	0.00867
2328.79759	0.00872
2327.83328	0.00873
2326.86898	0.00869
2325.90467	0.00863
2324.94037	0.00863
2323.97606	0.00869
2323.01176	0.00876
2322.04745	0.00879
2321.08315	0.00877
2320.11884	0.00872
2319.15453	0.00871
2318.19023	0.00875
2317.22592	0.00885
2316.26162	0.00891
2315.29731	0.00891
2314.33301	0.00884
2313.3687	0.00877
2312.4044	0.00878
2311.44009	0.00888
2310.47579	0.00899
2309.51148	0.00903
2308.54718	0.00897
2307.58287	0.00887
2306.61856	0.00883
2305.65426	0.00891
2304.68995	0.00907
2303.72565	0.00913
2302.76134	0.00905
2301.79704	0.00892
2300.83273	0.00888
2299.86843	0.00897
2298.90412	0.00911
2297.93982	0.00916
2296.97551	0.00909
2296.0112	0.00898
2295.0469	0.00892
2294.08259	0.00896
2293.11829	0.00908
2292.15398	0.00917
2291.18968	0.00914
2290.22537	0.00902
2289.26107	0.00892
2288.29676	0.00893
2287.33246	0.00901
2286.36815	0.0091
2285.40385	0.00916
2284.43954	0.00911
2283.47523	0.00899
2282.51093	0.00894
2281.54662	0.00902
2280.58232	0.00915
2279.61801	0.00926
2278.65371	0.00925
2277.6894	0.00915
2276.7251	0.00909
2275.76079	0.00916
2274.79649	0.00932
2273.83218	0.00944
2272.86787	0.00948
2271.90357	0.00943
2270.93926	0.00935
2269.97496	0.00938
2269.01065	0.00953
2268.04635	0.00969
2267.08204	0.00977
2266.11774	0.00977
2265.15343	0.00974
2264.18913	0.00972
2263.22482	0.00978
2262.26052	0.00991
2261.29621	0.01004
2260.3319	0.01013
2259.3676	0.01012
2258.40329	0.01006
2257.43899	0.01005
2256.47468	0.01014
2255.51038	0.01031
2254.54607	0.01046
2253.58177	0.01048
2252.61746	0.01039
2251.65316	0.01031
2250.68885	0.01039
2249.72454	0.01059
2248.76024	0.01078
2247.79593	0.01085
2246.83163	0.01075
2245.86732	0.01064
2244.90302	0.01071
2243.93871	0.01095
2242.97441	0.01118
2242.0101	0.01127
2241.0458	0.01118
2240.08149	0.01107
2239.11719	0.0111
2238.15288	0.01128
2237.18857	0.01151
2236.22427	0.01166
2235.25996	0.01167
2234.29566	0.01159
2233.33135	0.01156
2232.36705	0.01168
2231.40274	0.01192
2230.43844	0.01211
2229.47413	0.01215
2228.50983	0.01208
2227.54552	0.01204
2226.58121	0.0121
2225.61691	0.01228
2224.6526	0.01247
2223.6883	0.01259
2222.72399	0.01257
2221.75969	0.01249
2220.79538	0.01248
2219.83108	0.01261
2218.86677	0.01283
2217.90247	0.01302
2216.93816	0.01307
2215.97385	0.013
2215.00955	0.01296
2214.04524	0.01302
2213.08094	0.01321
2212.11663	0.01344
2211.15233	0.0136
2210.18802	0.0136
2209.22372	0.01353
2208.25941	0.01351
2207.29511	0.01366
2206.3308	0.01394
2205.3665	0.01417
2204.40219	0.01424
2203.43788	0.01415
2202.47358	0.01408
2201.50927	0.01419
2200.54497	0.01447
2199.58066	0.01478
2198.61636	0.01492
2197.65205	0.01484
2196.68775	0.01471
2195.72344	0.01474
2194.75914	0.015
2193.79483	0.01533
2192.83052	0.01551
2191.86622	0.01548
2190.90191	0.01535
2189.93761	0.01533
2188.9733	0.01552
2188.009	0.01583
2187.04469	0.01605
2186.08039	0.01609
2185.11608	0.01599
2184.15178	0.01593
2183.18747	0.01602
2182.22317	0.01627
2181.25886	0.01653
2180.29455	0.01665
2179.33025	0.01661
2178.36594	0.0165
2177.40164	0.01651
2176.43733	0.01669
2175.47303	0.01696
2174.50872	0.01718
2173.54442	0.01721
2172.58011	0.01711
2171.61581	0.01703
2170.6515	0.01713
2169.68719	0.01737
2168.72289	0.01762
2167.75858	0.01774
2166.79428	0.01765
2165.82997	0.01751
2164.86567	0.0175
2163.90136	0.01769
2162.93706	0.01796
2161.97275	0.01813
2161.00845	0.0181
2160.04414	0.01794
2159.07984	0.01782
2158.11553	0.01788
2157.15122	0.01811
2156.18692	0.01835
2155.22261	0.01841
2154.25831	0.01825
2153.294	0.01805
2152.3297	0.01802
2151.36539	0.01821
2150.40109	0.01847
2149.43678	0.01858
2148.47248	0.01845
2147.50817	0.0182
2146.54386	0.01806
2145.57956	0.01819
2144.61525	0.01845
2143.65095	0.01862
2142.68664	0.01857
2141.72234	0.01833
2140.75803	0.01813
2139.79373	0.01816
2138.82942	0.01837
2137.86512	0.01858
2136.90081	0.01861
2135.93651	0.01844
2134.9722	0.01822
2134.00789	0.01813
2133.04359	0.01825
2132.07928	0.01848
2131.11498	0.01861
2130.15067	0.01852
2129.18637	0.01829
2128.22206	0.01812
2127.25776	0.01818
2126.29345	0.01841
2125.32915	0.0186
2124.36484	0.0186
2123.40053	0.01841
2122.43623	0.0182
2121.47192	0.01815
2120.50762	0.01832
2119.54331	0.01856
2118.57901	0.01866
2117.6147	0.01853
2116.6504	0.01831
2115.68609	0.0182
2114.72179	0.0183
2113.75748	0.01853
2112.79318	0.01868
2111.82887	0.01864
2110.86456	0.01845
2109.90026	0.01827
2108.93595	0.01827
2107.97165	0.01844
2107.00734	0.01863
2106.04304	0.01873
2105.07873	0.01862
2104.11443	0.0184
2103.15012	0.01829
2102.18582	0.01837
2101.22151	0.01858
2100.2572	0.01877
2099.2929	0.01876
2098.32859	0.01855
2097.36429	0.01834
2096.39998	0.01832
2095.43568	0.01851
2094.47137	0.01875
2093.50707	0.01883
2092.54276	0.01867
2091.57846	0.01841
2090.61415	0.01831
2089.64984	0.01847
2088.68554	0.01874
2087.72123	0.01889
2086.75693	0.0188
2085.79262	0.01857
2084.82832	0.0184
2083.86401	0.01845
2082.89971	0.01867
2081.9354	0.01885
2080.9711	0.01887
2080.00679	0.01869
2079.04249	0.01849
2078.07818	0.01845
2077.11387	0.01861
2076.14957	0.01884
2075.18526	0.01891
2074.22096	0.01877
2073.25665	0.01854
2072.29235	0.01839
2071.32804	0.01842
2070.36374	0.01859
2069.39943	0.01872
2068.43513	0.01865
2067.47082	0.01843
2066.50651	0.0182
2065.54221	0.01815
2064.5779	0.01828
2063.6136	0.01841
2062.64929	0.01838
2061.68499	0.01818
2060.72068	0.01792
2059.75638	0.01776
2058.79207	0.01774
2057.82777	0.01783
2056.86346	0.01786
2055.89916	0.01772
2054.93485	0.01743
2053.97054	0.01716
2053.00624	0.01706
2052.04193	0.01711
2051.07763	0.0172
2050.11332	0.01713
2049.14902	0.01684
2048.18471	0.0165
2047.22041	0.01628
2046.2561	0.01622
2045.2918	0.01627
2044.32749	0.01625
2043.36318	0.01604
2042.39888	0.01569
2041.43457	0.01539
2040.47027	0.01527
2039.50596	0.01528
2038.54166	0.01526
2037.57735	0.01509
2036.61305	0.01478
2035.64874	0.01442
2034.68444	0.0142
2033.72013	0.01415
2032.75583	0.01413
2031.79152	0.01399
2030.82721	0.01372
2029.86291	0.01339
2028.8986	0.01312
2027.9343	0.01298
2026.96999	0.01296
2026.00569	0.01291
2025.04138	0.01274
2024.07708	0.01244
2023.11277	0.01213
2022.14847	0.01192
2021.18416	0.01189
2020.21985	0.01193
2019.25555	0.01188
2018.29124	0.01166
2017.32694	0.01136
2016.36263	0.01111
2015.39833	0.01102
2014.43402	0.0111
2013.46972	0.01113
2012.50541	0.01097
2011.54111	0.01068
2010.5768	0.01045
2009.6125	0.01039
2008.64819	0.01047
2007.68388	0.01053
2006.71958	0.01042
2005.75527	0.01018
2004.79097	0.00999
2003.82666	0.00993
2002.86236	0.00997
2001.89805	0.01001
2000.93375	0.00998
1999.96944	0.00985
1999.00514	0.0097
1998.04083	0.00958
1997.07652	0.00955
1996.11222	0.00959
1995.14791	0.00963
1994.18361	0.0096
1993.2193	0.00951
1992.255	0.00945
1991.29069	0.00934
1990.32639	0.00929
1989.36208	0.00937
1988.39778	0.00943
1987.43347	0.00935
1986.46917	0.00919
1985.50486	0.00907
1984.54055	0.00905
1983.57625	0.00914
1982.61194	0.00921
1981.64764	0.00919
1980.68333	0.00909
1979.71903	0.00896
1978.75472	0.00889
1977.79042	0.00895
1976.82611	0.00906
1975.86181	0.00911
1974.8975	0.00906
1973.93319	0.00892
1972.96889	0.0088
1972.00458	0.00881
1971.04028	0.00892
1970.07597	0.00905
1969.11167	0.00906
1968.14736	0.009
1967.18306	0.0089
1966.21875	0.00883
1965.25445	0.00887
1964.29014	0.00899
1963.32583	0.00903
1962.36153	0.00897
1961.39722	0.00884
1960.43292	0.00877
1959.46861	0.00881
1958.50431	0.00894
1957.54	0.009
1956.5757	0.00893
1955.61139	0.00883
1954.64709	0.00877
1953.68278	0.00877
1952.71848	0.00884
1951.75417	0.00888
1950.78986	0.00885
1949.82556	0.00876
1948.86125	0.0087
1947.89695	0.00867
1946.93264	0.00867
1945.96834	0.0087
1945.00403	0.00872
1944.03973	0.00871
1943.07542	0.00879
1942.11112	0.00875
1941.14681	0.00856
1940.1825	0.00846
1939.2182	0.00847
1938.25389	0.00848
1937.28959	0.00844
1936.32528	0.00837
1935.36098	0.0083
1934.39667	0.00825
1933.43237	0.00824
1932.46806	0.00828
1931.50376	0.0083
1930.53945	0.00822
1929.57515	0.00813
1928.61084	0.00808
1927.64653	0.00807
1926.68223	0.00809
1925.71792	0.00813
1924.75362	0.00813
1923.78931	0.00813
1922.82501	0.00809
1921.8607	0.00796
1920.8964	0.00789
1919.93209	0.00795
1918.96779	0.00819
1918.00348	0.00833
1917.03917	0.00804
1916.07487	0.00777
1915.11056	0.00778
1914.14626	0.00784
1913.18195	0.00789
1912.21765	0.00786
1911.25334	0.00776
1910.28904	0.00771
1909.32473	0.00772
1908.36043	0.00777
1907.39612	0.00778
1906.43182	0.00771
1905.46751	0.00763
1904.5032	0.00757
1903.5389	0.00754
1902.57459	0.00755
1901.61029	0.00756
1900.64598	0.00755
1899.68168	0.00753
1898.71737	0.0075
1897.75307	0.00748
1896.78876	0.00746
1895.82446	0.00749
1894.86015	0.0075
1893.89584	0.00746
1892.93154	0.00747
1891.96723	0.00746
1891.00293	0.00744
1890.03862	0.00754
1889.07432	0.00754
1888.11001	0.00747
1887.14571	0.00747
1886.1814	0.00748
1885.2171	0.00741
1884.25279	0.00728
1883.28849	0.00722
1882.32418	0.00727
1881.35987	0.00737
1880.39557	0.00741
1879.43126	0.00733
1878.46696	0.00715
1877.50265	0.00703
1876.53835	0.00708
1875.57404	0.00722
1874.60974	0.00732
1873.64543	0.00725
1872.68113	0.00703
1871.71682	0.00687
1870.75251	0.007
1869.78821	0.00742
1868.8239	0.00763
1867.8596	0.00741
1866.89529	0.00708
1865.93099	0.00678
1864.96668	0.00669
1864.00238	0.00681
1863.03807	0.00695
1862.07377	0.00692
1861.10946	0.00673
1860.14516	0.00655
1859.18085	0.00648
1858.21654	0.00655
1857.25224	0.00662
1856.28793	0.00663
1855.32363	0.00653
1854.35932	0.0064
1853.39502	0.00633
1852.43071	0.0063
1851.46641	0.00635
1850.5021	0.00642
1849.5378	0.00647
1848.57349	0.00647
1847.60918	0.00638
1846.64488	0.00622
1845.68057	0.00638
1844.71627	0.00701
1843.75196	0.00716
1842.78766	0.00669
1841.82335	0.00636
1840.85905	0.00617
1839.89474	0.00613
1838.93044	0.00628
1837.96613	0.00652
1837.00182	0.00666
1836.03752	0.00651
1835.07321	0.00631
1834.10891	0.00623
1833.1446	0.00635
1832.1803	0.00659
1831.21599	0.00694
1830.25169	0.00727
1829.28738	0.00708
1828.32308	0.00664
1827.35877	0.00655
1826.39447	0.00691
1825.43016	0.00743
1824.46585	0.00744
1823.50155	0.0071
1822.53724	0.00691
1821.57294	0.00687
1820.60863	0.00707
1819.64433	0.00735
1818.68002	0.00758
1817.71572	0.00764
1816.75141	0.00749
1815.78711	0.0074
1814.8228	0.00753
1813.85849	0.00785
1812.89419	0.00815
1811.92988	0.00831
1810.96558	0.00833
1810.00127	0.00817
1809.03697	0.00811
1808.07266	0.00836
1807.10836	0.0087
1806.14405	0.00885
1805.17975	0.00883
1804.21544	0.00872
1803.25114	0.00879
1802.28683	0.00912
1801.32252	0.00947
1800.35822	0.00978
1799.39391	0.00986
1798.42961	0.00959
1797.4653	0.00942
1796.501	0.00958
1795.53669	0.00989
1794.57239	0.01019
1793.60808	0.01068
1792.64378	0.01099
1791.67947	0.01074
1790.71516	0.01049
1789.75086	0.01053
1788.78655	0.01075
1787.82225	0.01101
1786.85794	0.01108
1785.89364	0.01117
1784.92933	0.01125
1783.96503	0.01121
1783.00072	0.01134
1782.03642	0.01173
1781.07211	0.01207
1780.10781	0.01204
1779.1435	0.01176
1778.17919	0.01168
1777.21489	0.01186
1776.25058	0.0123
1775.28628	0.01264
1774.32197	0.01271
1773.35767	0.01299
1772.39336	0.01316
1771.42906	0.01306
1770.46475	0.01303
1769.50045	0.01336
1768.53614	0.01386
1767.57183	0.01373
1766.60753	0.01312
1765.64322	0.01299
1764.67892	0.01333
1763.71461	0.01382
1762.75031	0.01439
1761.786	0.01459
1760.8217	0.01412
1759.85739	0.01372
1758.89309	0.01394
1757.92878	0.0145
1756.96448	0.01505
1756.00017	0.01496
1755.03586	0.0145
1754.07156	0.01428
1753.10725	0.0144
1752.14295	0.01521
1751.17864	0.01594
1750.21434	0.01579
1749.25003	0.01549
1748.28573	0.01531
1747.32142	0.01517
1746.35712	0.01532
1745.39281	0.01572
1744.4285	0.0162
1743.4642	0.01646
1742.49989	0.0163
1741.53559	0.01621
1740.57128	0.0168
1739.60698	0.01756
1738.64267	0.01784
1737.67837	0.01797
1736.71406	0.01808
1735.74976	0.01854
1734.78545	0.01966
1733.82115	0.0204
1732.85684	0.02041
1731.89253	0.02038
1730.92823	0.02065
1729.96392	0.02093
1728.99962	0.02096
1728.03531	0.02121
1727.07101	0.02184
1726.1067	0.02255
1725.1424	0.02311
1724.17809	0.02346
1723.21379	0.02366
1722.24948	0.0239
1721.28517	0.02445
1720.32087	0.02535
1719.35656	0.02652
1718.39226	0.02753
1717.42795	0.02773
1716.46365	0.02757
1715.49934	0.02809
1714.53504	0.029
1713.57073	0.02961
1712.60643	0.03001
1711.64212	0.03026
1710.67781	0.03054
1709.71351	0.03109
1708.7492	0.03187
1707.7849	0.03306
1706.82059	0.03421
1705.85629	0.03481
1704.89198	0.03509
1703.92768	0.03548
1702.96337	0.03616
1701.99907	0.03758
1701.03476	0.0398
1700.07046	0.04093
1699.10615	0.04047
1698.14184	0.04034
1697.17754	0.04145
1696.21323	0.04338
1695.24893	0.04471
1694.28462	0.04508
1693.32032	0.04557
1692.35601	0.04628
1691.39171	0.0473
1690.4274	0.04879
1689.4631	0.0504
1688.49879	0.05182
1687.53448	0.05284
1686.57018	0.05374
1685.60587	0.05532
1684.64157	0.05737
1683.67726	0.05902
1682.71296	0.06014
1681.74865	0.06114
1680.78435	0.06237
1679.82004	0.06358
1678.85574	0.06481
1677.89143	0.06638
1676.92713	0.06834
1675.96282	0.07061
1674.99851	0.07221
1674.03421	0.0728
1673.0699	0.0738
1672.1056	0.07559
1671.14129	0.07747
1670.17699	0.07941
1669.21268	0.08116
1668.24838	0.08201
1667.28407	0.08263
1666.31977	0.08379
1665.35546	0.08533
1664.39115	0.08713
1663.42685	0.08899
1662.46254	0.09023
1661.49824	0.09081
1660.53393	0.09158
1659.56963	0.09286
1658.60532	0.09429
1657.64102	0.09571
1656.67671	0.09669
1655.71241	0.0975
1654.7481	0.09866
1653.7838	0.1003
1652.81949	0.1017
1651.85518	0.10202
1650.89088	0.10206
1649.92657	0.1023
1648.96227	0.10272
1647.99796	0.10334
1647.03366	0.10408
1646.06935	0.10483
1645.10505	0.10493
1644.14074	0.10452
1643.17644	0.10409
1642.21213	0.10367
1641.24782	0.1035
1640.28352	0.10356
1639.31921	0.1035
1638.35491	0.10315
1637.3906	0.10237
1636.4263	0.10154
1635.46199	0.10093
1634.49769	0.0998
1633.53338	0.09852
1632.56908	0.09741
1631.60477	0.09595
1630.64047	0.09432
1629.67616	0.09274
1628.71185	0.09161
1627.74755	0.09062
1626.78324	0.08915
1625.81894	0.08736
1624.85463	0.08552
1623.89033	0.08389
1622.92602	0.08207
1621.96172	0.08023
1620.99741	0.07872
1620.03311	0.07714
1619.0688	0.07526
1618.10449	0.07342
1617.14019	0.072
1616.17588	0.07026
1615.21158	0.0682
1614.24727	0.06648
1613.28297	0.06465
1612.31866	0.06257
1611.35436	0.06059
1610.39005	0.05907
1609.42575	0.05797
1608.46144	0.05689
1607.49714	0.05567
1606.53283	0.05407
1605.56852	0.05238
1604.60422	0.05099
1603.63991	0.0501
1602.67561	0.04942
1601.7113	0.04859
1600.747	0.04748
1599.78269	0.04615
1598.81839	0.04501
1597.85408	0.0443
1596.88978	0.04389
1595.92547	0.04349
1594.96116	0.0429
1593.99686	0.042
1593.03255	0.04104
1592.06825	0.0404
1591.10394	0.04013
1590.13964	0.04004
1589.17533	0.03979
1588.21103	0.03928
1587.24672	0.03856
1586.28242	0.03796
1585.31811	0.03779
1584.3538	0.03793
1583.3895	0.03807
1582.42519	0.03787
1581.46089	0.03741
1580.49658	0.03693
1579.53228	0.03681
1578.56797	0.03709
1577.60367	0.03763
1576.63936	0.03823
1575.67506	0.03797
1574.71075	0.03714
1573.74645	0.03682
1572.78214	0.03706
1571.81783	0.03755
1570.85353	0.03817
1569.88922	0.03865
1568.92492	0.03836
1567.96061	0.03781
1566.99631	0.03781
1566.032	0.03834
1565.0677	0.03903
1564.10339	0.03921
1563.13909	0.03902
1562.17478	0.03891
1561.21047	0.03943
1560.24617	0.04062
1559.28186	0.04156
1558.31756	0.0421
1557.35325	0.04185
1556.38895	0.04092
1555.42464	0.04086
1554.46034	0.04159
1553.49603	0.04199
1552.53173	0.04222
1551.56742	0.04254
1550.60312	0.04285
1549.63881	0.04294
1548.6745	0.04299
1547.7102	0.04342
1546.74589	0.0442
1545.78159	0.0451
1544.81728	0.04553
1543.85298	0.04552
1542.88867	0.04609
1541.92437	0.04694
1540.96006	0.04755
1539.99576	0.0484
1539.03145	0.04889
1538.06714	0.04852
1537.10284	0.04823
1536.13853	0.04861
1535.17423	0.04959
1534.20992	0.0509
1533.24562	0.05175
1532.28131	0.0518
1531.31701	0.05181
1530.3527	0.05216
1529.3884	0.05302
1528.42409	0.05424
1527.45979	0.05517
1526.49548	0.05587
1525.53117	0.05637
1524.56687	0.05658
1523.60256	0.05718
1522.63826	0.05857
1521.67395	0.06017
1520.70965	0.06091
1519.74534	0.06066
1518.78104	0.06061
1517.81673	0.06156
1516.85243	0.06268
1515.88812	0.0635
1514.92381	0.06424
1513.95951	0.06484
1512.9952	0.06564
1512.0309	0.06647
1511.06659	0.06731
1510.10229	0.06869
1509.13798	0.07022
1508.17368	0.07165
1507.20937	0.07294
1506.24507	0.07387
1505.28076	0.07452
1504.31646	0.07539
1503.35215	0.07677
1502.38784	0.07826
1501.42354	0.0795
1500.45923	0.08073
1499.49493	0.08251
1498.53062	0.08446
1497.56632	0.08632
1496.60201	0.0886
1495.63771	0.09047
1494.6734	0.0919
1493.7091	0.09381
1492.74479	0.0962
1491.78048	0.09914
1490.81618	0.10247
1489.85187	0.10554
1488.88757	0.10824
1487.92326	0.11123
1486.95896	0.11464
1485.99465	0.11824
1485.03035	0.12225
1484.06604	0.12654
1483.10174	0.13082
1482.13743	0.1352
1481.17313	0.13979
1480.20882	0.14463
1479.24451	0.14973
1478.28021	0.15499
1477.3159	0.16041
1476.3516	0.16575
1475.38729	0.17064
1474.42299	0.17574
1473.45868	0.18132
1472.49438	0.18658
1471.53007	0.19118
1470.56577	0.19525
1469.60146	0.19923
1468.63715	0.20305
1467.67285	0.20655
1466.70854	0.20985
1465.74424	0.21294
1464.77993	0.2155
1463.81563	0.21706
1462.85132	0.21819
1461.88702	0.21925
1460.92271	0.22
1459.95841	0.22057
1458.9941	0.2207
1458.02979	0.22052
1457.06549	0.21984
1456.10118	0.21796
1455.13688	0.21543
1454.17257	0.21313
1453.20827	0.21092
1452.24396	0.20845
1451.27966	0.2057
1450.31535	0.20277
1449.35105	0.20007
1448.38674	0.19784
1447.42244	0.19568
1446.45813	0.19355
1445.49382	0.19176
1444.52952	0.19047
1443.56521	0.18977
1442.60091	0.18975
1441.6366	0.1903
1440.6723	0.19124
1439.70799	0.19245
1438.74369	0.1939
1437.77938	0.1961
1436.81508	0.19867
1435.85077	0.20049
1434.88646	0.20211
1433.92216	0.20422
1432.95785	0.20632
1431.99355	0.20834
1431.02924	0.21055
1430.06494	0.21281
1429.10063	0.2148
1428.13633	0.21654
1427.17202	0.21824
1426.20772	0.21989
1425.24341	0.22158
1424.27911	0.22334
1423.3148	0.22477
1422.35049	0.22592
1421.38619	0.22709
1420.42188	0.22869
1419.45758	0.23031
1418.49327	0.23101
1417.52897	0.23138
1416.56466	0.23188
1415.60036	0.23228
1414.63605	0.23269
1413.67175	0.23301
1412.70744	0.23321
1411.74313	0.23325
1410.77883	0.2331
1409.81452	0.23288
1408.85022	0.23262
1407.88591	0.23228
1406.92161	0.23177
1405.9573	0.23122
1404.993	0.23056
1404.02869	0.22957
1403.06439	0.22852
1402.10008	0.22758
1401.13578	0.22661
1400.17147	0.22584
1399.20716	0.22517
1398.24286	0.22433
1397.27855	0.22362
1396.31425	0.22342
1395.34994	0.22369
1394.38564	0.22404
1393.42133	0.22428
1392.45703	0.22489
1391.49272	0.22603
1390.52842	0.22749
1389.56411	0.22913
1388.5998	0.23099
1387.6355	0.23276
1386.67119	0.23361
1385.70689	0.23382
1384.74258	0.23467
1383.77828	0.23723
1382.81397	0.24138
1381.84967	0.24573
1380.88536	0.24939
1379.92106	0.25233
1378.95675	0.25477
1377.99245	0.25682
1377.02814	0.25845
1376.06383	0.25982
1375.09953	0.26087
1374.13522	0.26142
1373.17092	0.26139
1372.20661	0.26108
1371.24231	0.26089
1370.278	0.26072
1369.3137	0.26041
1368.34939	0.25979
1367.38509	0.25886
1366.42078	0.25784
1365.45647	0.25679
1364.49217	0.25569
1363.52786	0.25435
1362.56356	0.25235
1361.59925	0.24989
1360.63495	0.24735
1359.67064	0.24486
1358.70634	0.24266
1357.74203	0.2407
1356.77773	0.23881
1355.81342	0.23701
1354.84911	0.23538
1353.88481	0.23413
1352.9205	0.23333
1351.9562	0.23285
1350.99189	0.2325
1350.02759	0.23222
1349.06328	0.23204
1348.09898	0.232
1347.13467	0.23233
1346.17037	0.23312
1345.20606	0.23418
1344.24176	0.23529
1343.27745	0.23632
1342.31314	0.2374
1341.34884	0.23873
1340.38453	0.24034
1339.42023	0.24197
1338.45592	0.24322
1337.49162	0.24398
1336.52731	0.24439
1335.56301	0.24462
1334.5987	0.24476
1333.6344	0.24475
1332.67009	0.24431
1331.70578	0.24316
1330.74148	0.24142
1329.77717	0.23932
1328.81287	0.23702
1327.84856	0.23463
1326.88426	0.23212
1325.91995	0.22925
1324.95565	0.22589
1323.99134	0.22226
1323.02704	0.2186
1322.06273	0.21502
1321.09843	0.21154
1320.13412	0.20802
1319.16981	0.20425
1318.20551	0.20029
1317.2412	0.19643
1316.2769	0.19295
1315.31259	0.19002
1314.34829	0.18758
1313.38398	0.18533
1312.41968	0.18308
1311.45537	0.18105
1310.49107	0.17969
1309.52676	0.1791
1308.56245	0.17914
1307.59815	0.17948
1306.63384	0.17984
1305.66954	0.18016
1304.70523	0.18069
1303.74093	0.18173
1302.77662	0.18307
1301.81232	0.18425
1300.84801	0.18502
1299.88371	0.18522
1298.9194	0.18492
1297.9551	0.1845
1296.99079	0.18414
1296.02648	0.18354
1295.06218	0.18236
1294.09787	0.18058
1293.13357	0.17837
1292.16926	0.17615
1291.20496	0.17413
1290.24065	0.17231
1289.27635	0.17045
1288.31204	0.16844
1287.34774	0.16634
1286.38343	0.16433
1285.41912	0.16268
1284.45482	0.16152
1283.49051	0.16068
1282.52621	0.1598
1281.5619	0.15874
1280.5976	0.15765
1279.63329	0.15681
1278.66899	0.15641
1277.70468	0.15635
1276.74038	0.15628
1275.77607	0.15602
1274.81177	0.15565
1273.84746	0.15538
1272.88315	0.15536
1271.91885	0.15573
1270.95454	0.15628
1269.99024	0.15666
1269.02593	0.15676
1268.06163	0.15679
1267.09732	0.15702
1266.13302	0.15758
1265.16871	0.15837
1264.20441	0.15915
1263.2401	0.1596
1262.27579	0.15975
1261.31149	0.15999
1260.34718	0.16053
1259.38288	0.16136
1258.41857	0.16232
1257.45427	0.16306
1256.48996	0.16346
1255.52566	0.16379
1254.56135	0.16439
1253.59705	0.16533
1252.63274	0.16638
1251.66844	0.16726
1250.70413	0.16775
1249.73982	0.16798
1248.77552	0.16824
1247.81121	0.16874
1246.84691	0.16935
1245.8826	0.16978
1244.9183	0.1698
1243.95399	0.16939
1242.98969	0.16866
1242.02538	0.16796
1241.06108	0.16741
1240.09677	0.16682
1239.13246	0.16587
1238.16816	0.16439
1237.20385	0.16255
1236.23955	0.16066
1235.27524	0.15902
1234.31094	0.15751
1233.34663	0.1559
1232.38233	0.15398
1231.41802	0.15184
1230.45372	0.14977
1229.48941	0.14804
1228.5251	0.14679
1227.5608	0.14583
1226.59649	0.14489
1225.63219	0.14399
1224.66788	0.14326
1223.70358	0.1429
1222.73927	0.14313
1221.77497	0.14392
1220.81066	0.14503
1219.84636	0.14622
1218.88205	0.1475
1217.91775	0.14907
1216.95344	0.15108
1215.98913	0.15355
1215.02483	0.15632
1214.06052	0.15903
1213.09622	0.16152
1212.13191	0.16389
1211.16761	0.16629
1210.2033	0.16886
1209.239	0.17154
1208.27469	0.17397
1207.31039	0.17582
1206.34608	0.17716
1205.38177	0.17838
1204.41747	0.17966
1203.45316	0.18104
1202.48886	0.18234
1201.52455	0.18326
1200.56025	0.18385
1199.59594	0.18454
1198.63164	0.18557
1197.66733	0.18707
1196.70303	0.18903
1195.73872	0.19125
1194.77442	0.19367
1193.81011	0.19644
1192.8458	0.19982
1191.8815	0.20399
1190.91719	0.20889
1189.95289	0.21441
1188.98858	0.22048
1188.02428	0.22708
1187.05997	0.23435
1186.09567	0.2425
1185.13136	0.25149
1184.16706	0.26135
1183.20275	0.27207
1182.23844	0.28349
1181.27414	0.29546
1180.30983	0.30814
1179.34553	0.32176
1178.38122	0.33625
1177.41692	0.35151
1176.45261	0.36729
1175.48831	0.38333
1174.524	0.39959
1173.5597	0.41618
1172.59539	0.43319
1171.63109	0.45047
1170.66678	0.46772
1169.70247	0.48472
1168.73817	0.50128
1167.77386	0.51734
1166.80956	0.53306
1165.84525	0.54864
1164.88095	0.56367
1163.91664	0.57743
1162.95234	0.58975
1161.98803	0.60067
1161.02373	0.61043
1160.05942	0.61899
1159.09511	0.62597
1158.13081	0.63109
1157.1665	0.63427
1156.2022	0.6356
1155.23789	0.63517
1154.27359	0.6332
1153.30928	0.63001
1152.34498	0.62553
1151.38067	0.6197
1150.41637	0.61267
1149.45206	0.60477
1148.48776	0.59652
1147.52345	0.58832
1146.55914	0.58018
1145.59484	0.57214
1144.63053	0.56425
1143.66623	0.5567
1142.70192	0.54983
1141.73762	0.54381
1140.77331	0.53884
1139.80901	0.53506
1138.8447	0.53228
1137.8804	0.53036
1136.91609	0.52932
1135.95178	0.52932
1134.98748	0.53035
1134.02317	0.53241
1133.05887	0.53518
1132.09456	0.53814
1131.13026	0.54107
1130.16595	0.54381
1129.20165	0.54641
1128.23734	0.54904
1127.27304	0.55156
1126.30873	0.55366
1125.34443	0.55515
1124.38012	0.55604
1123.41581	0.55663
1122.45151	0.55738
1121.4872	0.55846
1120.5229	0.55978
1119.55859	0.56121
1118.59429	0.56276
1117.62998	0.56462
1116.66568	0.56704
1115.70137	0.57027
1114.73707	0.57419
1113.77276	0.57828
1112.80845	0.58242
1111.84415	0.58657
1110.87984	0.59054
1109.91554	0.59447
1108.95123	0.59853
1107.98693	0.60241
1107.02262	0.60573
1106.05832	0.6083
1105.09401	0.61041
1104.12971	0.61266
1103.1654	0.61548
1102.20109	0.61876
1101.23679	0.622
1100.27248	0.62528
1099.30818	0.62918
1098.34387	0.6343
1097.37957	0.64101
1096.41526	0.64912
1095.45096	0.65837
1094.48665	0.66864
1093.52235	0.67949
1092.55804	0.69088
1091.59374	0.70342
1090.62943	0.71677
1089.66512	0.73001
1088.70082	0.74248
1087.73651	0.75358
1086.77221	0.76304
1085.8079	0.77065
1084.8436	0.77618
1083.87929	0.77923
1082.91499	0.77889
1081.95068	0.77451
1080.98638	0.76616
1080.02207	0.75444
1079.05776	0.74055
1078.09346	0.72551
1077.12915	0.71024
1076.16485	0.69555
1075.20054	0.68232
1074.23624	0.6719
1073.27193	0.66537
1072.30763	0.66326
1071.34332	0.6654
1070.37902	0.67071
1069.41471	0.67817
1068.45041	0.68706
1067.4861	0.69708
1066.52179	0.70823
1065.55749	0.72026
1064.59318	0.73233
1063.62888	0.74371
1062.66457	0.75435
1061.70027	0.76441
1060.73596	0.77435
1059.77166	0.78446
1058.80735	0.79459
1057.84305	0.80471
1056.87874	0.8143
1055.91443	0.82319
1054.95013	0.83193
1053.98582	0.84108
1053.02152	0.85123
1052.05721	0.86195
1051.09291	0.8722
1050.1286	0.88169
1049.1643	0.89098
1048.19999	0.90044
1047.23569	0.9102
1046.27138	0.92048
1045.30708	0.93057
1044.34277	0.93963
1043.37846	0.94786
1042.41416	0.95562
1041.44985	0.96338
1040.48555	0.97116
1039.52124	0.97819
1038.55694	0.98423
1037.59263	0.98925
1036.62833	0.9931
1035.66402	0.99586
1034.69972	0.99817
1033.73541	1
1032.7711	0.99989
1031.8068	0.99735
1030.84249	0.99289
1029.87819	0.98705
1028.91388	0.98049
1027.94958	0.97324
1026.98527	0.96463
1026.02097	0.95431
1025.05666	0.94236
1024.09236	0.92929
1023.12805	0.91648
1022.16375	0.90426
1021.19944	0.89177
1020.23513	0.87894
1019.27083	0.86592
1018.30652	0.85264
1017.34222	0.83955
1016.37791	0.82772
1015.41361	0.8174
1014.4493	0.80731
1013.485	0.79649
1012.52069	0.78511
1011.55639	0.77379
1010.59208	0.76304
1009.62777	0.75257
1008.66347	0.74149
1007.69916	0.72915
1006.73486	0.71544
1005.77055	0.70054
1004.80625	0.68514
1003.84194	0.66972
1002.87764	0.65387
1001.91333	0.63689
1000.94903	0.61876
999.98472	0.59974
999.02042	0.58024
998.05611	0.56085
997.0918	0.54189
996.1275	0.5233
995.16319	0.50473
994.19889	0.48593
993.23458	0.46747
992.27028	0.45008
991.30597	0.43423
990.34167	0.4199
989.37736	0.40631
988.41306	0.39262
987.44875	0.37896
986.48444	0.36606
985.52014	0.3543
984.55583	0.34361
983.59153	0.33352
982.62722	0.32336
981.66292	0.31284
980.69861	0.30238
979.73431	0.2928
978.77	0.2843
977.8057	0.27636
976.84139	0.26829
975.87708	0.25947
974.91278	0.24998
973.94847	0.24046
972.98417	0.23133
972.01986	0.22248
971.05556	0.21333
970.09125	0.2034
969.12695	0.19275
968.16264	0.18211
967.19834	0.17246
966.23403	0.16417
965.26973	0.15693
964.30542	0.1503
963.34111	0.14413
962.37681	0.13891
961.4125	0.1355
960.4482	0.13455
959.48389	0.13588
958.51959	0.13872
957.55528	0.14243
956.59098	0.14699
955.62667	0.15272
954.66237	0.1598
953.69806	0.1679
952.73375	0.17596
951.76945	0.18261
950.80514	0.18715
949.84084	0.18986
948.87653	0.19145
947.91223	0.1924
946.94792	0.19252
945.98362	0.1913
945.01931	0.18871
944.05501	0.1853
943.0907	0.18178
942.1264	0.17883
941.16209	0.17646
940.19778	0.17413
939.23348	0.17135
938.26917	0.16808
937.30487	0.16483
936.34056	0.1622
935.37626	0.16053
934.41195	0.1595
933.44765	0.15833
932.48334	0.15655
931.51904	0.15433
930.55473	0.15219
929.59042	0.1505
928.62612	0.14908
927.66181	0.14715
926.69751	0.14402
925.7332	0.13952
924.7689	0.13432
923.80459	0.12918
922.84029	0.12437
921.87598	0.11956
920.91168	0.11414
919.94737	0.10793
918.98307	0.10148
918.01876	0.09563
917.05445	0.09083
916.09015	0.08684
915.12584	0.08305
914.16154	0.07874
913.19723	0.074
912.23293	0.06959
911.26862	0.06607
910.30432	0.0634
909.34001	0.06097
908.37571	0.05803
907.4114	0.0543
906.44709	0.05034
905.48279	0.04695
904.51848	0.04436
903.55418	0.04212
902.58987	0.03957
901.62557	0.03651
900.66126	0.03335
899.69696	0.03081
898.73265	0.02938
897.76835	0.02886
896.80404	0.02856
895.83974	0.02788
894.87543	0.02671
893.91112	0.0254
892.94682	0.02438
891.98251	0.02355
891.01821	0.02263
890.0539	0.02111
889.0896	0.01875
888.12529	0.01586
887.16099	0.01311
886.19668	0.01108
885.23238	0.00975
884.26807	0.00869
883.30376	0.00753
882.33946	0.00635
881.37515	0.00541
880.41085	0.0054
879.44654	0.00674
878.48224	0.00902
877.51793	0.01142
876.55363	0.01365
875.58932	0.01603
874.62502	0.01918
873.66071	0.02353
872.69641	0.02888
871.7321	0.03434
870.76779	0.03923
869.80349	0.04371
868.83918	0.04849
867.87488	0.05411
866.91057	0.06058
865.94627	0.06723
864.98196	0.07301
864.01766	0.07782
863.05335	0.0824
862.08905	0.08743
861.12474	0.09295
860.16043	0.09823
859.19613	0.10247
858.23182	0.10534
857.26752	0.10729
856.30321	0.10897
855.33891	0.11066
854.3746	0.11205
853.4103	0.11252
852.44599	0.11184
851.48169	0.11022
850.51738	0.10838
849.55307	0.10698
848.58877	0.106
847.62446	0.10495
846.66016	0.10336
845.69585	0.10115
844.73155	0.0987
843.76724	0.09651
842.80294	0.09475
841.83863	0.09295
840.87433	0.0905
839.91002	0.08704
838.94572	0.08263
837.98141	0.07773
837.0171	0.07283
836.0528	0.06786
835.08849	0.06225
834.12419	0.05577
833.15988	0.04864
832.19558	0.04151
831.23127	0.03534
830.26697	0.03066
829.30266	0.02706
828.33836	0.02385
827.37405	0.02071
826.40974	0.01792
825.44544	0.01583
824.48113	0.01464
823.51683	0.014
822.55252	0.01314
821.58822	0.01164
820.62391	0.0096
819.65961	0.00756
818.6953	0.00602
817.731	0.00527
816.76669	0.00484
815.80239	0.0039
814.83808	0.00238
813.87377	8.30621E-4
812.90947	0
811.94516	4.97305E-5
810.98086	5.76321E-4
810.01655	8.5531E-4
809.05225	5.10717E-4
808.08794	1.02271E-5
807.12364	5.0789E-5
806.15933	0.00102
805.19503	0.0026
804.23072	0.00402
803.26641	0.00478
802.30211	0.00512
801.3378	0.00565
800.3735	0.00689
799.40919	0.00875
798.44489	0.01042
797.48058	0.0114
796.51628	0.01164
795.55197	0.01172
794.58767	0.01223
793.62336	0.01322
792.65906	0.0143
791.69475	0.0149
790.73044	0.01479
789.76614	0.01439
788.80183	0.01458
787.83753	0.01563
786.87322	0.01707
785.90892	0.01842
784.94461	0.01945
783.98031	0.02037
783.016	0.02158
782.0517	0.02339
781.08739	0.02556
780.12308	0.02741
779.15878	0.02864
778.19447	0.02925
777.23017	0.02954
776.26586	0.02994
775.30156	0.03079
774.33725	0.03193
773.37295	0.03296
772.40864	0.03383
771.44434	0.03511
770.48003	0.03737
769.51573	0.04093
768.55142	0.04579
767.58711	0.05108
766.62281	0.05597
765.6585	0.06051
764.6942	0.0651
763.72989	0.06983
762.76559	0.07458
761.80128	0.07902
760.83698	0.08218
759.87267	0.08376
758.90837	0.08457
757.94406	0.08535
756.97975	0.08613
756.01545	0.08649
755.05114	0.08556
754.08684	0.08273
753.12253	0.0787
752.15823	0.07454
751.19392	0.07064
750.22962	0.0666
749.26531	0.06212
748.30101	0.05725
747.3367	0.05237
746.3724	0.04844
745.40809	0.04592
744.44378	0.04456
743.47948	0.04377
742.51517	0.04272
741.55087	0.04139
740.58656	0.04042
739.62226	0.04057
738.65795	0.04183
737.69365	0.04334
736.72934	0.04431
735.76504	0.04476
734.80073	0.04522
733.83642	0.04626
732.87212	0.04829
731.90781	0.05078
730.94351	0.05286
729.9792	0.05429
729.0149	0.0555
728.05059	0.05708
727.08629	0.05944
726.12198	0.06256
725.15768	0.0657
724.19337	0.06821
723.22906	0.07031
722.26476	0.0727
721.30045	0.0759
720.33615	0.07997
719.37184	0.08447
718.40754	0.08859
717.44323	0.09201
716.47893	0.09518
715.51462	0.0988
714.55032	0.1031
713.58601	0.10772
712.62171	0.11183
711.6574	0.11461
710.69309	0.11629
709.72879	0.11774
708.76448	0.11933
707.80018	0.12075
706.83587	0.12114
705.87157	0.11987
704.90726	0.11704
703.94296	0.11361
702.97865	0.11061
702.01435	0.10807
701.05004	0.10554
700.08573	0.10259
699.12143	0.09886
698.15712	0.09499
697.19282	0.09226
696.22851	0.09098
695.26421	0.09038
694.2999	0.0897
693.3356	0.08868
692.37129	0.08733
691.40699	0.08625
690.44268	0.08641
689.47838	0.0877
688.51407	0.08878
687.54976	0.08888
686.58546	0.08848
685.62115	0.08817
684.65685	0.08871
683.69254	0.09025
682.72824	0.09191
681.76393	0.09283
680.79963	0.09278
679.83532	0.09257
678.87102	0.09299
677.90671	0.09447
676.9424	0.0967
675.9781	0.09822
675.01379	0.09852
674.04949	0.0983
673.08518	0.09857
672.12088	0.09983
671.15657	0.1018
670.19227	0.10367
669.22796	0.10455
668.26366	0.1045
667.29935	0.10438
666.33505	0.10515
665.37074	0.10683
664.40643	0.10854
663.44213	0.10945
662.47782	0.10932
661.51352	0.10883
660.54921	0.10901
659.58491	0.11014
658.6206	0.11172
657.6563	0.11289
656.69199	0.11285
655.72769	0.11197
654.76338	0.11157
653.79907	0.11237
652.83477	0.11378
651.87046	0.11475
650.90616	0.11488
649.94185	0.11398
648.97755	0.11287
648.01324	0.11275
647.04894	0.11363
646.08463	0.11469
645.12033	0.11512
644.15602	0.1147
643.19172	0.11382
642.22741	0.11356
641.2631	0.1147
640.2988	0.11648
639.33449	0.11765
638.37019	0.11778
637.40588	0.11749
636.44158	0.11763
635.47727	0.11896
634.51297	0.12131
633.54866	0.12343
632.58436	0.12442
631.62005	0.12464
630.65574	0.12518
629.69144	0.12692
628.72713	0.12991
627.76283	0.13298
626.79852	0.13522
625.83422	0.13675
624.86991	0.13849
623.90561	0.1412
622.9413	0.14492
621.977	0.14925
621.01269	0.15311
620.04839	0.15604
619.08408	0.15852
618.11977	0.16134
617.15547	0.1652
616.19116	0.16972
615.22686	0.17379
614.26255	0.17619
613.29825	0.17746
612.33394	0.17883
611.36964	0.18049
610.40533	0.18258
609.44103	0.18445
608.47672	0.18514
607.51241	0.18441
606.54811	0.1831
605.5838	0.18256
604.6195	0.18312
603.65519	0.18393
602.69089	0.18425
601.72658	0.18385
600.76228	0.18284
599.79797	0.18243
598.83367	0.18329
597.86936	0.18476
596.90505	0.18593
595.94075	0.18669
594.97644	0.1872
594.01214	0.18708
593.04783	0.1879
592.08353	0.19046
591.11922	0.19297
590.15492	0.19444
589.19061	0.19479
588.22631	0.19483
587.262	0.19535
586.2977	0.19689
585.33339	0.19908
584.36908	0.2004
583.40478	0.20035
582.44047	0.19958
581.47617	0.19901
580.51186	0.1988
579.54756	0.19871
578.58325	0.19805
577.61895	0.19594
576.65464	0.19309
575.69034	0.19028
574.72603	0.18755
573.76172	0.18518
572.79742	0.18267
571.83311	0.17933
570.86881	0.17531
569.9045	0.1714
568.9402	0.16819
567.97589	0.16548
567.01159	0.16322
566.04728	0.16084
565.08298	0.15764
564.11867	0.15437
563.15437	0.15196
562.19006	0.15064
561.22575	0.15014
560.26145	0.14981
559.29714	0.1487
558.33284	0.14683
557.36853	0.14548
556.40423	0.14504
555.43992	0.14527
554.47562	0.14554
553.51131	0.14505
552.54701	0.14402
551.5827	0.14327
550.61839	0.14298
549.65409	0.1431
548.68978	0.14358
547.72548	0.14377
546.76117	0.14325
545.79687	0.14223
544.83256	0.14138
543.86826	0.14135
542.90395	0.14203
541.93965	0.14218
540.97534	0.14093
540.01104	0.13942
539.04673	0.13862
538.08242	0.13861
537.11812	0.13911
536.15381	0.13929
535.18951	0.13845
534.2252	0.13685
533.2609	0.13574
532.29659	0.13548
531.33229	0.13564
530.36798	0.13567
529.40368	0.13507
528.43937	0.13371
527.47506	0.13205
526.51076	0.13123
525.54645	0.13099
524.58215	0.13077
523.61784	0.13022
522.65354	0.12839
521.68923	0.12625
520.72493	0.12509
519.76062	0.12452
518.79632	0.12377
517.83201	0.12262
516.86771	0.1208
515.9034	0.1186
514.93909	0.11694
513.97479	0.11573
513.01048	0.1145
512.04618	0.11313
511.08187	0.11174
510.11757	0.11039
509.15326	0.10934
508.18896	0.10846
507.22465	0.10748
506.26035	0.1064
505.29604	0.10513
504.33173	0.10415
503.36743	0.10356
502.40312	0.10338
501.43882	0.10301
500.47451	0.10174
499.51021	0.10069
498.5459	0.10041
497.5816	0.1002
496.61729	0.09945
495.65299	0.09798
494.68868	0.0962
493.72438	0.09513
492.76007	0.09467
491.79576	0.09393
490.83146	0.09286
489.86715	0.09188
488.90285	0.09152
487.93854	0.09115
486.97424	0.09037
486.00993	0.08934
485.04563	0.08828
484.08132	0.0876
483.11702	0.08665
482.15271	0.08606
481.1884	0.08578
480.2241	0.08475
479.25979	0.08333
478.29549	0.08223
477.33118	0.08148
476.36688	0.08064
475.40257	0.07962
474.43827	0.07768
473.47396	0.07564
472.50966	0.07443
471.54535	0.07368
470.58104	0.07298
469.61674	0.07124
468.65243	0.06903
467.68813	0.0667
466.72382	0.06489
465.75952	0.06427
464.79521	0.06342
463.83091	0.06174
462.8666	0.05965
461.9023	0.05837
460.93799	0.058
459.97369	0.05729
459.00938	0.05547
458.04507	0.05331
457.08077	0.0519
456.11646	0.05126
455.15216	0.05112
454.18785	0.05091
453.22355	0.0504
452.25924	0.04902
451.29494	0.04763
450.33063	0.04793
449.36633	0.04921
448.40202	0.0499
447.43771	0.04898
446.47341	0.04757
445.5091	0.04677
444.5448	0.04706
443.58049	0.04851
442.61619	0.04947
441.65188	0.04871
440.68758	0.04676
439.72327	0.04645
438.75897	0.04829
437.79466	0.04945
436.83036	0.04913
435.86605	0.0479
434.90174	0.04597
433.93744	0.04467
432.97313	0.04458
432.00883	0.04456
431.04452	0.0443
430.08022	0.04321
429.11591	0.04115
428.15161	0.03941
427.1873	0.03866
426.223	0.03774
425.25869	0.03627
424.29438	0.03576
423.33008	0.03516
422.36577	0.03392
421.40147	0.03302
420.43716	0.03239
419.47286	0.0324
418.50855	0.03235
417.54425	0.03118
416.57994	0.02897
415.61564	0.02709
414.65133	0.0266
413.68703	0.02762
412.72272	0.02815
411.75841	0.0268
410.79411	0.02489
409.8298	0.02283
408.8655	0.02204
407.90119	0.02305
406.93689	0.02433
405.97258	0.0231
405.00828	0.01905
404.04397	0.0159
403.07967	0.01553
402.11536	0.01737
401.15105	0.01818
400.18675	0.01641