3999.93888	0.00278
3998.97458	0.00275
3998.01027	0.00274
3997.04597	0.00275
3996.08166	0.00276
3995.11735	0.00275
3994.15305	0.00274
3993.18874	0.00274
3992.22444	0.00271
3991.26013	0.0027
3990.29583	0.0027
3989.33152	0.00272
3988.36722	0.00272
3987.40291	0.00269
3986.43861	0.00267
3985.4743	0.00268
3984.51	0.00269
3983.54569	0.00268
3982.58138	0.00267
3981.61708	0.00267
3980.65277	0.00267
3979.68847	0.00266
3978.72416	0.00267
3977.75986	0.00269
3976.79555	0.00269
3975.83125	0.00267
3974.86694	0.00266
3973.90264	0.00266
3972.93833	0.00265
3971.97402	0.00269
3971.00972	0.0027
3970.04541	0.00269
3969.08111	0.00268
3968.1168	0.00265
3967.1525	0.00266
3966.18819	0.00269
3965.22389	0.0027
3964.25958	0.0027
3963.29528	0.00269
3962.33097	0.00268
3961.36667	0.00267
3960.40236	0.00271
3959.43805	0.00273
3958.47375	0.00273
3957.50944	0.00271
3956.54514	0.00269
3955.58083	0.00268
3954.61653	0.00268
3953.65222	0.0027
3952.68792	0.00272
3951.72361	0.00271
3950.75931	0.00271
3949.795	0.0027
3948.83069	0.0027
3947.86639	0.00274
3946.90208	0.00276
3945.93778	0.00274
3944.97347	0.00271
3944.00917	0.0027
3943.04486	0.00271
3942.08056	0.00273
3941.11625	0.00274
3940.15195	0.00274
3939.18764	0.00274
3938.22333	0.00274
3937.25903	0.00272
3936.29472	0.00271
3935.33042	0.00273
3934.36611	0.00273
3933.40181	0.00272
3932.4375	0.0027
3931.4732	0.00269
3930.50889	0.00269
3929.54459	0.00271
3928.58028	0.00272
3927.61598	0.00271
3926.65167	0.0027
3925.68736	0.0027
3924.72306	0.00272
3923.75875	0.00273
3922.79445	0.00273
3921.83014	0.00274
3920.86584	0.00273
3919.90153	0.00271
3918.93723	0.00269
3917.97292	0.00272
3917.00862	0.00274
3916.04431	0.00275
3915.08	0.00275
3914.1157	0.00274
3913.15139	0.00272
3912.18709	0.00272
3911.22278	0.00274
3910.25848	0.00276
3909.29417	0.00277
3908.32987	0.00276
3907.36556	0.00277
3906.40126	0.00278
3905.43695	0.00282
3904.47265	0.00287
3903.50834	0.00288
3902.54403	0.00288
3901.57973	0.00291
3900.61542	0.00293
3899.65112	0.00297
3898.68681	0.00301
3897.72251	0.00304
3896.7582	0.00306
3895.7939	0.0031
3894.82959	0.00313
3893.86529	0.00317
3892.90098	0.00323
3891.93667	0.00332
3890.97237	0.00337
3890.00806	0.00336
3889.04376	0.00337
3888.07945	0.00342
3887.11515	0.00351
3886.15084	0.0036
3885.18654	0.00366
3884.22223	0.00367
3883.25793	0.0037
3882.29362	0.00374
3881.32932	0.00381
3880.36501	0.00389
3879.4007	0.00393
3878.4364	0.00397
3877.47209	0.00401
3876.50779	0.00407
3875.54348	0.00413
3874.57918	0.0042
3873.61487	0.00427
3872.65057	0.00433
3871.68626	0.00439
3870.72196	0.00448
3869.75765	0.00457
3868.79334	0.00461
3867.82904	0.00465
3866.86473	0.00471
3865.90043	0.0048
3864.93612	0.00487
3863.97182	0.00491
3863.00751	0.00497
3862.04321	0.00506
3861.0789	0.00513
3860.1146	0.00518
3859.15029	0.00521
3858.18599	0.00526
3857.22168	0.00535
3856.25737	0.00544
3855.29307	0.00559
3854.32876	0.00577
3853.36446	0.00581
3852.40015	0.00579
3851.43585	0.00582
3850.47154	0.00586
3849.50724	0.00593
3848.54293	0.006
3847.57863	0.00606
3846.61432	0.00611
3845.65001	0.00618
3844.68571	0.00627
3843.7214	0.00637
3842.7571	0.00644
3841.79279	0.0065
3840.82849	0.00658
3839.86418	0.00663
3838.89988	0.00672
3837.93557	0.00686
3836.97127	0.00692
3836.00696	0.00696
3835.04266	0.00704
3834.07835	0.00712
3833.11404	0.00718
3832.14974	0.00728
3831.18543	0.00737
3830.22113	0.00744
3829.25682	0.0075
3828.29252	0.00756
3827.32821	0.00764
3826.36391	0.00775
3825.3996	0.00784
3824.4353	0.00795
3823.47099	0.00803
3822.50668	0.00815
3821.54238	0.00825
3820.57807	0.00832
3819.61377	0.0084
3818.64946	0.00849
3817.68516	0.00858
3816.72085	0.00871
3815.75655	0.00881
3814.79224	0.00886
3813.82794	0.00893
3812.86363	0.00904
3811.89932	0.00915
3810.93502	0.00925
3809.97071	0.00934
3809.00641	0.00943
3808.0421	0.00956
3807.0778	0.00972
3806.11349	0.00981
3805.14919	0.00987
3804.18488	0.00995
3803.22058	0.01006
3802.25627	0.01022
3801.29197	0.01038
3800.32766	0.01047
3799.36335	0.01053
3798.39905	0.01063
3797.43474	0.01074
3796.47044	0.01085
3795.50613	0.01095
3794.54183	0.01105
3793.57752	0.01116
3792.61322	0.01128
3791.64891	0.0114
3790.68461	0.0115
3789.7203	0.01162
3788.75599	0.01175
3787.79169	0.01187
3786.82738	0.01198
3785.86308	0.0121
3784.89877	0.01222
3783.93447	0.01233
3782.97016	0.01245
3782.00586	0.01259
3781.04155	0.01273
3780.07725	0.01286
3779.11294	0.01296
3778.14864	0.01306
3777.18433	0.01319
3776.22002	0.01334
3775.25572	0.01349
3774.29141	0.01361
3773.32711	0.01373
3772.3628	0.01385
3771.3985	0.01399
3770.43419	0.01416
3769.46989	0.01432
3768.50558	0.01444
3767.54128	0.01456
3766.57697	0.0147
3765.61266	0.01485
3764.64836	0.01499
3763.68405	0.01513
3762.71975	0.01529
3761.75544	0.01543
3760.79114	0.01558
3759.82683	0.01574
3758.86253	0.0159
3757.89822	0.01607
3756.93392	0.01624
3755.96961	0.01637
3755.00531	0.01649
3754.041	0.01663
3753.07669	0.01685
3752.11239	0.01708
3751.14808	0.01724
3750.18378	0.01743
3749.21947	0.0176
3748.25517	0.0177
3747.29086	0.01781
3746.32656	0.018
3745.36225	0.0183
3744.39795	0.01855
3743.43364	0.01864
3742.46933	0.01871
3741.50503	0.01886
3740.54072	0.01906
3739.57642	0.01927
3738.61211	0.01948
3737.64781	0.01969
3736.6835	0.01991
3735.7192	0.0201
3734.75489	0.02027
3733.79059	0.02045
3732.82628	0.02069
3731.86198	0.02091
3730.89767	0.02106
3729.93336	0.02123
3728.96906	0.02145
3728.00475	0.02169
3727.04045	0.02194
3726.07614	0.02217
3725.11184	0.02237
3724.14753	0.02259
3723.18323	0.02283
3722.21892	0.02307
3721.25462	0.02332
3720.29031	0.02356
3719.326	0.0238
3718.3617	0.02404
3717.39739	0.02428
3716.43309	0.02454
3715.46878	0.02483
3714.50448	0.02511
3713.54017	0.0254
3712.57587	0.02572
3711.61156	0.026
3710.64726	0.02624
3709.68295	0.02655
3708.71865	0.02686
3707.75434	0.02714
3706.79003	0.02745
3705.82573	0.02778
3704.86142	0.02812
3703.89712	0.02845
3702.93281	0.02882
3701.96851	0.02921
3701.0042	0.02955
3700.0399	0.02989
3699.07559	0.03025
3698.11129	0.03065
3697.14698	0.03106
3696.18267	0.03148
3695.21837	0.0319
3694.25406	0.03233
3693.28976	0.03278
3692.32545	0.03324
3691.36115	0.03373
3690.39684	0.03423
3689.43254	0.03476
3688.46823	0.0353
3687.50393	0.03582
3686.53962	0.03635
3685.57531	0.03693
3684.61101	0.03757
3683.6467	0.03822
3682.6824	0.03887
3681.71809	0.03955
3680.75379	0.04023
3679.78948	0.04096
3678.82518	0.0417
3677.86087	0.04248
3676.89657	0.04333
3675.93226	0.04418
3674.96796	0.04498
3674.00365	0.04576
3673.03934	0.04656
3672.07504	0.04744
3671.11073	0.04838
3670.14643	0.0493
3669.18212	0.05018
3668.21782	0.05106
3667.25351	0.05198
3666.28921	0.05296
3665.3249	0.05397
3664.3606	0.05496
3663.39629	0.05595
3662.43198	0.05696
3661.46768	0.058
3660.50337	0.05908
3659.53907	0.06017
3658.57476	0.06127
3657.61046	0.06238
3656.64615	0.06357
3655.68185	0.06473
3654.71754	0.06587
3653.75324	0.06706
3652.78893	0.06827
3651.82463	0.06951
3650.86032	0.07078
3649.89601	0.07207
3648.93171	0.07336
3647.9674	0.07464
3647.0031	0.07593
3646.03879	0.07724
3645.07449	0.07858
3644.11018	0.07995
3643.14588	0.08134
3642.18157	0.08276
3641.21727	0.0842
3640.25296	0.08565
3639.28865	0.0871
3638.32435	0.08857
3637.36004	0.09007
3636.39574	0.0916
3635.43143	0.09316
3634.46713	0.09473
3633.50282	0.0963
3632.53852	0.09785
3631.57421	0.09945
3630.60991	0.10113
3629.6456	0.10288
3628.6813	0.10458
3627.71699	0.10623
3626.75268	0.10789
3625.78838	0.10958
3624.82407	0.11131
3623.85977	0.11309
3622.89546	0.1149
3621.93116	0.11673
3620.96685	0.11858
3620.00255	0.12046
3619.03824	0.12236
3618.07394	0.12426
3617.10963	0.12619
3616.14532	0.12814
3615.18102	0.13011
3614.21671	0.13209
3613.25241	0.13408
3612.2881	0.13613
3611.3238	0.13818
3610.35949	0.14026
3609.39519	0.14241
3608.43088	0.14451
3607.46658	0.1466
3606.50227	0.14875
3605.53797	0.15093
3604.57366	0.15313
3603.60935	0.15532
3602.64505	0.15755
3601.68074	0.15979
3600.71644	0.16207
3599.75213	0.16436
3598.78783	0.16666
3597.82352	0.16897
3596.85922	0.17129
3595.89491	0.17365
3594.93061	0.17605
3593.9663	0.17846
3593.00199	0.18088
3592.03769	0.18331
3591.07338	0.18574
3590.10908	0.18818
3589.14477	0.19067
3588.18047	0.19319
3587.21616	0.19568
3586.25186	0.19821
3585.28755	0.20073
3584.32325	0.20325
3583.35894	0.20581
3582.39464	0.20839
3581.43033	0.21102
3580.46602	0.21364
3579.50172	0.21625
3578.53741	0.21887
3577.57311	0.22148
3576.6088	0.2241
3575.6445	0.22677
3574.68019	0.22943
3573.71589	0.2321
3572.75158	0.23484
3571.78728	0.23756
3570.82297	0.24023
3569.85866	0.24293
3568.89436	0.24573
3567.93005	0.24851
3566.96575	0.25125
3566.00144	0.254
3565.03714	0.25673
3564.07283	0.25948
3563.10853	0.26225
3562.14422	0.26506
3561.17992	0.26786
3560.21561	0.27066
3559.2513	0.27345
3558.287	0.27625
3557.32269	0.27908
3556.35839	0.28195
3555.39408	0.28481
3554.42978	0.28766
3553.46547	0.29046
3552.50117	0.29329
3551.53686	0.29616
3550.57256	0.29904
3549.60825	0.30193
3548.64395	0.30482
3547.67964	0.30773
3546.71533	0.31064
3545.75103	0.31353
3544.78672	0.31642
3543.82242	0.31933
3542.85811	0.32223
3541.89381	0.32514
3540.9295	0.32803
3539.9652	0.33091
3539.00089	0.33382
3538.03659	0.33675
3537.07228	0.3397
3536.10797	0.34264
3535.14367	0.34556
3534.17936	0.34848
3533.21506	0.35143
3532.25075	0.35437
3531.28645	0.35734
3530.32214	0.36035
3529.35784	0.36331
3528.39353	0.36619
3527.42923	0.36906
3526.46492	0.37197
3525.50062	0.37493
3524.53631	0.37786
3523.572	0.3808
3522.6077	0.38376
3521.64339	0.38668
3520.67909	0.38963
3519.71478	0.39258
3518.75048	0.39554
3517.78617	0.39854
3516.82187	0.40146
3515.85756	0.40431
3514.89326	0.40723
3513.92895	0.4102
3512.96464	0.41313
3512.00034	0.41605
3511.03603	0.41895
3510.07173	0.42189
3509.10742	0.4248
3508.14312	0.42766
3507.17881	0.43059
3506.21451	0.43358
3505.2502	0.43648
3504.2859	0.43932
3503.32159	0.44219
3502.35729	0.44507
3501.39298	0.44792
3500.42867	0.45084
3499.46437	0.45374
3498.50006	0.4566
3497.53576	0.45944
3496.57145	0.46228
3495.60715	0.4651
3494.64284	0.46796
3493.67854	0.47084
3492.71423	0.47363
3491.74993	0.47645
3490.78562	0.47934
3489.82131	0.48216
3488.85701	0.48495
3487.8927	0.48778
3486.9284	0.4906
3485.96409	0.4933
3484.99979	0.49603
3484.03548	0.49885
3483.07118	0.5016
3482.10687	0.50427
3481.14257	0.50702
3480.17826	0.50973
3479.21396	0.5124
3478.24965	0.51511
3477.28534	0.51781
3476.32104	0.52053
3475.35673	0.52323
3474.39243	0.52586
3473.42812	0.52845
3472.46382	0.53108
3471.49951	0.53373
3470.53521	0.53634
3469.5709	0.53896
3468.6066	0.54152
3467.64229	0.54405
3466.67798	0.54667
3465.71368	0.54922
3464.74937	0.55175
3463.78507	0.55428
3462.82076	0.55679
3461.85646	0.55922
3460.89215	0.56156
3459.92785	0.56395
3458.96354	0.56643
3457.99924	0.56885
3457.03493	0.5712
3456.07063	0.57357
3455.10632	0.57592
3454.14201	0.57826
3453.17771	0.58061
3452.2134	0.5829
3451.2491	0.58514
3450.28479	0.58725
3449.32049	0.58941
3448.35618	0.59164
3447.39188	0.59384
3446.42757	0.596
3445.46327	0.59813
3444.49896	0.60025
3443.53465	0.60232
3442.57035	0.60437
3441.60604	0.60646
3440.64174	0.60845
3439.67743	0.61027
3438.71313	0.61215
3437.74882	0.61419
3436.78452	0.61605
3435.82021	0.61782
3434.85591	0.61957
3433.8916	0.6214
3432.92729	0.62332
3431.96299	0.62509
3430.99868	0.62669
3430.03438	0.62822
3429.07007	0.62997
3428.10577	0.6318
3427.14146	0.6334
3426.17716	0.63494
3425.21285	0.63643
3424.24855	0.63797
3423.28424	0.63948
3422.31994	0.6409
3421.35563	0.64233
3420.39132	0.64375
3419.42702	0.64508
3418.46271	0.64635
3417.49841	0.64769
3416.5341	0.64894
3415.5698	0.65011
3414.60549	0.65128
3413.64119	0.65234
3412.67688	0.65343
3411.71258	0.65462
3410.74827	0.65569
3409.78396	0.65662
3408.81966	0.65757
3407.85535	0.65853
3406.89105	0.65948
3405.92674	0.66044
3404.96244	0.66133
3403.99813	0.66212
3403.03383	0.66286
3402.06952	0.66372
3401.10522	0.66464
3400.14091	0.66527
3399.17661	0.66578
3398.2123	0.66636
3397.24799	0.66693
3396.28369	0.6675
3395.31938	0.66794
3394.35508	0.66831
3393.39077	0.66869
3392.42647	0.66903
3391.46216	0.66935
3390.49786	0.66963
3389.53355	0.66992
3388.56925	0.67022
3387.60494	0.67042
3386.64063	0.67055
3385.67633	0.67077
3384.71202	0.67097
3383.74772	0.67104
3382.78341	0.67103
3381.81911	0.67089
3380.8548	0.67074
3379.8905	0.67059
3378.92619	0.6705
3377.96189	0.6704
3376.99758	0.67009
3376.03328	0.66981
3375.06897	0.66961
3374.10466	0.66946
3373.14036	0.66921
3372.17605	0.66875
3371.21175	0.66824
3370.24744	0.66761
3369.28314	0.66698
3368.31883	0.66645
3367.35453	0.66595
3366.39022	0.66534
3365.42592	0.66465
3364.46161	0.66409
3363.4973	0.66341
3362.533	0.66265
3361.56869	0.66191
3360.60439	0.66105
3359.64008	0.66017
3358.67578	0.65943
3357.71147	0.65857
3356.74717	0.65748
3355.78286	0.65646
3354.81856	0.65566
3353.85425	0.65478
3352.88995	0.65366
3351.92564	0.65246
3350.96133	0.65124
3349.99703	0.65002
3349.03272	0.64889
3348.06842	0.64775
3347.10411	0.64652
3346.13981	0.64527
3345.1755	0.64402
3344.2112	0.64269
3343.24689	0.64133
3342.28259	0.64003
3341.31828	0.63869
3340.35397	0.63716
3339.38967	0.63565
3338.42536	0.63422
3337.46106	0.63281
3336.49675	0.63135
3335.53245	0.62977
3334.56814	0.62816
3333.60384	0.62654
3332.63953	0.62489
3331.67523	0.62333
3330.71092	0.62171
3329.74661	0.62001
3328.78231	0.6184
3327.818	0.61688
3326.8537	0.61526
3325.88939	0.61351
3324.92509	0.61177
3323.96078	0.60999
3322.99648	0.6082
3322.03217	0.60642
3321.06787	0.60454
3320.10356	0.6026
3319.13926	0.60074
3318.17495	0.59906
3317.21064	0.59739
3316.24634	0.59552
3315.28203	0.59348
3314.31773	0.59153
3313.35342	0.5897
3312.38912	0.58782
3311.42481	0.5858
3310.46051	0.58376
3309.4962	0.58184
3308.5319	0.57992
3307.56759	0.57793
3306.60328	0.57586
3305.63898	0.57378
3304.67467	0.57175
3303.71037	0.56972
3302.74606	0.56766
3301.78176	0.56559
3300.81745	0.56353
3299.85315	0.56148
3298.88884	0.55948
3297.92454	0.55742
3296.96023	0.55528
3295.99593	0.55317
3295.03162	0.55106
3294.06731	0.54898
3293.10301	0.54688
3292.1387	0.54469
3291.1744	0.54254
3290.21009	0.54037
3289.24579	0.53814
3288.28148	0.53593
3287.31718	0.53377
3286.35287	0.53158
3285.38857	0.52939
3284.42426	0.52724
3283.45995	0.52502
3282.49565	0.52279
3281.53134	0.52061
3280.56704	0.5184
3279.60273	0.51616
3278.63843	0.51388
3277.67412	0.51154
3276.70982	0.50919
3275.74551	0.50693
3274.78121	0.50477
3273.8169	0.50251
3272.8526	0.50017
3271.88829	0.49785
3270.92398	0.49554
3269.95968	0.49319
3268.99537	0.49078
3268.03107	0.4885
3267.06676	0.48628
3266.10246	0.48393
3265.13815	0.48152
3264.17385	0.47911
3263.20954	0.47671
3262.24524	0.47436
3261.28093	0.47201
3260.31662	0.46964
3259.35232	0.46726
3258.38801	0.46486
3257.42371	0.46243
3256.4594	0.46004
3255.4951	0.45763
3254.53079	0.45518
3253.56649	0.45268
3252.60218	0.45015
3251.63788	0.44768
3250.67357	0.44524
3249.70927	0.44282
3248.74496	0.44038
3247.78065	0.43791
3246.81635	0.43541
3245.85204	0.43291
3244.88774	0.43045
3243.92343	0.42797
3242.95913	0.42542
3241.99482	0.42285
3241.03052	0.42028
3240.06621	0.4177
3239.10191	0.41516
3238.1376	0.41267
3237.17329	0.41014
3236.20899	0.40759
3235.24468	0.40506
3234.28038	0.4025
3233.31607	0.39991
3232.35177	0.39733
3231.38746	0.39479
3230.42316	0.3922
3229.45885	0.38961
3228.49455	0.38702
3227.53024	0.3844
3226.56594	0.38183
3225.60163	0.37927
3224.63732	0.37665
3223.67302	0.37402
3222.70871	0.3714
3221.74441	0.36877
3220.7801	0.36616
3219.8158	0.36358
3218.85149	0.36098
3217.88719	0.35835
3216.92288	0.3557
3215.95858	0.35308
3214.99427	0.35047
3214.02996	0.34786
3213.06566	0.34528
3212.10135	0.34269
3211.13705	0.34009
3210.17274	0.33745
3209.20844	0.33483
3208.24413	0.33223
3207.27983	0.32964
3206.31552	0.32706
3205.35122	0.32446
3204.38691	0.32187
3203.4226	0.31926
3202.4583	0.3167
3201.49399	0.31413
3200.52969	0.31157
3199.56538	0.30903
3198.60108	0.30646
3197.63677	0.30387
3196.67247	0.30129
3195.70816	0.29878
3194.74386	0.29627
3193.77955	0.29373
3192.81525	0.29121
3191.85094	0.28869
3190.88663	0.28616
3189.92233	0.28368
3188.95802	0.28121
3187.99372	0.27875
3187.02941	0.27629
3186.06511	0.27381
3185.1008	0.27133
3184.1365	0.26888
3183.17219	0.26647
3182.20789	0.26404
3181.24358	0.2616
3180.27927	0.25918
3179.31497	0.2568
3178.35066	0.25443
3177.38636	0.25207
3176.42205	0.24971
3175.45775	0.24735
3174.49344	0.24501
3173.52914	0.24269
3172.56483	0.24037
3171.60053	0.23808
3170.63622	0.23579
3169.67192	0.2335
3168.70761	0.23123
3167.7433	0.22897
3166.779	0.22673
3165.81469	0.22453
3164.85039	0.22233
3163.88608	0.22014
3162.92178	0.21797
3161.95747	0.21577
3160.99317	0.21356
3160.02886	0.2114
3159.06456	0.20928
3158.10025	0.20719
3157.13594	0.2051
3156.17164	0.203
3155.20733	0.2009
3154.24303	0.19884
3153.27872	0.19679
3152.31442	0.19476
3151.35011	0.19276
3150.38581	0.19077
3149.4215	0.18877
3148.4572	0.18675
3147.49289	0.18478
3146.52859	0.18284
3145.56428	0.18091
3144.59997	0.17901
3143.63567	0.17712
3142.67136	0.17524
3141.70706	0.17337
3140.74275	0.17153
3139.77845	0.1697
3138.81414	0.16787
3137.84984	0.16605
3136.88553	0.16423
3135.92123	0.16244
3134.95692	0.16068
3133.99261	0.15895
3133.02831	0.15723
3132.064	0.15552
3131.0997	0.15382
3130.13539	0.15214
3129.17109	0.15046
3128.20678	0.14878
3127.24248	0.14715
3126.27817	0.14552
3125.31387	0.1439
3124.34956	0.14228
3123.38526	0.1407
3122.42095	0.13915
3121.45664	0.1376
3120.49234	0.13607
3119.52803	0.13454
3118.56373	0.13302
3117.59942	0.13152
3116.63512	0.13004
3115.67081	0.12856
3114.70651	0.12712
3113.7422	0.12568
3112.7779	0.12425
3111.81359	0.12283
3110.84928	0.12145
3109.88498	0.12007
3108.92067	0.1187
3107.95637	0.11735
3106.99206	0.11602
3106.02776	0.11468
3105.06345	0.11336
3104.09915	0.11204
3103.13484	0.11077
3102.17054	0.10952
3101.20623	0.10825
3100.24193	0.10696
3099.27762	0.1057
3098.31331	0.10449
3097.34901	0.10332
3096.3847	0.10216
3095.4204	0.10098
3094.45609	0.09977
3093.49179	0.09858
3092.52748	0.09744
3091.56318	0.09633
3090.59887	0.09523
3089.63457	0.09413
3088.67026	0.09302
3087.70595	0.09191
3086.74165	0.09083
3085.77734	0.08979
3084.81304	0.08877
3083.84873	0.08776
3082.88443	0.08672
3081.92012	0.08569
3080.95582	0.08468
3079.99151	0.0837
3079.02721	0.08275
3078.0629	0.0818
3077.09859	0.08084
3076.13429	0.0799
3075.16998	0.07896
3074.20568	0.07804
3073.24137	0.07716
3072.27707	0.07629
3071.31276	0.07541
3070.34846	0.07453
3069.38415	0.07366
3068.41985	0.07281
3067.45554	0.07199
3066.49124	0.07117
3065.52693	0.07039
3064.56262	0.0696
3063.59832	0.06881
3062.63401	0.06802
3061.66971	0.06727
3060.7054	0.06654
3059.7411	0.06583
3058.77679	0.06509
3057.81249	0.06436
3056.84818	0.06365
3055.88388	0.06298
3054.91957	0.06231
3053.95526	0.06166
3052.99096	0.06102
3052.02665	0.06038
3051.06235	0.05974
3050.09804	0.05911
3049.13374	0.05852
3048.16943	0.05794
3047.20513	0.05738
3046.24082	0.05682
3045.27652	0.05626
3044.31221	0.05572
3043.34791	0.05519
3042.3836	0.0547
3041.41929	0.05422
3040.45499	0.05374
3039.49068	0.05327
3038.52638	0.05281
3037.56207	0.05238
3036.59777	0.05197
3035.63346	0.05158
3034.66916	0.05119
3033.70485	0.05082
3032.74055	0.05047
3031.77624	0.05012
3030.81193	0.04981
3029.84763	0.04953
3028.88332	0.04926
3027.91902	0.04902
3026.95471	0.04879
3025.99041	0.04858
3025.0261	0.0484
3024.0618	0.04826
3023.09749	0.04815
3022.13319	0.04806
3021.16888	0.048
3020.20458	0.04797
3019.24027	0.04799
3018.27596	0.04807
3017.31166	0.04818
3016.34735	0.04832
3015.38305	0.04851
3014.41874	0.04874
3013.45444	0.04903
3012.49013	0.0494
3011.52583	0.04985
3010.56152	0.05036
3009.59722	0.05094
3008.63291	0.0516
3007.6686	0.05233
3006.7043	0.05317
3005.73999	0.05413
3004.77569	0.05519
3003.81138	0.05634
3002.84708	0.05761
3001.88277	0.05902
3000.91847	0.06057
2999.95416	0.06229
2998.98986	0.06414
2998.02555	0.06614
2997.06125	0.0683
2996.09694	0.07062
2995.13263	0.07311
2994.16833	0.07576
2993.20402	0.0786
2992.23972	0.08162
2991.27541	0.08481
2990.31111	0.08815
2989.3468	0.09162
2988.3825	0.09524
2987.41819	0.09901
2986.45389	0.1029
2985.48958	0.10687
2984.52527	0.1109
2983.56097	0.11498
2982.59666	0.11908
2981.63236	0.12318
2980.66805	0.12726
2979.70375	0.13126
2978.73944	0.13515
2977.77514	0.13889
2976.81083	0.14247
2975.84653	0.14584
2974.88222	0.14896
2973.91792	0.15181
2972.95361	0.15431
2971.9893	0.15641
2971.025	0.15808
2970.06069	0.15928
2969.09639	0.16003
2968.13208	0.16031
2967.16778	0.1601
2966.20347	0.15944
2965.23917	0.15843
2964.27486	0.15718
2963.31056	0.15584
2962.34625	0.15454
2961.38194	0.15341
2960.41764	0.15258
2959.45333	0.15215
2958.48903	0.15221
2957.52472	0.15282
2956.56042	0.15401
2955.59611	0.15572
2954.63181	0.15793
2953.6675	0.16058
2952.7032	0.16363
2951.73889	0.16705
2950.77458	0.1708
2949.81028	0.17481
2948.84597	0.17902
2947.88167	0.18341
2946.91736	0.18792
2945.95306	0.19256
2944.98875	0.1973
2944.02445	0.20208
2943.06014	0.20685
2942.09584	0.21156
2941.13153	0.21617
2940.16723	0.22064
2939.20292	0.22493
2938.23861	0.229
2937.27431	0.23277
2936.31	0.23617
2935.3457	0.23915
2934.38139	0.24169
2933.41709	0.24379
2932.45278	0.24544
2931.48848	0.24661
2930.52417	0.24725
2929.55987	0.24744
2928.59556	0.24719
2927.63125	0.2465
2926.66695	0.24545
2925.70264	0.24405
2924.73834	0.24231
2923.77403	0.24027
2922.80973	0.23797
2921.84542	0.23543
2920.88112	0.2327
2919.91681	0.22983
2918.95251	0.22686
2917.9882	0.2238
2917.0239	0.22067
2916.05959	0.21753
2915.09528	0.21445
2914.13098	0.21151
2913.16667	0.20867
2912.20237	0.20596
2911.23806	0.20337
2910.27376	0.20093
2909.30945	0.19867
2908.34515	0.19658
2907.38084	0.19463
2906.41654	0.19282
2905.45223	0.19113
2904.48792	0.18954
2903.52362	0.18807
2902.55931	0.18672
2901.59501	0.18546
2900.6307	0.18425
2899.6664	0.18309
2898.70209	0.18197
2897.73779	0.18089
2896.77348	0.17987
2895.80918	0.17889
2894.84487	0.17794
2893.88057	0.177
2892.91626	0.17606
2891.95195	0.17512
2890.98765	0.1742
2890.02334	0.17332
2889.05904	0.17243
2888.09473	0.17151
2887.13043	0.17055
2886.16612	0.16954
2885.20182	0.16847
2884.23751	0.16732
2883.27321	0.16609
2882.3089	0.16473
2881.34459	0.16323
2880.38029	0.16151
2879.41598	0.15962
2878.45168	0.15761
2877.48737	0.15544
2876.52307	0.15307
2875.55876	0.15051
2874.59446	0.1478
2873.63015	0.14495
2872.66585	0.14199
2871.70154	0.13893
2870.73724	0.13584
2869.77293	0.1327
2868.80862	0.12953
2867.84432	0.12633
2866.88001	0.12319
2865.91571	0.12013
2864.9514	0.11713
2863.9871	0.11419
2863.02279	0.11133
2862.05849	0.10855
2861.09418	0.10585
2860.12988	0.10325
2859.16557	0.10077
2858.20126	0.09837
2857.23696	0.09604
2856.27265	0.09379
2855.30835	0.09158
2854.34404	0.08946
2853.37974	0.08744
2852.41543	0.0855
2851.45113	0.0836
2850.48682	0.08175
2849.52252	0.07993
2848.55821	0.07815
2847.59391	0.07646
2846.6296	0.07486
2845.66529	0.07336
2844.70099	0.07195
2843.73668	0.0706
2842.77238	0.06931
2841.80807	0.06811
2840.84377	0.06701
2839.87946	0.06598
2838.91516	0.065
2837.95085	0.06404
2836.98655	0.06312
2836.02224	0.06226
2835.05793	0.06144
2834.09363	0.0607
2833.12932	0.05999
2832.16502	0.05927
2831.20071	0.05855
2830.23641	0.05787
2829.2721	0.05722
2828.3078	0.0566
2827.34349	0.056
2826.37919	0.05539
2825.41488	0.05477
2824.45057	0.05417
2823.48627	0.0536
2822.52196	0.05304
2821.55766	0.05248
2820.59335	0.05193
2819.62905	0.05138
2818.66474	0.05081
2817.70044	0.05024
2816.73613	0.04971
2815.77183	0.0492
2814.80752	0.0487
2813.84322	0.04818
2812.87891	0.04765
2811.9146	0.04712
2810.9503	0.04663
2809.98599	0.04618
2809.02169	0.04573
2808.05738	0.04527
2807.09308	0.0448
2806.12877	0.04432
2805.16447	0.04387
2804.20016	0.04346
2803.23586	0.04307
2802.27155	0.04268
2801.30724	0.04227
2800.34294	0.04184
2799.37863	0.04144
2798.41433	0.04108
2797.45002	0.04074
2796.48572	0.04041
2795.52141	0.04005
2794.55711	0.03969
2793.5928	0.03935
2792.6285	0.03905
2791.66419	0.03878
2790.69989	0.0385
2789.73558	0.03821
2788.77127	0.03791
2787.80697	0.03764
2786.84266	0.03739
2785.87836	0.03717
2784.91405	0.03696
2783.94975	0.03674
2782.98544	0.0365
2782.02114	0.03626
2781.05683	0.03606
2780.09253	0.03587
2779.12822	0.03571
2778.16391	0.03553
2777.19961	0.03535
2776.2353	0.03517
2775.271	0.03499
2774.30669	0.03485
2773.34239	0.03471
2772.37808	0.03457
2771.41378	0.03443
2770.44947	0.03427
2769.48517	0.03411
2768.52086	0.03398
2767.55656	0.03386
2766.59225	0.03374
2765.62794	0.03359
2764.66364	0.03344
2763.69933	0.03328
2762.73503	0.03313
2761.77072	0.033
2760.80642	0.03288
2759.84211	0.03274
2758.87781	0.03258
2757.9135	0.03242
2756.9492	0.03227
2755.98489	0.03213
2755.02058	0.032
2754.05628	0.03187
2753.09197	0.03172
2752.12767	0.03157
2751.16336	0.03144
2750.19906	0.0313
2749.23475	0.03116
2748.27045	0.03105
2747.30614	0.03092
2746.34184	0.03078
2745.37753	0.03064
2744.41323	0.03052
2743.44892	0.03041
2742.48461	0.0303
2741.52031	0.03019
2740.556	0.03008
2739.5917	0.02994
2738.62739	0.02982
2737.66309	0.0297
2736.69878	0.0296
2735.73448	0.02952
2734.77017	0.02939
2733.80587	0.02925
2732.84156	0.02911
2731.87725	0.02898
2730.91295	0.02887
2729.94864	0.02874
2728.98434	0.0286
2728.02003	0.02844
2727.05573	0.02827
2726.09142	0.02812
2725.12712	0.02798
2724.16281	0.02783
2723.19851	0.02766
2722.2342	0.0275
2721.2699	0.02732
2720.30559	0.02715
2719.34128	0.02698
2718.37698	0.02682
2717.41267	0.02666
2716.44837	0.02649
2715.48406	0.02631
2714.51976	0.02615
2713.55545	0.02599
2712.59115	0.02583
2711.62684	0.02567
2710.66254	0.02551
2709.69823	0.02535
2708.73392	0.0252
2707.76962	0.02505
2706.80531	0.0249
2705.84101	0.02477
2704.8767	0.02463
2703.9124	0.02449
2702.94809	0.02435
2701.98379	0.02422
2701.01948	0.02408
2700.05518	0.02396
2699.09087	0.02385
2698.12656	0.02373
2697.16226	0.02361
2696.19795	0.02349
2695.23365	0.02339
2694.26934	0.02328
2693.30504	0.02318
2692.34073	0.02309
2691.37643	0.02299
2690.41212	0.02289
2689.44782	0.02281
2688.48351	0.02272
2687.51921	0.02263
2686.5549	0.02255
2685.59059	0.02248
2684.62629	0.02239
2683.66198	0.0223
2682.69768	0.02223
2681.73337	0.02215
2680.76907	0.02207
2679.80476	0.02201
2678.84046	0.02194
2677.87615	0.02184
2676.91185	0.02174
2675.94754	0.02165
2674.98323	0.02157
2674.01893	0.02151
2673.05462	0.02143
2672.09032	0.02131
2671.12601	0.02119
2670.16171	0.02107
2669.1974	0.02097
2668.2331	0.02089
2667.26879	0.0208
2666.30449	0.02069
2665.34018	0.02054
2664.37588	0.0204
2663.41157	0.02029
2662.44726	0.02018
2661.48296	0.02006
2660.51865	0.01993
2659.55435	0.01977
2658.59004	0.01961
2657.62574	0.01947
2656.66143	0.01937
2655.69713	0.01926
2654.73282	0.01913
2653.76852	0.01895
2652.80421	0.01877
2651.8399	0.01862
2650.8756	0.01849
2649.91129	0.01836
2648.94699	0.01822
2647.98268	0.01806
2647.01838	0.0179
2646.05407	0.01774
2645.08977	0.0176
2644.12546	0.01747
2643.16116	0.01735
2642.19685	0.01718
2641.23255	0.017
2640.26824	0.01684
2639.30393	0.0167
2638.33963	0.01657
2637.37532	0.01645
2636.41102	0.0163
2635.44671	0.01612
2634.48241	0.01596
2633.5181	0.01582
2632.5538	0.0157
2631.58949	0.0156
2630.62519	0.01545
2629.66088	0.01528
2628.69657	0.01511
2627.73227	0.01496
2626.76796	0.01487
2625.80366	0.01476
2624.83935	0.01463
2623.87505	0.01447
2622.91074	0.01431
2621.94644	0.01417
2620.98213	0.01407
2620.01783	0.01399
2619.05352	0.01389
2618.08922	0.01375
2617.12491	0.0136
2616.1606	0.01347
2615.1963	0.01337
2614.23199	0.01329
2613.26769	0.01321
2612.30338	0.01309
2611.33908	0.01297
2610.37477	0.01286
2609.41047	0.01278
2608.44616	0.01271
2607.48186	0.01264
2606.51755	0.01255
2605.55324	0.01245
2604.58894	0.01235
2603.62463	0.01227
2602.66033	0.01222
2601.69602	0.01217
2600.73172	0.01211
2599.76741	0.01204
2598.80311	0.01198
2597.8388	0.01192
2596.8745	0.01187
2595.91019	0.01185
2594.94589	0.01181
2593.98158	0.01177
2593.01727	0.01173
2592.05297	0.01168
2591.08866	0.01165
2590.12436	0.01163
2589.16005	0.01163
2588.19575	0.0116
2587.23144	0.01155
2586.26714	0.0115
2585.30283	0.01146
2584.33853	0.01144
2583.37422	0.01143
2582.40991	0.01141
2581.44561	0.01138
2580.4813	0.01133
2579.517	0.01128
2578.55269	0.01123
2577.58839	0.01121
2576.62408	0.01119
2575.65978	0.01115
2574.69547	0.0111
2573.73117	0.01104
2572.76686	0.011
2571.80255	0.01096
2570.83825	0.01093
2569.87394	0.0109
2568.90964	0.01085
2567.94533	0.01078
2566.98103	0.01072
2566.01672	0.01068
2565.05242	0.01066
2564.08811	0.01063
2563.12381	0.0106
2562.1595	0.01054
2561.1952	0.0105
2560.23089	0.01044
2559.26658	0.01041
2558.30228	0.0104
2557.33797	0.01039
2556.37367	0.01031
2555.40936	0.01025
2554.44506	0.01021
2553.48075	0.01019
2552.51645	0.01018
2551.55214	0.01015
2550.58784	0.0101
2549.62353	0.01001
2548.65922	0.00996
2547.69492	0.00994
2546.73061	0.00993
2545.76631	0.00991
2544.802	0.00986
2543.8377	0.00978
2542.87339	0.00972
2541.90909	0.00968
2540.94478	0.00965
2539.98048	0.00963
2539.01617	0.00959
2538.05187	0.00951
2537.08756	0.00943
2536.12325	0.00939
2535.15895	0.00937
2534.19464	0.00934
2533.23034	0.00929
2532.26603	0.00922
2531.30173	0.00914
2530.33742	0.0091
2529.37312	0.00908
2528.40881	0.00905
2527.44451	0.00901
2526.4802	0.00894
2525.51589	0.00887
2524.55159	0.00884
2523.58728	0.00881
2522.62298	0.0088
2521.65867	0.00878
2520.69437	0.00873
2519.73006	0.00868
2518.76576	0.00864
2517.80145	0.00861
2516.83715	0.0086
2515.87284	0.00859
2514.90854	0.00855
2513.94423	0.00851
2512.97992	0.00848
2512.01562	0.00846
2511.05131	0.00845
2510.08701	0.00844
2509.1227	0.00841
2508.1584	0.00838
2507.19409	0.00836
2506.22979	0.00835
2505.26548	0.00834
2504.30118	0.00833
2503.33687	0.00832
2502.37256	0.0083
2501.40826	0.00827
2500.44395	0.00825
2499.47965	0.00824
2498.51534	0.00824
2497.55104	0.00823
2496.58673	0.0082
2495.62243	0.00817
2494.65812	0.00815
2493.69382	0.00814
2492.72951	0.00812
2491.76521	0.00809
2490.8009	0.00805
2489.83659	0.00802
2488.87229	0.00799
2487.90798	0.00795
2486.94368	0.00792
2485.97937	0.00789
2485.01507	0.00785
2484.05076	0.00782
2483.08646	0.00779
2482.12215	0.00774
2481.15785	0.00769
2480.19354	0.00764
2479.22923	0.00761
2478.26493	0.00756
2477.30062	0.00752
2476.33632	0.00747
2475.37201	0.00743
2474.40771	0.00737
2473.4434	0.00733
2472.4791	0.00729
2471.51479	0.00725
2470.55049	0.0072
2469.58618	0.00714
2468.62188	0.00709
2467.65757	0.00704
2466.69326	0.00701
2465.72896	0.00697
2464.76465	0.00694
2463.80035	0.00688
2462.83604	0.00682
2461.87174	0.00677
2460.90743	0.00675
2459.94313	0.00673
2458.97882	0.00667
2458.01452	0.00661
2457.05021	0.00656
2456.0859	0.00651
2455.1216	0.00649
2454.15729	0.00646
2453.19299	0.00642
2452.22868	0.00635
2451.26438	0.00627
2450.30007	0.00624
2449.33577	0.00621
2448.37146	0.00617
2447.40716	0.00613
2446.44285	0.00607
2445.47854	0.00598
2444.51424	0.00594
2443.54993	0.00591
2442.58563	0.00588
2441.62132	0.00584
2440.65702	0.00578
2439.69271	0.0057
2438.72841	0.00564
2437.7641	0.0056
2436.7998	0.00558
2435.83549	0.00552
2434.87119	0.00546
2433.90688	0.00538
2432.94257	0.00531
2431.97827	0.00526
2431.01396	0.00523
2430.04966	0.00519
2429.08535	0.00511
2428.12105	0.00503
2427.15674	0.00496
2426.19244	0.00493
2425.22813	0.00492
2424.26383	0.00491
2423.29952	0.00486
2422.33521	0.0048
2421.37091	0.00475
2420.4066	0.00472
2419.4423	0.00471
2418.47799	0.00469
2417.51369	0.00465
2416.54938	0.0046
2415.58508	0.00455
2414.62077	0.00453
2413.65647	0.00452
2412.69216	0.00451
2411.72786	0.00449
2410.76355	0.00444
2409.79924	0.00441
2408.83494	0.00439
2407.87063	0.00439
2406.90633	0.00437
2405.94202	0.00434
2404.97772	0.00429
2404.01341	0.00425
2403.04911	0.00424
2402.0848	0.00425
2401.1205	0.00424
2400.15619	0.00421
2399.19188	0.00417
2398.22758	0.00413
2397.26327	0.00411
2396.29897	0.00411
2395.33466	0.0041
2394.37036	0.00409
2393.40605	0.00406
2392.44175	0.00402
2391.47744	0.004
2390.51314	0.004
2389.54883	0.00401
2388.58453	0.00399
2387.62022	0.00396
2386.65591	0.00393
2385.69161	0.00392
2384.7273	0.00392
2383.763	0.00391
2382.79869	0.00389
2381.83439	0.00386
2380.87008	0.00384
2379.90578	0.00383
2378.94147	0.00383
2377.97717	0.00384
2377.01286	0.00383
2376.04855	0.0038
2375.08425	0.00376
2374.11994	0.00374
2373.15564	0.00375
2372.19133	0.00377
2371.22703	0.00375
2370.26272	0.00372
2369.29842	0.00368
2368.33411	0.00367
2367.36981	0.00366
2366.4055	0.00366
2365.4412	0.00365
2364.47689	0.00363
2363.51258	0.00359
2362.54828	0.00357
2361.58397	0.00358
2360.61967	0.00357
2359.65536	0.00356
2358.69106	0.00354
2357.72675	0.0035
2356.76245	0.00348
2355.79814	0.0035
2354.83384	0.00351
2353.86953	0.0035
2352.90522	0.00346
2351.94092	0.00342
2350.97661	0.0034
2350.01231	0.0034
2349.048	0.00342
2348.0837	0.0034
2347.11939	0.00337
2346.15509	0.00334
2345.19078	0.00331
2344.22648	0.00332
2343.26217	0.00334
2342.29786	0.00336
2341.33356	0.00337
2340.36925	0.00337
2339.40495	0.00342
2338.44064	0.00347
2337.47634	0.00351
2336.51203	0.00355
2335.54773	0.00353
2334.58342	0.00346
2333.61912	0.00341
2332.65481	0.00341
2331.69051	0.00343
2330.7262	0.00342
2329.76189	0.00341
2328.79759	0.00338
2327.83328	0.00337
2326.86898	0.00338
2325.90467	0.00341
2324.94037	0.00341
2323.97606	0.00338
2323.01176	0.00337
2322.04745	0.00337
2321.08315	0.00339
2320.11884	0.0034
2319.15453	0.0034
2318.19023	0.00338
2317.22592	0.00337
2316.26162	0.00337
2315.29731	0.00339
2314.33301	0.0034
2313.3687	0.00341
2312.4044	0.00339
2311.44009	0.00337
2310.47579	0.00338
2309.51148	0.00341
2308.54718	0.00342
2307.58287	0.00342
2306.61856	0.0034
2305.65426	0.00338
2304.68995	0.00337
2303.72565	0.0034
2302.76134	0.00342
2301.79704	0.00342
2300.83273	0.0034
2299.86843	0.00339
2298.90412	0.00338
2297.93982	0.00339
2296.97551	0.00341
2296.0112	0.00341
2295.0469	0.00339
2294.08259	0.00337
2293.11829	0.00337
2292.15398	0.00339
2291.18968	0.00343
2290.22537	0.00344
2289.26107	0.00341
2288.29676	0.00339
2287.33246	0.0034
2286.36815	0.00342
2285.40385	0.00345
2284.43954	0.00346
2283.47523	0.00347
2282.51093	0.00345
2281.54662	0.00345
2280.58232	0.00348
2279.61801	0.00351
2278.65371	0.00354
2277.6894	0.00355
2276.7251	0.00356
2275.76079	0.00358
2274.79649	0.00362
2273.83218	0.00367
2272.86787	0.0037
2271.90357	0.00372
2270.93926	0.00374
2269.97496	0.00376
2269.01065	0.0038
2268.04635	0.00386
2267.08204	0.00391
2266.11774	0.00393
2265.15343	0.00395
2264.18913	0.00398
2263.22482	0.004
2262.26052	0.00406
2261.29621	0.00413
2260.3319	0.00417
2259.3676	0.00418
2258.40329	0.00419
2257.43899	0.00422
2256.47468	0.00428
2255.51038	0.00433
2254.54607	0.00438
2253.58177	0.0044
2252.61746	0.0044
2251.65316	0.00443
2250.68885	0.00447
2249.72454	0.00451
2248.76024	0.00457
2247.79593	0.0046
2246.83163	0.00461
2245.86732	0.00462
2244.90302	0.00467
2243.93871	0.00473
2242.97441	0.00479
2242.0101	0.00483
2241.0458	0.00484
2240.08149	0.00485
2239.11719	0.00489
2238.15288	0.00495
2237.18857	0.00501
2236.22427	0.00504
2235.25996	0.00506
2234.29566	0.00508
2233.33135	0.00511
2232.36705	0.00517
2231.40274	0.00523
2230.43844	0.00527
2229.47413	0.00532
2228.50983	0.00536
2227.54552	0.00538
2226.58121	0.0054
2225.61691	0.00546
2224.6526	0.00554
2223.6883	0.00559
2222.72399	0.00562
2221.75969	0.00564
2220.79538	0.00569
2219.83108	0.00576
2218.86677	0.00584
2217.90247	0.0059
2216.93816	0.00593
2215.97385	0.00594
2215.00955	0.00597
2214.04524	0.00605
2213.08094	0.00614
2212.11663	0.00621
2211.15233	0.00627
2210.18802	0.00628
2209.22372	0.00632
2208.25941	0.00641
2207.29511	0.00651
2206.3308	0.00659
2205.3665	0.00665
2204.40219	0.00668
2203.43788	0.00672
2202.47358	0.00681
2201.50927	0.00692
2200.54497	0.00701
2199.58066	0.00707
2198.61636	0.0071
2197.65205	0.00714
2196.68775	0.00722
2195.72344	0.00731
2194.75914	0.00741
2193.79483	0.00749
2192.83052	0.00753
2191.86622	0.00756
2190.90191	0.00762
2189.93761	0.0077
2188.9733	0.00781
2188.009	0.00788
2187.04469	0.00792
2186.08039	0.00795
2185.11608	0.00801
2184.15178	0.00808
2183.18747	0.00818
2182.22317	0.00826
2181.25886	0.00829
2180.29455	0.00832
2179.33025	0.00837
2178.36594	0.00845
2177.40164	0.00854
2176.43733	0.00863
2175.47303	0.00868
2174.50872	0.00872
2173.54442	0.00876
2172.58011	0.00883
2171.61581	0.00892
2170.6515	0.00901
2169.68719	0.00909
2168.72289	0.00912
2167.75858	0.00915
2166.79428	0.00919
2165.82997	0.00928
2164.86567	0.00937
2163.90136	0.00944
2162.93706	0.00948
2161.97275	0.0095
2161.00845	0.00954
2160.04414	0.00961
2159.07984	0.00969
2158.11553	0.00974
2157.15122	0.00976
2156.18692	0.00976
2155.22261	0.00978
2154.25831	0.00982
2153.294	0.00988
2152.3297	0.00992
2151.36539	0.00994
2150.40109	0.00993
2149.43678	0.00993
2148.47248	0.00995
2147.50817	0.00997
2146.54386	0.01
2145.57956	0.01002
2144.61525	0.01001
2143.65095	0.00999
2142.68664	0.01
2141.72234	0.01001
2140.75803	0.01003
2139.79373	0.01006
2138.82942	0.01005
2137.86512	0.01002
2136.90081	0.01001
2135.93651	0.01003
2134.9722	0.01006
2134.00789	0.01009
2133.04359	0.01008
2132.07928	0.01005
2131.11498	0.01004
2130.15067	0.01005
2129.18637	0.01006
2128.22206	0.01008
2127.25776	0.0101
2126.29345	0.01008
2125.32915	0.01004
2124.36484	0.01004
2123.40053	0.01007
2122.43623	0.0101
2121.47192	0.01011
2120.50762	0.0101
2119.54331	0.01009
2118.57901	0.01007
2117.6147	0.01007
2116.6504	0.01009
2115.68609	0.01011
2114.72179	0.01011
2113.75748	0.0101
2112.79318	0.01009
2111.82887	0.01009
2110.86456	0.01012
2109.90026	0.01015
2108.93595	0.01016
2107.97165	0.01015
2107.00734	0.01014
2106.04304	0.01014
2105.07873	0.01016
2104.11443	0.01017
2103.15012	0.01019
2102.18582	0.0102
2101.22151	0.01019
2100.2572	0.01019
2099.2929	0.01019
2098.32859	0.01022
2097.36429	0.01024
2096.39998	0.01026
2095.43568	0.01024
2094.47137	0.01022
2093.50707	0.01022
2092.54276	0.01025
2091.57846	0.01029
2090.61415	0.01032
2089.64984	0.01031
2088.68554	0.01029
2087.72123	0.01028
2086.75693	0.0103
2085.79262	0.01033
2084.82832	0.01037
2083.86401	0.01039
2082.89971	0.01036
2081.9354	0.01034
2080.9711	0.01035
2080.00679	0.01037
2079.04249	0.01041
2078.07818	0.01042
2077.11387	0.0104
2076.14957	0.01038
2075.18526	0.01037
2074.22096	0.01038
2073.25665	0.01041
2072.29235	0.01044
2071.32804	0.01043
2070.36374	0.01038
2069.39943	0.01034
2068.43513	0.01035
2067.47082	0.01037
2066.50651	0.01038
2065.54221	0.01037
2064.5779	0.01032
2063.6136	0.01025
2062.64929	0.01024
2061.68499	0.01026
2060.72068	0.01028
2059.75638	0.01025
2058.79207	0.01017
2057.82777	0.01009
2056.86346	0.01003
2055.89916	0.01002
2054.93485	0.01004
2053.97054	0.01001
2053.00624	0.00994
2052.04193	0.00983
2051.07763	0.00976
2050.11332	0.00973
2049.14902	0.00972
2048.18471	0.00969
2047.22041	0.00959
2046.2561	0.00946
2045.2918	0.00936
2044.32749	0.0093
2043.36318	0.00928
2042.39888	0.00924
2041.43457	0.00915
2040.47027	0.009
2039.50596	0.00887
2038.54166	0.00878
2037.57735	0.00874
2036.61305	0.00869
2035.64874	0.0086
2034.68444	0.00844
2033.72013	0.00827
2032.75583	0.00815
2031.79152	0.0081
2030.82721	0.00803
2029.86291	0.00793
2028.8986	0.00778
2027.9343	0.00761
2026.96999	0.00746
2026.00569	0.0074
2025.04138	0.00736
2024.07708	0.00726
2023.11277	0.00712
2022.14847	0.00695
2021.18416	0.0068
2020.21985	0.00672
2019.25555	0.0067
2018.29124	0.00663
2017.32694	0.0065
2016.36263	0.00634
2015.39833	0.00621
2014.43402	0.00613
2013.46972	0.00612
2012.50541	0.0061
2011.54111	0.006
2010.5768	0.00586
2009.6125	0.00575
2008.64819	0.00569
2007.68388	0.00568
2006.71958	0.00566
2005.75527	0.00559
2004.79097	0.00547
2003.82666	0.00537
2002.86236	0.00533
2001.89805	0.00533
2000.93375	0.00533
1999.96944	0.00529
1999.00514	0.0052
1998.04083	0.0051
1997.07652	0.00505
1996.11222	0.00507
1995.14791	0.00508
1994.18361	0.00505
1993.2193	0.00498
1992.255	0.00491
1991.29069	0.00486
1990.32639	0.00486
1989.36208	0.00489
1988.39778	0.00488
1987.43347	0.00482
1986.46917	0.00475
1985.50486	0.0047
1984.54055	0.00471
1983.57625	0.00474
1982.61194	0.00474
1981.64764	0.0047
1980.68333	0.00465
1979.71903	0.00464
1978.75472	0.00463
1977.79042	0.00466
1976.82611	0.00468
1975.86181	0.00467
1974.8975	0.00461
1973.93319	0.00458
1972.96889	0.00459
1972.00458	0.00461
1971.04028	0.00462
1970.07597	0.00463
1969.11167	0.0046
1968.14736	0.00459
1967.18306	0.0046
1966.21875	0.00463
1965.25445	0.00463
1964.29014	0.00462
1963.32583	0.00461
1962.36153	0.0046
1961.39722	0.00461
1960.43292	0.00465
1959.46861	0.00465
1958.50431	0.00464
1957.54	0.00462
1956.5757	0.00462
1955.61139	0.00464
1954.64709	0.00466
1953.68278	0.00466
1952.71848	0.00465
1951.75417	0.00462
1950.78986	0.00463
1949.82556	0.00465
1948.86125	0.00465
1947.89695	0.00462
1946.93264	0.00459
1945.96834	0.00456
1945.00403	0.00456
1944.03973	0.00458
1943.07542	0.0046
1942.11112	0.00456
1941.14681	0.0045
1940.1825	0.00447
1939.2182	0.00446
1938.25389	0.00447
1937.28959	0.00447
1936.32528	0.00443
1935.36098	0.00437
1934.39667	0.00431
1933.43237	0.00431
1932.46806	0.00432
1931.50376	0.00433
1930.53945	0.00429
1929.57515	0.00423
1928.61084	0.00417
1927.64653	0.00417
1926.68223	0.0042
1925.71792	0.00421
1924.75362	0.00417
1923.78931	0.00411
1922.82501	0.00404
1921.8607	0.00402
1920.8964	0.00405
1919.93209	0.00407
1918.96779	0.00406
1918.00348	0.00401
1917.03917	0.00393
1916.07487	0.00389
1915.11056	0.00391
1914.14626	0.00395
1913.18195	0.00393
1912.21765	0.00386
1911.25334	0.00377
1910.28904	0.00374
1909.32473	0.00375
1908.36043	0.00381
1907.39612	0.00381
1906.43182	0.00373
1905.46751	0.00363
1904.5032	0.00359
1903.5389	0.00361
1902.57459	0.00367
1901.61029	0.00369
1900.64598	0.00364
1899.68168	0.00354
1898.71737	0.00348
1897.75307	0.0035
1896.78876	0.00356
1895.82446	0.0036
1894.86015	0.00355
1893.89584	0.00345
1892.93154	0.00338
1891.96723	0.0034
1891.00293	0.00347
1890.03862	0.00353
1889.07432	0.00352
1888.11001	0.00344
1887.14571	0.00335
1886.1814	0.00334
1885.2171	0.00341
1884.25279	0.00348
1883.28849	0.00348
1882.32418	0.00343
1881.35987	0.00334
1880.39557	0.0033
1879.43126	0.00335
1878.46696	0.00345
1877.50265	0.00348
1876.53835	0.0034
1875.57404	0.00331
1874.60974	0.00326
1873.64543	0.00328
1872.68113	0.00335
1871.71682	0.00339
1870.75251	0.00335
1869.78821	0.00326
1868.8239	0.0032
1867.8596	0.00321
1866.89529	0.00327
1865.93099	0.0033
1864.96668	0.00326
1864.00238	0.00315
1863.03807	0.00306
1862.07377	0.00306
1861.10946	0.00311
1860.14516	0.00314
1859.18085	0.00311
1858.21654	0.00302
1857.25224	0.00291
1856.28793	0.00288
1855.32363	0.00294
1854.35932	0.00297
1853.39502	0.00295
1852.43071	0.00287
1851.46641	0.00277
1850.5021	0.00271
1849.5378	0.00271
1848.57349	0.00273
1847.60918	0.00271
1846.64488	0.00262
1845.68057	0.0025
1844.71627	0.00245
1843.75196	0.00243
1842.78766	0.00241
1841.82335	0.00239
1840.85905	0.00232
1839.89474	0.00221
1838.93044	0.00212
1837.96613	0.00209
1837.00182	0.00211
1836.03752	0.00213
1835.07321	0.00208
1834.10891	0.002
1833.1446	0.00193
1832.1803	0.00191
1831.21599	0.00193
1830.25169	0.00197
1829.28738	0.00195
1828.32308	0.00188
1827.35877	0.0018
1826.39447	0.00179
1825.43016	0.00183
1824.46585	0.00183
1823.50155	0.00182
1822.53724	0.00177
1821.57294	0.00172
1820.60863	0.00169
1819.64433	0.0017
1818.68002	0.00174
1817.71572	0.00174
1816.75141	0.00172
1815.78711	0.00168
1814.8228	0.00165
1813.85849	0.00164
1812.89419	0.00167
1811.92988	0.00171
1810.96558	0.00171
1810.00127	0.0017
1809.03697	0.00168
1808.07266	0.00166
1807.10836	0.00167
1806.14405	0.0017
1805.17975	0.00173
1804.21544	0.00173
1803.25114	0.00173
1802.28683	0.00174
1801.32252	0.00174
1800.35822	0.00177
1799.39391	0.0018
1798.42961	0.00182
1797.4653	0.00183
1796.501	0.00185
1795.53669	0.00184
1794.57239	0.00185
1793.60808	0.00192
1792.64378	0.00199
1791.67947	0.00201
1790.71516	0.00199
1789.75086	0.00197
1788.78655	0.00195
1787.82225	0.00199
1786.85794	0.00204
1785.89364	0.0021
1784.92933	0.00213
1783.96503	0.00208
1783.00072	0.00205
1782.03642	0.00209
1781.07211	0.00218
1780.10781	0.00226
1779.1435	0.00224
1778.17919	0.00218
1777.21489	0.00215
1776.25058	0.00219
1775.28628	0.00225
1774.32197	0.00232
1773.35767	0.00237
1772.39336	0.00235
1771.42906	0.00229
1770.46475	0.00227
1769.50045	0.00234
1768.53614	0.00244
1767.57183	0.00248
1766.60753	0.00244
1765.64322	0.00239
1764.67892	0.00241
1763.71461	0.0025
1762.75031	0.00262
1761.786	0.00271
1760.8217	0.00271
1759.85739	0.00267
1758.89309	0.00267
1757.92878	0.00276
1756.96448	0.00292
1756.00017	0.00303
1755.03586	0.00306
1754.07156	0.00307
1753.10725	0.00309
1752.14295	0.00322
1751.17864	0.0034
1750.21434	0.00354
1749.25003	0.00361
1748.28573	0.00363
1747.32142	0.00366
1746.35712	0.00373
1745.39281	0.00387
1744.4285	0.00404
1743.4642	0.00415
1742.49989	0.00417
1741.53559	0.00417
1740.57128	0.00426
1739.60698	0.00441
1738.64267	0.00454
1737.67837	0.00464
1736.71406	0.00469
1735.74976	0.00472
1734.78545	0.00484
1733.82115	0.00498
1732.85684	0.0051
1731.89253	0.00521
1730.92823	0.00531
1729.96392	0.00535
1728.99962	0.0054
1728.03531	0.00552
1727.07101	0.00571
1726.1067	0.00591
1725.1424	0.00606
1724.17809	0.00616
1723.21379	0.00624
1722.24948	0.00637
1721.28517	0.00658
1720.32087	0.00684
1719.35656	0.00708
1718.39226	0.00728
1717.42795	0.00742
1716.46365	0.00753
1715.49934	0.00777
1714.53504	0.00809
1713.57073	0.00837
1712.60643	0.00857
1711.64212	0.00874
1710.67781	0.00897
1709.71351	0.00926
1708.7492	0.00963
1707.7849	0.01006
1706.82059	0.0104
1705.85629	0.01067
1704.89198	0.01096
1703.92768	0.01132
1702.96337	0.01177
1701.99907	0.0123
1701.03476	0.01285
1700.07046	0.01328
1699.10615	0.01361
1698.14184	0.01404
1697.17754	0.01464
1696.21323	0.01534
1695.24893	0.01599
1694.28462	0.01651
1693.32032	0.01702
1692.35601	0.01762
1691.39171	0.01834
1690.4274	0.01917
1689.4631	0.02001
1688.49879	0.02079
1687.53448	0.02151
1686.57018	0.02226
1685.60587	0.02318
1684.64157	0.02423
1683.67726	0.02526
1682.71296	0.0262
1681.74865	0.02707
1680.78435	0.02798
1679.82004	0.029
1678.85574	0.03017
1677.89143	0.03137
1676.92713	0.03252
1675.96282	0.03364
1674.99851	0.0347
1674.03421	0.03577
1673.0699	0.03699
1672.1056	0.03832
1671.14129	0.03957
1670.17699	0.04071
1669.21268	0.04181
1668.24838	0.04292
1667.28407	0.04412
1666.31977	0.04541
1665.35546	0.04665
1664.39115	0.04778
1663.42685	0.04884
1662.46254	0.04991
1661.49824	0.051
1660.53393	0.05214
1659.56963	0.05326
1658.60532	0.05425
1657.64102	0.0551
1656.67671	0.05591
1655.71241	0.05678
1654.7481	0.05773
1653.7838	0.05866
1652.81949	0.05941
1651.85518	0.0599
1650.89088	0.0603
1649.92657	0.06077
1648.96227	0.06133
1647.99796	0.06186
1647.03366	0.06222
1646.06935	0.06241
1645.10505	0.06244
1644.14074	0.06247
1643.17644	0.06255
1642.21213	0.06263
1641.24782	0.06256
1640.28352	0.06229
1639.31921	0.06187
1638.35491	0.06143
1637.3906	0.06103
1636.4263	0.06064
1635.46199	0.06013
1634.49769	0.05936
1633.53338	0.05842
1632.56908	0.05748
1631.60477	0.05659
1630.64047	0.05571
1629.67616	0.05474
1628.71185	0.05363
1627.74755	0.05237
1626.78324	0.05106
1625.81894	0.04981
1624.85463	0.04862
1623.89033	0.04741
1622.92602	0.04605
1621.96172	0.04456
1620.99741	0.04306
1620.03311	0.04166
1619.0688	0.04034
1618.10449	0.03908
1617.14019	0.0378
1616.17588	0.03639
1615.21158	0.03493
1614.24727	0.03359
1613.28297	0.03238
1612.31866	0.03123
1611.35436	0.03001
1610.39005	0.02878
1609.42575	0.02758
1608.46144	0.02649
1607.49714	0.02551
1606.53283	0.02459
1605.56852	0.02364
1604.60422	0.02265
1603.63991	0.02172
1602.67561	0.02088
1601.7113	0.02013
1600.747	0.01943
1599.78269	0.01872
1598.81839	0.01797
1597.85408	0.01726
1596.88978	0.01664
1595.92547	0.0161
1594.96116	0.01559
1593.99686	0.01505
1593.03255	0.0145
1592.06825	0.01399
1591.10394	0.01356
1590.13964	0.0132
1589.17533	0.01287
1588.21103	0.01249
1587.24672	0.0121
1586.28242	0.01176
1585.31811	0.01149
1584.3538	0.01128
1583.3895	0.01106
1582.42519	0.01079
1581.46089	0.01051
1580.49658	0.01031
1579.53228	0.01018
1578.56797	0.0101
1577.60367	0.01
1576.63936	0.00985
1575.67506	0.00964
1574.71075	0.00946
1573.74645	0.00942
1572.78214	0.0094
1571.81783	0.00933
1570.85353	0.00922
1569.88922	0.00911
1568.92492	0.00901
1567.96061	0.00899
1566.99631	0.00904
1566.032	0.00905
1565.0677	0.00896
1564.10339	0.00882
1563.13909	0.00874
1562.17478	0.0088
1561.21047	0.00893
1560.24617	0.00902
1559.28186	0.00896
1558.31756	0.00885
1557.35325	0.00878
1556.38895	0.0088
1555.42464	0.00894
1554.46034	0.00905
1553.49603	0.009
1552.53173	0.00886
1551.56742	0.00884
1550.60312	0.00898
1549.63881	0.00918
1548.6745	0.00929
1547.7102	0.0093
1546.74589	0.00924
1545.78159	0.00923
1544.81728	0.00936
1543.85298	0.00959
1542.88867	0.00981
1541.92437	0.0099
1540.96006	0.00985
1539.99576	0.00987
1539.03145	0.01003
1538.06714	0.01026
1537.10284	0.01047
1536.13853	0.01057
1535.17423	0.01061
1534.20992	0.0107
1533.24562	0.01087
1532.28131	0.01114
1531.31701	0.01144
1530.3527	0.01162
1529.3884	0.01169
1528.42409	0.01177
1527.45979	0.01198
1526.49548	0.01231
1525.53117	0.01268
1524.56687	0.01292
1523.60256	0.01304
1522.63826	0.01319
1521.67395	0.01348
1520.70965	0.01385
1519.74534	0.0142
1518.78104	0.0145
1517.81673	0.01477
1516.85243	0.01496
1515.88812	0.01523
1514.92381	0.01565
1513.95951	0.01613
1512.9952	0.01658
1512.0309	0.01692
1511.06659	0.01722
1510.10229	0.01758
1509.13798	0.01809
1508.17368	0.01871
1507.20937	0.01931
1506.24507	0.0198
1505.28076	0.02024
1504.31646	0.02073
1503.35215	0.02137
1502.38784	0.02213
1501.42354	0.02291
1500.45923	0.02364
1499.49493	0.02439
1498.53062	0.0252
1497.56632	0.02611
1496.60201	0.02716
1495.63771	0.02829
1494.6734	0.0294
1493.7091	0.03056
1492.74479	0.03185
1491.78048	0.03331
1490.81618	0.03495
1489.85187	0.0367
1488.88757	0.03856
1487.92326	0.04053
1486.95896	0.04267
1485.99465	0.04501
1485.03035	0.04757
1484.06604	0.05036
1483.10174	0.05336
1482.13743	0.05655
1481.17313	0.05991
1480.20882	0.06345
1479.24451	0.0672
1478.28021	0.07115
1477.3159	0.07529
1476.3516	0.0796
1475.38729	0.08396
1474.42299	0.08838
1473.45868	0.09288
1472.49438	0.09738
1471.53007	0.10184
1470.56577	0.1062
1469.60146	0.1104
1468.63715	0.11432
1467.67285	0.11791
1466.70854	0.12122
1465.74424	0.12427
1464.77993	0.12703
1463.81563	0.12938
1462.85132	0.13136
1461.88702	0.13297
1460.92271	0.13423
1459.95841	0.13523
1458.9941	0.13591
1458.02979	0.13626
1457.06549	0.13622
1456.10118	0.13574
1455.13688	0.13489
1454.17257	0.13386
1453.20827	0.13272
1452.24396	0.13145
1451.27966	0.13
1450.31535	0.12841
1449.35105	0.12678
1448.38674	0.12521
1447.42244	0.12382
1446.45813	0.12269
1445.49382	0.12183
1444.52952	0.12118
1443.56521	0.12082
1442.60091	0.12083
1441.6366	0.12128
1440.6723	0.12215
1439.70799	0.12333
1438.74369	0.12465
1437.77938	0.12611
1436.81508	0.12775
1435.85077	0.12954
1434.88646	0.13149
1433.92216	0.13358
1432.95785	0.13563
1431.99355	0.13757
1431.02924	0.13948
1430.06494	0.14149
1429.10063	0.14356
1428.13633	0.14562
1427.17202	0.1476
1426.20772	0.14939
1425.24341	0.15108
1424.27911	0.15278
1423.3148	0.15448
1422.35049	0.15612
1421.38619	0.15762
1420.42188	0.15895
1419.45758	0.1601
1418.49327	0.16112
1417.52897	0.1621
1416.56466	0.16303
1415.60036	0.1638
1414.63605	0.1643
1413.67175	0.16453
1412.70744	0.16463
1411.74313	0.16468
1410.77883	0.16466
1409.81452	0.1645
1408.85022	0.16406
1407.88591	0.16337
1406.92161	0.16255
1405.9573	0.16172
1404.993	0.16089
1404.02869	0.15995
1403.06439	0.15885
1402.10008	0.15757
1401.13578	0.15626
1400.17147	0.15508
1399.20716	0.15407
1398.24286	0.15321
1397.27855	0.15241
1396.31425	0.15169
1395.34994	0.15118
1394.38564	0.15098
1393.42133	0.15113
1392.45703	0.15159
1391.49272	0.15229
1390.52842	0.15311
1389.56411	0.15405
1388.5998	0.15513
1387.6355	0.15635
1386.67119	0.15751
1385.70689	0.15855
1384.74258	0.15976
1383.77828	0.16168
1382.81397	0.1644
1381.84967	0.1674
1380.88536	0.17027
1379.92106	0.17282
1378.95675	0.17501
1377.99245	0.1769
1377.02814	0.17845
1376.06383	0.17981
1375.09953	0.18098
1374.13522	0.18183
1373.17092	0.18233
1372.20661	0.18249
1371.24231	0.18233
1370.278	0.18192
1369.3137	0.18136
1368.34939	0.18063
1367.38509	0.17969
1366.42078	0.17846
1365.45647	0.17693
1364.49217	0.17521
1363.52786	0.17346
1362.56356	0.17169
1361.59925	0.16987
1360.63495	0.16805
1359.67064	0.16627
1358.70634	0.16465
1357.74203	0.16324
1356.77773	0.16206
1355.81342	0.16114
1354.84911	0.16041
1353.88481	0.15982
1352.9205	0.15934
1351.9562	0.15907
1350.99189	0.15906
1350.02759	0.15928
1349.06328	0.15969
1348.09898	0.16022
1347.13467	0.16088
1346.17037	0.16168
1345.20606	0.16271
1344.24176	0.16393
1343.27745	0.16531
1342.31314	0.1667
1341.34884	0.16803
1340.38453	0.1693
1339.42023	0.17046
1338.45592	0.17154
1337.49162	0.1725
1336.52731	0.1732
1335.56301	0.17352
1334.5987	0.17349
1333.6344	0.17313
1332.67009	0.17246
1331.70578	0.17155
1330.74148	0.1703
1329.77717	0.16867
1328.81287	0.16671
1327.84856	0.16452
1326.88426	0.16219
1325.91995	0.15977
1324.95565	0.15722
1323.99134	0.15442
1323.02704	0.1514
1322.06273	0.14824
1321.09843	0.14508
1320.13412	0.142
1319.16981	0.13901
1318.20551	0.13606
1317.2412	0.13315
1316.2769	0.1304
1315.31259	0.12792
1314.34829	0.12582
1313.38398	0.12412
1312.41968	0.12276
1311.45537	0.12163
1310.49107	0.12075
1309.52676	0.12026
1308.56245	0.1202
1307.59815	0.12049
1306.63384	0.12096
1305.66954	0.12145
1304.70523	0.12192
1303.74093	0.12236
1302.77662	0.12281
1301.81232	0.1232
1300.84801	0.1234
1299.88371	0.12327
1298.9194	0.12278
1297.9551	0.12201
1296.99079	0.12106
1296.02648	0.12001
1295.06218	0.11878
1294.09787	0.11731
1293.13357	0.11562
1292.16926	0.11383
1291.20496	0.11201
1290.24065	0.11033
1289.27635	0.10878
1288.31204	0.10723
1287.34774	0.10564
1286.38343	0.10413
1285.41912	0.10278
1284.45482	0.10165
1283.49051	0.10067
1282.52621	0.09978
1281.5619	0.09888
1280.5976	0.098
1279.63329	0.09724
1278.66899	0.09664
1277.70468	0.09619
1276.74038	0.09583
1275.77607	0.09547
1274.81177	0.0951
1273.84746	0.09482
1272.88315	0.09471
1271.91885	0.09471
1270.95454	0.09475
1269.99024	0.09484
1269.02593	0.09497
1268.06163	0.09511
1267.09732	0.09534
1266.13302	0.0957
1265.16871	0.0961
1264.20441	0.09651
1263.2401	0.09692
1262.27579	0.09734
1261.31149	0.09779
1260.34718	0.09828
1259.38288	0.09881
1258.41857	0.09932
1257.45427	0.09983
1256.48996	0.10037
1255.52566	0.10097
1254.56135	0.10157
1253.59705	0.1022
1252.63274	0.1028
1251.66844	0.10337
1250.70413	0.10389
1249.73982	0.1044
1248.77552	0.10485
1247.81121	0.10521
1246.84691	0.10548
1245.8826	0.10564
1244.9183	0.10565
1243.95399	0.10553
1242.98969	0.10528
1242.02538	0.10483
1241.06108	0.10421
1240.09677	0.10343
1239.13246	0.10247
1238.16816	0.10129
1237.20385	0.09991
1236.23955	0.09839
1235.27524	0.09668
1234.31094	0.09488
1233.34663	0.09302
1232.38233	0.09105
1231.41802	0.08901
1230.45372	0.08691
1229.48941	0.08479
1228.5251	0.08269
1227.5608	0.08075
1226.59649	0.07896
1225.63219	0.07725
1224.66788	0.07567
1223.70358	0.07427
1222.73927	0.07313
1221.77497	0.07227
1220.81066	0.07175
1219.84636	0.07151
1218.88205	0.07149
1217.91775	0.07172
1216.95344	0.07227
1215.98913	0.07316
1215.02483	0.07436
1214.06052	0.07579
1213.09622	0.07731
1212.13191	0.07888
1211.16761	0.08054
1210.2033	0.0823
1209.239	0.0841
1208.27469	0.08577
1207.31039	0.08721
1206.34608	0.08833
1205.38177	0.08916
1204.41747	0.08982
1203.45316	0.09028
1202.48886	0.09042
1201.52455	0.09019
1200.56025	0.08965
1199.59594	0.0889
1198.63164	0.08813
1197.66733	0.08743
1196.70303	0.08677
1195.73872	0.08616
1194.77442	0.08567
1193.81011	0.08544
1192.8458	0.08561
1191.8815	0.08632
1190.91719	0.08759
1189.95289	0.08929
1188.98858	0.09151
1188.02428	0.09433
1187.05997	0.09785
1186.09567	0.1022
1185.13136	0.10742
1184.16706	0.11348
1183.20275	0.12034
1182.23844	0.12807
1181.27414	0.13686
1180.30983	0.14683
1179.34553	0.158
1178.38122	0.17031
1177.41692	0.18362
1176.45261	0.19789
1175.48831	0.21325
1174.524	0.22979
1173.5597	0.24736
1172.59539	0.26573
1171.63109	0.28481
1170.66678	0.30434
1169.70247	0.32429
1168.73817	0.34463
1167.77386	0.36517
1166.80956	0.3856
1165.84525	0.40555
1164.88095	0.42473
1163.91664	0.44281
1162.95234	0.45969
1161.98803	0.47521
1161.02373	0.48907
1160.05942	0.50084
1159.09511	0.51035
1158.13081	0.51767
1157.1665	0.52272
1156.2022	0.52574
1155.23789	0.52686
1154.27359	0.52609
1153.30928	0.52347
1152.34498	0.51924
1151.38067	0.51373
1150.41637	0.50713
1149.45206	0.49977
1148.48776	0.49184
1147.52345	0.4835
1146.55914	0.47477
1145.59484	0.46588
1144.63053	0.45716
1143.66623	0.44886
1142.70192	0.44124
1141.73762	0.43425
1140.77331	0.42777
1139.80901	0.42212
1138.8447	0.41762
1137.8804	0.41423
1136.91609	0.41204
1135.95178	0.41106
1134.98748	0.41111
1134.02317	0.41202
1133.05887	0.41368
1132.09456	0.41613
1131.13026	0.41922
1130.16595	0.42251
1129.20165	0.42574
1128.23734	0.42868
1127.27304	0.43114
1126.30873	0.43324
1125.34443	0.43514
1124.38012	0.43679
1123.41581	0.43816
1122.45151	0.43924
1121.4872	0.44018
1120.5229	0.44133
1119.55859	0.44292
1118.59429	0.44492
1117.62998	0.44742
1116.66568	0.45054
1115.70137	0.4541
1114.73707	0.45806
1113.77276	0.46257
1112.80845	0.46776
1111.84415	0.47336
1110.87984	0.47887
1109.91554	0.4843
1108.95123	0.48956
1107.98693	0.49452
1107.02262	0.4993
1106.05832	0.50396
1105.09401	0.50833
1104.12971	0.51216
1103.1654	0.51583
1102.20109	0.51969
1101.23679	0.52382
1100.27248	0.52849
1099.30818	0.53402
1098.34387	0.54047
1097.37957	0.54782
1096.41526	0.55659
1095.45096	0.56695
1094.48665	0.57904
1093.52235	0.59248
1092.55804	0.60673
1091.59374	0.62192
1090.62943	0.63785
1089.66512	0.65403
1088.70082	0.67017
1087.73651	0.68606
1086.77221	0.70063
1085.8079	0.71299
1084.8436	0.72267
1083.87929	0.72934
1082.91499	0.73256
1081.95068	0.73147
1080.98638	0.72601
1080.02207	0.7157
1079.05776	0.70063
1078.09346	0.6818
1077.12915	0.66064
1076.16485	0.63879
1075.20054	0.61733
1074.23624	0.59772
1073.27193	0.58125
1072.30763	0.56895
1071.34332	0.5614
1070.37902	0.55874
1069.41471	0.5605
1068.45041	0.56575
1067.4861	0.57401
1066.52179	0.58443
1065.55749	0.59649
1064.59318	0.60993
1063.62888	0.62441
1062.66457	0.63969
1061.70027	0.65493
1060.73596	0.67004
1059.77166	0.68514
1058.80735	0.70026
1057.84305	0.71516
1056.87874	0.72979
1055.91443	0.74381
1054.95013	0.75705
1053.98582	0.77048
1053.02152	0.78353
1052.05721	0.7958
1051.09291	0.80767
1050.1286	0.8196
1049.1643	0.83115
1048.19999	0.84192
1047.23569	0.85315
1046.27138	0.86471
1045.30708	0.87619
1044.34277	0.88703
1043.37846	0.8971
1042.41416	0.90643
1041.44985	0.9157
1040.48555	0.92585
1039.52124	0.93559
1038.55694	0.94502
1037.59263	0.95406
1036.62833	0.96267
1035.66402	0.9705
1034.69972	0.97759
1033.73541	0.98469
1032.7711	0.9908
1031.8068	0.99566
1030.84249	0.99867
1029.87819	1
1028.91388	0.99816
1027.94958	0.99285
1026.98527	0.98577
1026.02097	0.97654
1025.05666	0.96491
1024.09236	0.94978
1023.12805	0.93198
1022.16375	0.91285
1021.19944	0.89279
1020.23513	0.87181
1019.27083	0.84952
1018.30652	0.82687
1017.34222	0.80485
1016.37791	0.78358
1015.41361	0.763
1014.4493	0.74374
1013.485	0.72574
1012.52069	0.70844
1011.55639	0.69212
1010.59208	0.67722
1009.62777	0.66374
1008.66347	0.65089
1007.69916	0.63831
1006.73486	0.62586
1005.77055	0.61315
1004.80625	0.59977
1003.84194	0.58551
1002.87764	0.57041
1001.91333	0.55422
1000.94903	0.53664
999.98472	0.51772
999.02042	0.49764
998.05611	0.4766
997.0918	0.45498
996.1275	0.43296
995.16319	0.41063
994.19889	0.38834
993.23458	0.36658
992.27028	0.34579
991.30597	0.32617
990.34167	0.30772
989.37736	0.29036
988.41306	0.27399
987.44875	0.25862
986.48444	0.24435
985.52014	0.23126
984.55583	0.21919
983.59153	0.20782
982.62722	0.19704
981.66292	0.18684
980.69861	0.17732
979.73431	0.16858
978.77	0.16063
977.8057	0.15309
976.84139	0.14573
975.87708	0.13844
974.91278	0.13125
973.94847	0.1243
972.98417	0.11755
972.01986	0.1108
971.05556	0.10388
970.09125	0.09684
969.12695	0.08997
968.16264	0.08346
967.19834	0.0775
966.23403	0.07221
965.26973	0.06757
964.30542	0.06346
963.34111	0.05999
962.37681	0.05745
961.4125	0.05597
960.4482	0.05554
959.48389	0.05603
958.51959	0.05727
957.55528	0.05917
956.59098	0.06185
955.62667	0.06546
954.66237	0.06999
953.69806	0.07518
952.73375	0.08066
951.76945	0.08616
950.80514	0.09155
949.84084	0.09688
948.87653	0.10204
947.91223	0.10661
946.94792	0.11021
945.98362	0.11263
945.01931	0.11393
944.05501	0.11439
943.0907	0.11445
942.1264	0.11421
941.16209	0.11346
940.19778	0.11221
939.23348	0.11071
938.26917	0.10925
937.30487	0.10801
936.34056	0.10702
935.37626	0.10603
934.41195	0.10475
933.44765	0.10315
932.48334	0.10139
931.51904	0.0996
930.55473	0.09782
929.59042	0.09589
928.62612	0.09343
927.66181	0.09034
926.69751	0.08676
925.7332	0.08294
924.7689	0.07906
923.80459	0.0751
922.84029	0.07096
921.87598	0.06647
920.91168	0.06178
919.94737	0.05732
918.98307	0.05342
918.01876	0.05001
917.05445	0.04685
916.09015	0.04369
915.12584	0.04046
914.16154	0.03748
913.19723	0.03502
912.23293	0.03292
911.26862	0.03089
910.30432	0.02863
909.34001	0.02617
908.37571	0.02374
907.4114	0.02171
906.44709	0.02011
905.48279	0.01868
904.51848	0.01724
903.55418	0.01581
902.58987	0.01469
901.62557	0.01404
900.66126	0.0139
899.69696	0.01404
898.73265	0.01407
897.76835	0.0139
896.80404	0.0136
895.83974	0.01333
894.87543	0.01316
893.91112	0.01301
892.94682	0.01267
891.98251	0.01202
891.01821	0.01112
890.0539	0.0101
889.0896	0.00911
888.12529	0.00826
887.16099	0.00737
886.19668	0.00625
885.23238	0.00496
884.26807	0.00382
883.30376	0.00304
882.33946	0.00269
881.37515	0.00266
880.41085	0.00292
879.44654	0.00337
878.48224	0.00419
877.51793	0.00552
876.55363	0.00739
875.58932	0.00972
874.62502	0.01237
873.66071	0.01523
872.69641	0.0183
871.7321	0.02164
870.76779	0.02529
869.80349	0.02924
868.83918	0.03328
867.87488	0.0373
866.91057	0.04125
865.94627	0.04507
864.98196	0.04883
864.01766	0.05263
863.05335	0.05643
862.08905	0.06007
861.12474	0.06334
860.16043	0.06619
859.19613	0.06862
858.23182	0.07075
857.26752	0.07263
856.30321	0.07412
855.33891	0.07499
854.3746	0.07517
853.4103	0.07475
852.44599	0.07394
851.48169	0.073
850.51738	0.072
849.55307	0.07072
848.58877	0.06902
847.62446	0.06705
846.66016	0.06507
845.69585	0.0633
844.73155	0.06169
843.76724	0.05989
842.80294	0.05769
841.83863	0.05511
840.87433	0.05225
839.91002	0.04926
838.94572	0.04628
837.98141	0.04317
837.0171	0.03966
836.0528	0.03563
835.08849	0.03131
834.12419	0.02711
833.15988	0.02342
832.19558	0.02032
831.23127	0.01746
830.26697	0.01462
829.30266	0.01202
828.33836	0.01001
827.37405	0.00876
826.40974	0.00812
825.44544	0.00768
824.48113	0.00697
823.51683	0.00588
822.55252	0.00483
821.58822	0.00416
820.62391	0.00389
819.65961	0.00362
818.6953	0.00297
817.731	0.00196
816.76669	9.70231E-4
815.80239	4.76215E-4
814.83808	5.38011E-4
813.87377	8.2919E-4
812.90947	8.90987E-4
811.94516	5.02839E-4
810.98086	0
810.01655	1.76837E-5
809.05225	7.41163E-4
808.08794	0.00169
807.12364	0.00238
806.15933	0.00268
805.19503	0.00284
804.23072	0.00334
803.26641	0.00449
802.30211	0.00601
801.3378	0.00734
800.3735	0.00815
799.40919	0.00857
798.44489	0.00913
797.48058	0.01023
796.51628	0.01173
795.55197	0.01301
794.58767	0.01368
793.62336	0.01403
792.65906	0.01454
791.69475	0.01554
790.73044	0.0169
789.76614	0.01819
788.80183	0.01884
787.83753	0.01883
786.87322	0.01884
785.90892	0.0193
784.94461	0.02019
783.98031	0.0211
783.016	0.0218
782.0517	0.02229
781.08739	0.02297
780.12308	0.0243
779.15878	0.02631
778.19447	0.0286
777.23017	0.03066
776.26586	0.03235
775.30156	0.03386
774.33725	0.03556
773.37295	0.03759
772.40864	0.03968
771.44434	0.04156
770.48003	0.0433
769.51573	0.04517
768.55142	0.04754
767.58711	0.0507
766.62281	0.0546
765.6585	0.05876
764.6942	0.06282
763.72989	0.06661
762.76559	0.07025
761.80128	0.07371
760.83698	0.07678
759.87267	0.07905
758.90837	0.08012
757.94406	0.08
756.97975	0.07887
756.01545	0.07685
755.05114	0.07412
754.08684	0.07093
753.12253	0.06715
752.15823	0.06277
751.19392	0.0582
750.22962	0.0539
749.26531	0.05018
748.30101	0.04704
747.3367	0.04445
746.3724	0.04214
745.40809	0.04003
744.44378	0.03839
743.47948	0.03735
742.51517	0.03685
741.55087	0.03678
740.58656	0.03689
739.62226	0.03693
738.65795	0.03703
737.69365	0.03742
736.72934	0.03814
735.76504	0.03913
734.80073	0.04025
733.83642	0.04139
732.87212	0.04241
731.90781	0.04347
730.94351	0.04485
729.9792	0.04655
729.0149	0.04846
728.05059	0.05042
727.08629	0.05225
726.12198	0.05387
725.15768	0.05565
724.19337	0.05791
723.22906	0.06057
722.26476	0.06318
721.30045	0.06556
720.33615	0.06781
719.37184	0.07023
718.40754	0.07313
717.44323	0.07641
716.47893	0.07974
715.51462	0.0828
714.55032	0.08549
713.58601	0.08806
712.62171	0.09085
711.6574	0.0938
710.69309	0.0963
709.72879	0.09785
708.76448	0.09849
707.80018	0.09845
706.83587	0.098
705.87157	0.09717
704.90726	0.09579
703.94296	0.09356
702.97865	0.09052
702.01435	0.08713
701.05004	0.08388
700.08573	0.08109
699.12143	0.07877
698.15712	0.07666
697.19282	0.07449
696.22851	0.07246
695.26421	0.07094
694.2999	0.07011
693.3356	0.06975
692.37129	0.06963
691.40699	0.06947
690.44268	0.06901
689.47838	0.06858
688.51407	0.06873
687.54976	0.06937
686.58546	0.07005
685.62115	0.0705
684.65685	0.07053
683.69254	0.07046
682.72824	0.07086
681.76393	0.07175
680.79963	0.07272
679.83532	0.07332
678.87102	0.07352
677.90671	0.07356
676.9424	0.07393
675.9781	0.07489
675.01379	0.07601
674.04949	0.07679
673.08518	0.07715
672.12088	0.07746
671.15657	0.07796
670.19227	0.07876
669.22796	0.07983
668.26366	0.08063
667.29935	0.081
666.33505	0.08124
665.37074	0.08174
664.40643	0.08241
663.44213	0.08318
662.47782	0.08388
661.51352	0.08424
660.54921	0.0844
659.58491	0.08466
658.6206	0.08517
657.6563	0.08578
656.69199	0.0864
655.72769	0.08688
654.76338	0.08702
653.79907	0.08712
652.83477	0.08746
651.87046	0.08806
650.90616	0.08857
649.94185	0.08885
648.97755	0.08885
648.01324	0.08865
647.04894	0.08859
646.08463	0.0888
645.12033	0.08915
644.15602	0.08926
643.19172	0.0892
642.22741	0.08909
641.2631	0.08914
640.2988	0.08962
639.33449	0.09023
638.37019	0.09071
637.40588	0.09113
636.44158	0.09173
635.47727	0.09232
634.51297	0.09301
633.54866	0.09411
632.58436	0.09534
631.62005	0.09648
630.65574	0.09752
629.69144	0.09884
628.72713	0.10037
627.76283	0.10207
626.79852	0.10416
625.83422	0.10639
624.86991	0.10855
623.90561	0.11086
622.9413	0.11351
621.977	0.11631
621.01269	0.11926
620.04839	0.12226
619.08408	0.12515
618.11977	0.12795
617.15547	0.13063
616.19116	0.13329
615.22686	0.13578
614.26255	0.13813
613.29825	0.14006
612.33394	0.14141
611.36964	0.14278
610.40533	0.14404
609.44103	0.14481
608.47672	0.14508
607.51241	0.14538
606.54811	0.14557
605.5838	0.14528
604.6195	0.14488
603.65519	0.14476
602.69089	0.14472
601.72658	0.14453
600.76228	0.1445
599.79797	0.14464
598.83367	0.14486
597.86936	0.14521
596.90505	0.14568
595.94075	0.14636
594.97644	0.14703
594.01214	0.14781
593.04783	0.14856
592.08353	0.14913
591.11922	0.14993
590.15492	0.15107
589.19061	0.15213
588.22631	0.15288
587.262	0.15329
586.2977	0.15314
585.33339	0.15285
584.36908	0.15288
583.40478	0.15275
582.44047	0.15188
581.47617	0.15038
580.51186	0.14861
579.54756	0.14653
578.58325	0.14457
577.61895	0.14268
576.65464	0.1405
575.69034	0.13792
574.72603	0.1352
573.76172	0.13259
572.79742	0.12992
571.83311	0.12742
570.86881	0.12513
569.9045	0.12257
568.9402	0.11988
567.97589	0.11761
567.01159	0.11564
566.04728	0.11378
565.08298	0.11232
564.11867	0.11098
563.15437	0.10943
562.19006	0.10786
561.22575	0.10662
560.26145	0.10591
559.29714	0.10548
558.33284	0.10501
557.36853	0.10432
556.40423	0.10357
555.43992	0.10322
554.47562	0.10344
553.51131	0.10375
552.54701	0.10394
551.5827	0.10412
550.61839	0.10405
549.65409	0.10379
548.68978	0.10394
547.72548	0.10449
546.76117	0.10479
545.79687	0.10494
544.83256	0.10511
543.86826	0.10523
542.90395	0.10554
541.93965	0.10604
540.97534	0.10639
540.01104	0.10629
539.04673	0.10612
538.08242	0.10604
537.11812	0.10582
536.15381	0.10579
535.18951	0.106
534.2252	0.10578
533.2609	0.10494
532.29659	0.10434
531.33229	0.10401
530.36798	0.10368
529.40368	0.10327
528.43937	0.10261
527.47506	0.10184
526.51076	0.10068
525.54645	0.09939
524.58215	0.09833
523.61784	0.09753
522.65354	0.09668
521.68923	0.09521
520.72493	0.09347
519.76062	0.09192
518.79632	0.09061
517.83201	0.08931
516.86771	0.08815
515.9034	0.08682
514.93909	0.08496
513.97479	0.08317
513.01048	0.0819
512.04618	0.08113
511.08187	0.08024
510.11757	0.0793
509.15326	0.07823
508.18896	0.07686
507.22465	0.07577
506.26035	0.07511
505.29604	0.07488
504.33173	0.07423
503.36743	0.07305
502.40312	0.07201
501.43882	0.07107
500.47451	0.07071
499.51021	0.07066
498.5459	0.07007
497.5816	0.06913
496.61729	0.06854
495.65299	0.06767
494.68868	0.0666
493.72438	0.06627
492.76007	0.06615
491.79576	0.06529
490.83146	0.06399
489.86715	0.06322
488.90285	0.06255
487.93854	0.06208
486.97424	0.06181
486.00993	0.06121
485.04563	0.06057
484.08132	0.05944
483.11702	0.05836
482.15271	0.05767
481.1884	0.05715
480.2241	0.05672
479.25979	0.05559
478.29549	0.05414
477.33118	0.05306
476.36688	0.05233
475.40257	0.05142
474.43827	0.05045
473.47396	0.04915
472.50966	0.04731
471.54535	0.04587
470.58104	0.04496
469.61674	0.04432
468.65243	0.04339
467.68813	0.04214
466.72382	0.04069
465.75952	0.03915
464.79521	0.03829
463.83091	0.03784
462.8666	0.03716
461.9023	0.03587
460.93799	0.03478
459.97369	0.0341
459.00938	0.03355
458.04507	0.03346
457.08077	0.03311
456.11646	0.0324
455.15216	0.032
454.18785	0.03208
453.22355	0.03213
452.25924	0.03229
451.29494	0.03292
450.33063	0.03311
449.36633	0.03275
448.40202	0.03238
447.43771	0.03239
446.47341	0.0329
445.5091	0.0335
444.5448	0.03384
443.58049	0.03358
442.61619	0.0329
441.65188	0.03272
440.68758	0.03324
439.72327	0.03338
438.75897	0.03317
437.79466	0.03248
436.83036	0.03138
435.86605	0.03085
434.90174	0.03072
433.93744	0.03077
432.97313	0.03029
432.00883	0.02916
431.04452	0.02799
430.08022	0.02655
429.11591	0.02547
428.15161	0.02534
427.1873	0.02524
426.223	0.02431
425.25869	0.02291
424.29438	0.02111
423.33008	0.02028
422.36577	0.02098
421.40147	0.02101
420.43716	0.01971
419.47286	0.01801
418.50855	0.01719
417.54425	0.01719
416.57994	0.01738
415.61564	0.01769
414.65133	0.01692
413.68703	0.01493
412.72272	0.0138
411.75841	0.01451
410.79411	0.01561
409.8298	0.01617
408.8655	0.01529
407.90119	0.01291
406.93689	0.01133
405.97258	0.01127
405.00828	0.01149
404.04397	0.01127
403.07967	0.01053
402.11536	0.0087
401.15105	0.0068
400.18675	0.00618