3999.93888	0.00733
3998.97458	0.00729
3998.01027	0.00728
3997.04597	0.00724
3996.08166	0.00719
3995.11735	0.00717
3994.15305	0.00715
3993.18874	0.00711
3992.22444	0.00708
3991.26013	0.00709
3990.29583	0.00709
3989.33152	0.00705
3988.36722	0.00702
3987.40291	0.00703
3986.43861	0.00702
3985.4743	0.00699
3984.51	0.00694
3983.54569	0.0069
3982.58138	0.00686
3981.61708	0.00681
3980.65277	0.00676
3979.68847	0.00673
3978.72416	0.0067
3977.75986	0.0067
3976.79555	0.00671
3975.83125	0.00672
3974.86694	0.00668
3973.90264	0.00663
3972.93833	0.00662
3971.97402	0.00659
3971.00972	0.00654
3970.04541	0.00651
3969.08111	0.00649
3968.1168	0.00644
3967.1525	0.00641
3966.18819	0.00639
3965.22389	0.00636
3964.25958	0.00632
3963.29528	0.00634
3962.33097	0.0064
3961.36667	0.00637
3960.40236	0.00631
3959.43805	0.00626
3958.47375	0.00623
3957.50944	0.00622
3956.54514	0.00619
3955.58083	0.00617
3954.61653	0.00615
3953.65222	0.00614
3952.68792	0.00613
3951.72361	0.00611
3950.75931	0.00621
3949.795	0.00631
3948.83069	0.00631
3947.86639	0.00633
3946.90208	0.00626
3945.93778	0.00611
3944.97347	0.00607
3944.00917	0.00615
3943.04486	0.00632
3942.08056	0.0063
3941.11625	0.00611
3940.15195	0.00602
3939.18764	0.00601
3938.22333	0.00602
3937.25903	0.006
3936.29472	0.006
3935.33042	0.00604
3934.36611	0.00608
3933.40181	0.00629
3932.4375	0.00646
3931.4732	0.00633
3930.50889	0.00616
3929.54459	0.00615
3928.58028	0.00608
3927.61598	0.00599
3926.65167	0.00601
3925.68736	0.00622
3924.72306	0.00638
3923.75875	0.00624
3922.79445	0.00607
3921.83014	0.00599
3920.86584	0.00617
3919.90153	0.00632
3918.93723	0.00621
3917.97292	0.00644
3917.00862	0.00663
3916.04431	0.00635
3915.08	0.00598
3914.1157	0.00588
3913.15139	0.0059
3912.18709	0.00586
3911.22278	0.00584
3910.25848	0.00581
3909.29417	0.00581
3908.32987	0.00579
3907.36556	0.00587
3906.40126	0.00613
3905.43695	0.00659
3904.47265	0.00713
3903.50834	0.00701
3902.54403	0.00696
3901.57973	0.00699
3900.61542	0.00672
3899.65112	0.007
3898.68681	0.00689
3897.72251	0.00624
3896.7582	0.00592
3895.7939	0.00581
3894.82959	0.0059
3893.86529	0.00599
3892.90098	0.00629
3891.93667	0.00694
3890.97237	0.00708
3890.00806	0.00644
3889.04376	0.00605
3888.07945	0.00607
3887.11515	0.00656
3886.15084	0.00761
3885.18654	0.00757
3884.22223	0.00673
3883.25793	0.0064
3882.29362	0.00641
3881.32932	0.00695
3880.36501	0.00745
3879.4007	0.00714
3878.4364	0.00656
3877.47209	0.00639
3876.50779	0.00642
3875.54348	0.00677
3874.57918	0.00737
3873.61487	0.00735
3872.65057	0.00693
3871.68626	0.0071
3870.72196	0.00816
3869.75765	0.00888
3868.79334	0.00831
3867.82904	0.00754
3866.86473	0.00747
3865.90043	0.00819
3864.93612	0.00879
3863.97182	0.00848
3863.00751	0.00829
3862.04321	0.00864
3861.0789	0.00856
3860.1146	0.00824
3859.15029	0.00826
3858.18599	0.00855
3857.22168	0.00893
3856.25737	0.00907
3855.29307	0.01058
3854.32876	0.01275
3853.36446	0.01248
3852.40015	0.01141
3851.43585	0.01067
3850.47154	0.00986
3849.50724	0.00972
3848.54293	0.00971
3847.57863	0.00971
3846.61432	0.00983
3845.65001	0.01002
3844.68571	0.01056
3843.7214	0.01098
3842.7571	0.01094
3841.79279	0.01103
3840.82849	0.01147
3839.86418	0.01151
3838.89988	0.01204
3837.93557	0.01289
3836.97127	0.01242
3836.00696	0.01201
3835.04266	0.01235
3834.07835	0.01219
3833.11404	0.0121
3832.14974	0.01268
3831.18543	0.01286
3830.22113	0.01248
3829.25682	0.01235
3828.29252	0.01256
3827.32821	0.01302
3826.36391	0.01325
3825.3996	0.01314
3824.4353	0.01315
3823.47099	0.01341
3822.50668	0.01427
3821.54238	0.01538
3820.57807	0.01546
3819.61377	0.01473
3818.64946	0.01423
3817.68516	0.01448
3816.72085	0.01565
3815.75655	0.01616
3814.79224	0.01538
3813.82794	0.01491
3812.86363	0.015
3811.89932	0.01515
3810.93502	0.01532
3809.97071	0.01541
3809.00641	0.01566
3808.0421	0.01649
3807.0778	0.01744
3806.11349	0.01719
3805.14919	0.01654
3804.18488	0.01661
3803.22058	0.01705
3802.25627	0.01814
3801.29197	0.01886
3800.32766	0.01828
3799.36335	0.01764
3798.39905	0.01768
3797.43474	0.01816
3796.47044	0.01857
3795.50613	0.01848
3794.54183	0.01833
3793.57752	0.01843
3792.61322	0.01855
3791.64891	0.01868
3790.68461	0.01887
3789.7203	0.0191
3788.75599	0.01933
3787.79169	0.0195
3786.82738	0.0197
3785.86308	0.01997
3784.89877	0.02024
3783.93447	0.02037
3782.97016	0.02045
3782.00586	0.02064
3781.04155	0.02097
3780.07725	0.02159
3779.11294	0.02183
3778.14864	0.02161
3777.18433	0.0216
3776.22002	0.02176
3775.25572	0.02199
3774.29141	0.02219
3773.32711	0.02238
3772.3628	0.02258
3771.3985	0.02303
3770.43419	0.0239
3769.46989	0.02423
3768.50558	0.02387
3767.54128	0.02378
3766.57697	0.02428
3765.61266	0.02476
3764.64836	0.0247
3763.68405	0.02464
3762.71975	0.02481
3761.75544	0.02509
3760.79114	0.02565
3759.82683	0.02629
3758.86253	0.02633
3757.89822	0.02632
3756.93392	0.02678
3755.96961	0.0269
3755.00531	0.02681
3754.041	0.02719
3753.07669	0.02854
3752.11239	0.0296
3751.14808	0.02926
3750.18378	0.0299
3749.21947	0.03064
3748.25517	0.02968
3747.29086	0.029
3746.32656	0.02968
3745.36225	0.03213
3744.39795	0.03371
3743.43364	0.03208
3742.46933	0.03058
3741.50503	0.03063
3740.54072	0.03086
3739.57642	0.03115
3738.61211	0.03161
3737.64781	0.03256
3736.6835	0.03354
3735.7192	0.03399
3734.75489	0.03391
3733.79059	0.03362
3732.82628	0.03409
3731.86198	0.03461
3730.89767	0.03416
3729.93336	0.03387
3728.96906	0.03409
3728.00475	0.03466
3727.04045	0.0355
3726.07614	0.03592
3725.11184	0.03599
3724.14753	0.03611
3723.18323	0.03661
3722.21892	0.0372
3721.25462	0.0373
3720.29031	0.03747
3719.326	0.03796
3718.3617	0.03829
3717.39739	0.03849
3716.43309	0.03882
3715.46878	0.03935
3714.50448	0.03985
3713.54017	0.04064
3712.57587	0.04191
3711.61156	0.04236
3710.64726	0.04223
3709.68295	0.04279
3708.71865	0.04309
3707.75434	0.04305
3706.79003	0.04337
3705.82573	0.04385
3704.86142	0.04435
3703.89712	0.04483
3702.93281	0.04574
3701.96851	0.04681
3701.0042	0.04724
3700.0399	0.04737
3699.07559	0.0478
3698.11129	0.04844
3697.14698	0.04914
3696.18267	0.04991
3695.21837	0.05063
3694.25406	0.05136
3693.28976	0.05217
3692.32545	0.05339
3691.36115	0.05478
3690.39684	0.05549
3689.43254	0.05663
3688.46823	0.05811
3687.50393	0.05832
3686.53962	0.05828
3685.57531	0.05899
3684.61101	0.05996
3683.6467	0.06097
3682.6824	0.0619
3681.71809	0.06284
3680.75379	0.06394
3679.78948	0.06514
3678.82518	0.06608
3677.86087	0.06702
3676.89657	0.06882
3675.93226	0.07096
3674.96796	0.07191
3674.00365	0.07181
3673.03934	0.07199
3672.07504	0.07329
3671.11073	0.07534
3670.14643	0.07667
3669.18212	0.07734
3668.21782	0.07798
3667.25351	0.0785
3666.28921	0.07943
3665.3249	0.08062
3664.3606	0.08181
3663.39629	0.08305
3662.43198	0.08422
3661.46768	0.0855
3660.50337	0.08675
3659.53907	0.08805
3658.57476	0.08935
3657.61046	0.09097
3656.64615	0.09302
3655.68185	0.09419
3654.71754	0.09482
3653.75324	0.09591
3652.78893	0.0975
3651.82463	0.09961
3650.86032	0.10167
3649.89601	0.10336
3648.93171	0.10463
3647.9674	0.10581
3647.0031	0.10709
3646.03879	0.10801
3645.07449	0.10901
3644.11018	0.11039
3643.14588	0.11194
3642.18157	0.11352
3641.21727	0.11502
3640.25296	0.11659
3639.28865	0.11821
3638.32435	0.1198
3637.36004	0.12133
3636.39574	0.12283
3635.43143	0.12456
3634.46713	0.12652
3633.50282	0.12832
3632.53852	0.12974
3631.57421	0.13135
3630.60991	0.13386
3629.6456	0.13688
3628.6813	0.13887
3627.71699	0.13963
3626.75268	0.14051
3625.78838	0.14199
3624.82407	0.14372
3623.85977	0.1455
3622.89546	0.1474
3621.93116	0.1494
3620.96685	0.15163
3620.00255	0.15405
3619.03824	0.156
3618.07394	0.15764
3617.10963	0.15931
3616.14532	0.16099
3615.18102	0.16307
3614.21671	0.16523
3613.25241	0.16744
3612.2881	0.16948
3611.3238	0.17103
3610.35949	0.17324
3609.39519	0.17593
3608.43088	0.17778
3607.46658	0.17943
3606.50227	0.18123
3605.53797	0.18296
3604.57366	0.18488
3603.60935	0.18697
3602.64505	0.1891
3601.68074	0.19119
3600.71644	0.19328
3599.75213	0.1953
3598.78783	0.19736
3597.82352	0.19945
3596.85922	0.20158
3595.89491	0.20392
3594.93061	0.20603
3593.9663	0.20798
3593.00199	0.21001
3592.03769	0.212
3591.07338	0.21402
3590.10908	0.21634
3589.14477	0.21899
3588.18047	0.22135
3587.21616	0.2234
3586.25186	0.22531
3585.28755	0.22696
3584.32325	0.2289
3583.35894	0.23101
3582.39464	0.233
3581.43033	0.23506
3580.46602	0.23718
3579.50172	0.23932
3578.53741	0.24139
3577.57311	0.24354
3576.6088	0.24562
3575.6445	0.24766
3574.68019	0.24978
3573.71589	0.25185
3572.75158	0.25391
3571.78728	0.25604
3570.82297	0.25811
3569.85866	0.26017
3568.89436	0.26261
3567.93005	0.26516
3566.96575	0.26729
3566.00144	0.26916
3565.03714	0.27081
3564.07283	0.27257
3563.10853	0.2745
3562.14422	0.27647
3561.17992	0.27854
3560.21561	0.28064
3559.2513	0.28263
3558.287	0.2845
3557.32269	0.28648
3556.35839	0.28851
3555.39408	0.29054
3554.42978	0.29269
3553.46547	0.29485
3552.50117	0.29698
3551.53686	0.29884
3550.57256	0.30064
3549.60825	0.30266
3548.64395	0.30482
3547.67964	0.30705
3546.71533	0.30913
3545.75103	0.31107
3544.78672	0.31299
3543.82242	0.3149
3542.85811	0.31678
3541.89381	0.31867
3540.9295	0.32063
3539.9652	0.32261
3539.00089	0.32459
3538.03659	0.32654
3537.07228	0.32851
3536.10797	0.3305
3535.14367	0.33244
3534.17936	0.3344
3533.21506	0.33631
3532.25075	0.33822
3531.28645	0.34018
3530.32214	0.34214
3529.35784	0.34417
3528.39353	0.34611
3527.42923	0.34797
3526.46492	0.34985
3525.50062	0.35174
3524.53631	0.35366
3523.572	0.35559
3522.6077	0.35745
3521.64339	0.35922
3520.67909	0.36095
3519.71478	0.3628
3518.75048	0.36471
3517.78617	0.36656
3516.82187	0.36835
3515.85756	0.37016
3514.89326	0.37202
3513.92895	0.37389
3512.96464	0.37573
3512.00034	0.37754
3511.03603	0.37938
3510.07173	0.38129
3509.10742	0.3831
3508.14312	0.3848
3507.17881	0.38654
3506.21451	0.38837
3505.2502	0.3902
3504.2859	0.39203
3503.32159	0.39377
3502.35729	0.39541
3501.39298	0.39706
3500.42867	0.39875
3499.46437	0.4005
3498.50006	0.40227
3497.53576	0.40399
3496.57145	0.40566
3495.60715	0.40736
3494.64284	0.40912
3493.67854	0.41089
3492.71423	0.41256
3491.74993	0.41422
3490.78562	0.41589
3489.82131	0.41754
3488.85701	0.41919
3487.8927	0.42099
3486.9284	0.42274
3485.96409	0.42434
3484.99979	0.42596
3484.03548	0.42765
3483.07118	0.42939
3482.10687	0.43119
3481.14257	0.43292
3480.17826	0.4345
3479.21396	0.43594
3478.24965	0.43743
3477.28534	0.43906
3476.32104	0.4407
3475.35673	0.44228
3474.39243	0.44383
3473.42812	0.44538
3472.46382	0.44692
3471.49951	0.44846
3470.53521	0.45004
3469.5709	0.45154
3468.6066	0.45298
3467.64229	0.45442
3466.67798	0.45578
3465.71368	0.45713
3464.74937	0.45855
3463.78507	0.45994
3462.82076	0.46131
3461.85646	0.46277
3460.89215	0.46411
3459.92785	0.46525
3458.96354	0.46643
3457.99924	0.46769
3457.03493	0.46889
3456.07063	0.46996
3455.10632	0.47097
3454.14201	0.47206
3453.17771	0.47316
3452.2134	0.47412
3451.2491	0.47506
3450.28479	0.47597
3449.32049	0.47682
3448.35618	0.47777
3447.39188	0.47872
3446.42757	0.47943
3445.46327	0.48003
3444.49896	0.48066
3443.53465	0.48135
3442.57035	0.48203
3441.60604	0.48251
3440.64174	0.48293
3439.67743	0.48339
3438.71313	0.48388
3437.74882	0.48431
3436.78452	0.48458
3435.82021	0.48481
3434.85591	0.48503
3433.8916	0.48514
3432.92729	0.48519
3431.96299	0.4853
3430.99868	0.48539
3430.03438	0.48536
3429.07007	0.48524
3428.10577	0.48506
3427.14146	0.48491
3426.17716	0.48475
3425.21285	0.48451
3424.24855	0.48421
3423.28424	0.48384
3422.31994	0.48343
3421.35563	0.48295
3420.39132	0.48241
3419.42702	0.48191
3418.46271	0.48134
3417.49841	0.48065
3416.5341	0.47987
3415.5698	0.47906
3414.60549	0.47827
3413.64119	0.47743
3412.67688	0.47659
3411.71258	0.47569
3410.74827	0.47475
3409.78396	0.47374
3408.81966	0.47263
3407.85535	0.47151
3406.89105	0.47047
3405.92674	0.46939
3404.96244	0.46818
3403.99813	0.46691
3403.03383	0.46562
3402.06952	0.4643
3401.10522	0.46304
3400.14091	0.46168
3399.17661	0.46022
3398.2123	0.45878
3397.24799	0.45729
3396.28369	0.45574
3395.31938	0.45422
3394.35508	0.45268
3393.39077	0.45109
3392.42647	0.44947
3391.46216	0.44781
3390.49786	0.44608
3389.53355	0.44429
3388.56925	0.44248
3387.60494	0.44072
3386.64063	0.43891
3385.67633	0.43698
3384.71202	0.43507
3383.74772	0.43321
3382.78341	0.43134
3381.81911	0.42946
3380.8548	0.42742
3379.8905	0.42528
3378.92619	0.42321
3377.96189	0.42118
3376.99758	0.41907
3376.03328	0.41691
3375.06897	0.41473
3374.10466	0.41257
3373.14036	0.41035
3372.17605	0.40806
3371.21175	0.40582
3370.24744	0.40356
3369.28314	0.40121
3368.31883	0.39883
3367.35453	0.3965
3366.39022	0.39411
3365.42592	0.39172
3364.46161	0.38937
3363.4973	0.38705
3362.533	0.3847
3361.56869	0.3822
3360.60439	0.37965
3359.64008	0.37719
3358.67578	0.37475
3357.71147	0.37234
3356.74717	0.36994
3355.78286	0.36752
3354.81856	0.36508
3353.85425	0.36262
3352.88995	0.3602
3351.92564	0.35781
3350.96133	0.35537
3349.99703	0.3529
3349.03272	0.35045
3348.06842	0.34803
3347.10411	0.34561
3346.13981	0.34321
3345.1755	0.34082
3344.2112	0.33846
3343.24689	0.3361
3342.28259	0.33368
3341.31828	0.33128
3340.35397	0.32892
3339.38967	0.32656
3338.42536	0.32421
3337.46106	0.32186
3336.49675	0.31954
3335.53245	0.31721
3334.56814	0.31491
3333.60384	0.3126
3332.63953	0.31026
3331.67523	0.30796
3330.71092	0.30571
3329.74661	0.30344
3328.78231	0.30111
3327.818	0.29883
3326.8537	0.29666
3325.88939	0.29447
3324.92509	0.2922
3323.96078	0.28993
3322.99648	0.28772
3322.03217	0.28557
3321.06787	0.28344
3320.10356	0.28126
3319.13926	0.27906
3318.17495	0.27688
3317.21064	0.27474
3316.24634	0.27265
3315.28203	0.27058
3314.31773	0.26851
3313.35342	0.26647
3312.38912	0.26443
3311.42481	0.26235
3310.46051	0.26028
3309.4962	0.25825
3308.5319	0.25624
3307.56759	0.25423
3306.60328	0.25224
3305.63898	0.25028
3304.67467	0.24837
3303.71037	0.24642
3302.74606	0.24449
3301.78176	0.2426
3300.81745	0.2407
3299.85315	0.23874
3298.88884	0.23681
3297.92454	0.23493
3296.96023	0.23308
3295.99593	0.23129
3295.03162	0.22949
3294.06731	0.22765
3293.10301	0.22582
3292.1387	0.22398
3291.1744	0.2222
3290.21009	0.22049
3289.24579	0.21878
3288.28148	0.21705
3287.31718	0.21528
3286.35287	0.21348
3285.38857	0.21169
3284.42426	0.21
3283.45995	0.20835
3282.49565	0.2067
3281.53134	0.20501
3280.56704	0.20326
3279.60273	0.20155
3278.63843	0.19991
3277.67412	0.1983
3276.70982	0.19671
3275.74551	0.19504
3274.78121	0.19333
3273.8169	0.1917
3272.8526	0.19009
3271.88829	0.18847
3270.92398	0.18689
3269.95968	0.18531
3268.99537	0.18369
3268.03107	0.18207
3267.06676	0.18047
3266.10246	0.17886
3265.13815	0.17727
3264.17385	0.17574
3263.20954	0.1742
3262.24524	0.17261
3261.28093	0.17103
3260.31662	0.16948
3259.35232	0.16795
3258.38801	0.16643
3257.42371	0.1649
3256.4594	0.16333
3255.4951	0.16177
3254.53079	0.16025
3253.56649	0.15874
3252.60218	0.15722
3251.63788	0.15568
3250.67357	0.15416
3249.70927	0.15265
3248.74496	0.15115
3247.78065	0.14966
3246.81635	0.14815
3245.85204	0.14667
3244.88774	0.14518
3243.92343	0.14367
3242.95913	0.14216
3241.99482	0.14067
3241.03052	0.13919
3240.06621	0.13773
3239.10191	0.13626
3238.1376	0.13479
3237.17329	0.13335
3236.20899	0.13193
3235.24468	0.13048
3234.28038	0.12903
3233.31607	0.12761
3232.35177	0.12618
3231.38746	0.12475
3230.42316	0.12334
3229.45885	0.12194
3228.49455	0.12052
3227.53024	0.11912
3226.56594	0.11773
3225.60163	0.11635
3224.63732	0.11498
3223.67302	0.11361
3222.70871	0.11226
3221.74441	0.11089
3220.7801	0.10954
3219.8158	0.10821
3218.85149	0.1069
3217.88719	0.1056
3216.92288	0.10428
3215.95858	0.10296
3214.99427	0.10168
3214.02996	0.10043
3213.06566	0.09914
3212.10135	0.09787
3211.13705	0.09663
3210.17274	0.09541
3209.20844	0.09417
3208.24413	0.09293
3207.27983	0.09172
3206.31552	0.09051
3205.35122	0.08931
3204.38691	0.08812
3203.4226	0.08695
3202.4583	0.08582
3201.49399	0.08469
3200.52969	0.08355
3199.56538	0.08242
3198.60108	0.0813
3197.63677	0.08018
3196.67247	0.07904
3195.70816	0.07793
3194.74386	0.07688
3193.77955	0.07586
3192.81525	0.07479
3191.85094	0.07371
3190.88663	0.07268
3189.92233	0.07166
3188.95802	0.07065
3187.99372	0.06969
3187.02941	0.06874
3186.06511	0.06777
3185.1008	0.06682
3184.1365	0.06588
3183.17219	0.06494
3182.20789	0.06403
3181.24358	0.06316
3180.27927	0.06228
3179.31497	0.06141
3178.35066	0.06056
3177.38636	0.05971
3176.42205	0.05887
3175.45775	0.05809
3174.49344	0.05729
3173.52914	0.05645
3172.56483	0.05562
3171.60053	0.05484
3170.63622	0.0541
3169.67192	0.05336
3168.70761	0.05264
3167.7433	0.05191
3166.779	0.05118
3165.81469	0.05044
3164.85039	0.04976
3163.88608	0.04912
3162.92178	0.04847
3161.95747	0.0478
3160.99317	0.04716
3160.02886	0.04653
3159.06456	0.0459
3158.10025	0.04532
3157.13594	0.04475
3156.17164	0.04417
3155.20733	0.04358
3154.24303	0.04301
3153.27872	0.04245
3152.31442	0.0419
3151.35011	0.04136
3150.38581	0.04086
3149.4215	0.04036
3148.4572	0.03984
3147.49289	0.03933
3146.52859	0.03886
3145.56428	0.0384
3144.59997	0.03796
3143.63567	0.0375
3142.67136	0.03705
3141.70706	0.03662
3140.74275	0.0362
3139.77845	0.03581
3138.81414	0.03543
3137.84984	0.03505
3136.88553	0.03469
3135.92123	0.03432
3134.95692	0.03394
3133.99261	0.03357
3133.02831	0.03325
3132.064	0.03295
3131.0997	0.03263
3130.13539	0.03231
3129.17109	0.03198
3128.20678	0.03169
3127.24248	0.03144
3126.27817	0.0312
3125.31387	0.03092
3124.34956	0.03066
3123.38526	0.03041
3122.42095	0.03015
3121.45664	0.02991
3120.49234	0.0297
3119.52803	0.02951
3118.56373	0.0293
3117.59942	0.02906
3116.63512	0.02882
3115.67081	0.02865
3114.70651	0.02849
3113.7422	0.02833
3112.7779	0.02817
3111.81359	0.02801
3110.84928	0.02785
3109.88498	0.02771
3108.92067	0.02757
3107.95637	0.02744
3106.99206	0.02736
3106.02776	0.02727
3105.06345	0.02713
3104.09915	0.02702
3103.13484	0.02695
3102.17054	0.02689
3101.20623	0.02685
3100.24193	0.02679
3099.27762	0.02673
3098.31331	0.02666
3097.34901	0.02661
3096.3847	0.02658
3095.4204	0.02654
3094.45609	0.02651
3093.49179	0.02652
3092.52748	0.0265
3091.56318	0.02648
3090.59887	0.02648
3089.63457	0.0265
3088.67026	0.02651
3087.70595	0.02656
3086.74165	0.02659
3085.77734	0.02661
3084.81304	0.02665
3083.84873	0.0267
3082.88443	0.02675
3081.92012	0.02684
3080.95582	0.02695
3079.99151	0.02702
3079.02721	0.02707
3078.0629	0.02713
3077.09859	0.02722
3076.13429	0.02736
3075.16998	0.02753
3074.20568	0.02764
3073.24137	0.02772
3072.27707	0.02781
3071.31276	0.02794
3070.34846	0.02812
3069.38415	0.02833
3068.41985	0.02854
3067.45554	0.02871
3066.49124	0.02885
3065.52693	0.02902
3064.56262	0.02925
3063.59832	0.02951
3062.63401	0.02976
3061.66971	0.02997
3060.7054	0.03015
3059.7411	0.03035
3058.77679	0.03061
3057.81249	0.03093
3056.84818	0.03126
3055.88388	0.03155
3054.91957	0.03182
3053.95526	0.03211
3052.99096	0.03243
3052.02665	0.0328
3051.06235	0.03323
3050.09804	0.03366
3049.13374	0.03407
3048.16943	0.03441
3047.20513	0.0348
3046.24082	0.03527
3045.27652	0.03577
3044.31221	0.0363
3043.34791	0.03681
3042.3836	0.03733
3041.41929	0.03788
3040.45499	0.03846
3039.49068	0.03912
3038.52638	0.03982
3037.56207	0.04051
3036.59777	0.04122
3035.63346	0.04196
3034.66916	0.04273
3033.70485	0.04357
3032.74055	0.04448
3031.77624	0.04546
3030.81193	0.04642
3029.84763	0.04737
3028.88332	0.04841
3027.91902	0.04954
3026.95471	0.05078
3025.99041	0.05211
3025.0261	0.05346
3024.0618	0.05483
3023.09749	0.05628
3022.13319	0.05783
3021.16888	0.0595
3020.20458	0.06131
3019.24027	0.06319
3018.27596	0.06513
3017.31166	0.06714
3016.34735	0.06923
3015.38305	0.07145
3014.41874	0.07384
3013.45444	0.07634
3012.49013	0.07891
3011.52583	0.08155
3010.56152	0.0843
3009.59722	0.08716
3008.63291	0.09016
3007.6686	0.09329
3006.7043	0.09654
3005.73999	0.09984
3004.77569	0.10317
3003.81138	0.10653
3002.84708	0.11001
3001.88277	0.11361
3000.91847	0.11724
2999.95416	0.12083
2998.98986	0.1244
2998.02555	0.12796
2997.06125	0.13154
2996.09694	0.13515
2995.13263	0.13871
2994.16833	0.14214
2993.20402	0.14544
2992.23972	0.1486
2991.27541	0.15166
2990.31111	0.15463
2989.3468	0.15746
2988.3825	0.16012
2987.41819	0.16258
2986.45389	0.16483
2985.48958	0.16691
2984.52527	0.16884
2983.56097	0.17061
2982.59666	0.17222
2981.63236	0.17368
2980.66805	0.17503
2979.70375	0.17628
2978.73944	0.17743
2977.77514	0.17853
2976.81083	0.17967
2975.84653	0.18082
2974.88222	0.18195
2973.91792	0.18313
2972.95361	0.18441
2971.9893	0.18586
2971.025	0.1875
2970.06069	0.18935
2969.09639	0.19136
2968.13208	0.19352
2967.16778	0.19588
2966.20347	0.19849
2965.23917	0.20134
2964.27486	0.20442
2963.31056	0.2077
2962.34625	0.21114
2961.38194	0.21473
2960.41764	0.21849
2959.45333	0.22249
2958.48903	0.22678
2957.52472	0.23126
2956.56042	0.23586
2955.59611	0.24056
2954.63181	0.24537
2953.6675	0.25032
2952.7032	0.25539
2951.73889	0.26054
2950.77458	0.26565
2949.81028	0.27068
2948.84597	0.27559
2947.88167	0.28039
2946.91736	0.28505
2945.95306	0.28951
2944.98875	0.29372
2944.02445	0.29764
2943.06014	0.30117
2942.09584	0.30429
2941.13153	0.30704
2940.16723	0.30952
2939.20292	0.31167
2938.23861	0.31336
2937.27431	0.31458
2936.31	0.31538
2935.3457	0.31585
2934.38139	0.31599
2933.41709	0.31583
2932.45278	0.31536
2931.48848	0.31452
2930.52417	0.31333
2929.55987	0.31181
2928.59556	0.31001
2927.63125	0.30803
2926.66695	0.3058
2925.70264	0.3033
2924.73834	0.30051
2923.77403	0.29752
2922.80973	0.29432
2921.84542	0.29097
2920.88112	0.28749
2919.91681	0.28392
2918.95251	0.28023
2917.9882	0.27647
2917.0239	0.27274
2916.05959	0.26913
2915.09528	0.26568
2914.13098	0.26244
2913.16667	0.25933
2912.20237	0.25636
2911.23806	0.25358
2910.27376	0.25107
2909.30945	0.24887
2908.34515	0.24698
2907.38084	0.24534
2906.41654	0.24392
2905.45223	0.2426
2904.48792	0.24138
2903.52362	0.24033
2902.55931	0.23941
2901.59501	0.23844
2900.6307	0.23734
2899.6664	0.23607
2898.70209	0.23454
2897.73779	0.23279
2896.77348	0.23084
2895.80918	0.22866
2894.84487	0.22617
2893.88057	0.22332
2892.91626	0.22014
2891.95195	0.21673
2890.98765	0.21315
2890.02334	0.20943
2889.05904	0.2055
2888.09473	0.20137
2887.13043	0.19709
2886.16612	0.19269
2885.20182	0.18823
2884.23751	0.18378
2883.27321	0.17935
2882.3089	0.17484
2881.34459	0.17022
2880.38029	0.16556
2879.41598	0.16096
2878.45168	0.15642
2877.48737	0.15189
2876.52307	0.14737
2875.55876	0.14281
2874.59446	0.13824
2873.63015	0.13377
2872.66585	0.12942
2871.70154	0.12525
2870.73724	0.12124
2869.77293	0.11741
2868.80862	0.11377
2867.84432	0.11035
2866.88001	0.10724
2865.91571	0.10447
2864.9514	0.10208
2863.9871	0.10003
2863.02279	0.09829
2862.05849	0.09686
2861.09418	0.09578
2860.12988	0.09508
2859.16557	0.09479
2858.20126	0.09489
2857.23696	0.09533
2856.27265	0.09614
2855.30835	0.09732
2854.34404	0.09889
2853.37974	0.10087
2852.41543	0.10325
2851.45113	0.10596
2850.48682	0.10896
2849.52252	0.11227
2848.55821	0.11587
2847.59391	0.11967
2846.6296	0.1236
2845.66529	0.12749
2844.70099	0.13122
2843.73668	0.13467
2842.77238	0.13778
2841.80807	0.14055
2840.84377	0.14292
2839.87946	0.14482
2838.91516	0.14612
2837.95085	0.14673
2836.98655	0.14665
2836.02224	0.14589
2835.05793	0.14458
2834.09363	0.14277
2833.12932	0.14045
2832.16502	0.13772
2831.20071	0.13461
2830.23641	0.13127
2829.2721	0.12787
2828.3078	0.12453
2827.34349	0.12128
2826.37919	0.1181
2825.41488	0.11505
2824.45057	0.11214
2823.48627	0.10941
2822.52196	0.10688
2821.55766	0.10453
2820.59335	0.10226
2819.62905	0.1
2818.66474	0.0977
2817.70044	0.0953
2816.73613	0.09274
2815.77183	0.09004
2814.80752	0.08713
2813.84322	0.0839
2812.87891	0.0803
2811.9146	0.07635
2810.9503	0.07214
2809.98599	0.06771
2809.02169	0.06311
2808.05738	0.05838
2807.09308	0.05354
2806.12877	0.0487
2805.16447	0.04399
2804.20016	0.03954
2803.23586	0.03548
2802.27155	0.03185
2801.30724	0.02864
2800.34294	0.02585
2799.37863	0.02346
2798.41433	0.0215
2797.45002	0.01997
2796.48572	0.01878
2795.52141	0.01781
2794.55711	0.01698
2793.5928	0.01626
2792.6285	0.01567
2791.66419	0.01521
2790.69989	0.01487
2789.73558	0.0146
2788.77127	0.01433
2787.80697	0.01406
2786.84266	0.01378
2785.87836	0.01355
2784.91405	0.01343
2783.94975	0.01337
2782.98544	0.0133
2782.02114	0.01316
2781.05683	0.013
2780.09253	0.01288
2779.12822	0.01284
2778.16391	0.01287
2777.19961	0.01291
2776.2353	0.01292
2775.271	0.0129
2774.30669	0.01289
2773.34239	0.01294
2772.37808	0.01307
2771.41378	0.01322
2770.44947	0.01334
2769.48517	0.0134
2768.52086	0.01345
2767.55656	0.01356
2766.59225	0.01372
2765.62794	0.01389
2764.66364	0.01406
2763.69933	0.01416
2762.73503	0.0142
2761.77072	0.01425
2760.80642	0.01436
2759.84211	0.0145
2758.87781	0.01461
2757.9135	0.01466
2756.9492	0.01463
2755.98489	0.01457
2755.02058	0.01456
2754.05628	0.01459
2753.09197	0.01459
2752.12767	0.01452
2751.16336	0.01439
2750.19906	0.01425
2749.23475	0.01411
2748.27045	0.01397
2747.30614	0.01383
2746.34184	0.01368
2745.37753	0.01345
2744.41323	0.01319
2743.44892	0.01296
2742.48461	0.01275
2741.52031	0.01258
2740.556	0.01239
2739.5917	0.01218
2738.62739	0.01195
2737.66309	0.01172
2736.69878	0.01152
2735.73448	0.01137
2734.77017	0.01125
2733.80587	0.0111
2732.84156	0.01091
2731.87725	0.01074
2730.91295	0.01059
2729.94864	0.01047
2728.98434	0.01036
2728.02003	0.01026
2727.05573	0.01015
2726.09142	0.01003
2725.12712	0.00992
2724.16281	0.00982
2723.19851	0.00973
2722.2342	0.00967
2721.2699	0.00959
2720.30559	0.00951
2719.34128	0.00942
2718.37698	0.00935
2717.41267	0.00929
2716.44837	0.00924
2715.48406	0.00921
2714.51976	0.0092
2713.55545	0.00916
2712.59115	0.00914
2711.62684	0.00914
2710.66254	0.00914
2709.69823	0.00915
2708.73392	0.00917
2707.76962	0.00919
2706.80531	0.0092
2705.84101	0.00923
2704.8767	0.00926
2703.9124	0.00931
2702.94809	0.00939
2701.98379	0.00948
2701.01948	0.00957
2700.05518	0.00965
2699.09087	0.00969
2698.12656	0.00974
2697.16226	0.00984
2696.19795	0.00996
2695.23365	0.01006
2694.26934	0.01013
2693.30504	0.01019
2692.34073	0.01025
2691.37643	0.01036
2690.41212	0.0105
2689.44782	0.01064
2688.48351	0.01075
2687.51921	0.01085
2686.5549	0.01093
2685.59059	0.01102
2684.62629	0.01114
2683.66198	0.01126
2682.69768	0.01138
2681.73337	0.01148
2680.76907	0.01155
2679.80476	0.01164
2678.84046	0.01176
2677.87615	0.01192
2676.91185	0.01205
2675.94754	0.01216
2674.98323	0.01224
2674.01893	0.0123
2673.05462	0.01239
2672.09032	0.01253
2671.12601	0.01266
2670.16171	0.01277
2669.1974	0.01285
2668.2331	0.01292
2667.26879	0.013
2666.30449	0.01311
2665.34018	0.01325
2664.37588	0.01338
2663.41157	0.01346
2662.44726	0.0135
2661.48296	0.01355
2660.51865	0.01362
2659.55435	0.01371
2658.59004	0.0138
2657.62574	0.01386
2656.66143	0.01389
2655.69713	0.01392
2654.73282	0.01398
2653.76852	0.01404
2652.80421	0.0141
2651.8399	0.01415
2650.8756	0.01416
2649.91129	0.01418
2648.94699	0.01421
2647.98268	0.01424
2647.01838	0.01428
2646.05407	0.01432
2645.08977	0.01436
2644.12546	0.01435
2643.16116	0.01431
2642.19685	0.0143
2641.23255	0.0143
2640.26824	0.01431
2639.30393	0.01431
2638.33963	0.01431
2637.37532	0.01428
2636.41102	0.01426
2635.44671	0.01423
2634.48241	0.01422
2633.5181	0.01421
2632.5538	0.01419
2631.58949	0.01416
2630.62519	0.01413
2629.66088	0.01408
2628.69657	0.01406
2627.73227	0.01402
2626.76796	0.01398
2625.80366	0.01391
2624.83935	0.01384
2623.87505	0.01377
2622.91074	0.01368
2621.94644	0.01361
2620.98213	0.01355
2620.01783	0.0135
2619.05352	0.01343
2618.08922	0.01337
2617.12491	0.01332
2616.1606	0.01327
2615.1963	0.01322
2614.23199	0.01319
2613.26769	0.01317
2612.30338	0.01315
2611.33908	0.01313
2610.37477	0.01311
2609.41047	0.01308
2608.44616	0.01309
2607.48186	0.01309
2606.51755	0.01307
2605.55324	0.01306
2604.58894	0.01306
2603.62463	0.01306
2602.66033	0.01307
2601.69602	0.01311
2600.73172	0.0131
2599.76741	0.01305
2598.80311	0.01299
2597.8388	0.01295
2596.8745	0.01291
2595.91019	0.0129
2594.94589	0.01285
2593.98158	0.01279
2593.01727	0.0127
2592.05297	0.01261
2591.08866	0.01253
2590.12436	0.01245
2589.16005	0.01237
2588.19575	0.01229
2587.23144	0.01218
2586.26714	0.01204
2585.30283	0.01191
2584.33853	0.01179
2583.37422	0.01169
2582.40991	0.01161
2581.44561	0.01153
2580.4813	0.01144
2579.517	0.01133
2578.55269	0.01124
2577.58839	0.01118
2576.62408	0.01113
2575.65978	0.01106
2574.69547	0.01099
2573.73117	0.01092
2572.76686	0.01084
2571.80255	0.01077
2570.83825	0.01071
2569.87394	0.01067
2568.90964	0.01061
2567.94533	0.01056
2566.98103	0.01049
2566.01672	0.0104
2565.05242	0.01033
2564.08811	0.01029
2563.12381	0.01026
2562.1595	0.01019
2561.1952	0.0101
2560.23089	0.01001
2559.26658	0.00994
2558.30228	0.00989
2557.33797	0.00985
2556.37367	0.0098
2555.40936	0.00972
2554.44506	0.00964
2553.48075	0.00958
2552.51645	0.00955
2551.55214	0.00951
2550.58784	0.00948
2549.62353	0.00943
2548.65922	0.00934
2547.69492	0.00927
2546.73061	0.00924
2545.76631	0.00923
2544.802	0.00924
2543.8377	0.00921
2542.87339	0.00916
2541.90909	0.0091
2540.94478	0.00905
2539.98048	0.00905
2539.01617	0.00907
2538.05187	0.00906
2537.08756	0.00902
2536.12325	0.00895
2535.15895	0.00891
2534.19464	0.0089
2533.23034	0.0089
2532.26603	0.00892
2531.30173	0.00892
2530.33742	0.00889
2529.37312	0.00886
2528.40881	0.00884
2527.44451	0.00887
2526.4802	0.0089
2525.51589	0.0089
2524.55159	0.00887
2523.58728	0.00881
2522.62298	0.00875
2521.65867	0.00875
2520.69437	0.00881
2519.73006	0.00886
2518.76576	0.00885
2517.80145	0.0088
2516.83715	0.00878
2515.87284	0.00877
2514.90854	0.00882
2513.94423	0.00887
2512.97992	0.00886
2512.01562	0.0088
2511.05131	0.00874
2510.08701	0.00873
2509.1227	0.00877
2508.1584	0.00882
2507.19409	0.00884
2506.22979	0.0088
2505.26548	0.00876
2504.30118	0.00874
2503.33687	0.00877
2502.37256	0.00882
2501.40826	0.00886
2500.44395	0.00886
2499.47965	0.00882
2498.51534	0.00879
2497.55104	0.00879
2496.58673	0.00882
2495.62243	0.00887
2494.65812	0.00889
2493.69382	0.00887
2492.72951	0.00881
2491.76521	0.00879
2490.8009	0.00882
2489.83659	0.00888
2488.87229	0.00894
2487.90798	0.00894
2486.94368	0.00888
2485.97937	0.00883
2485.01507	0.00883
2484.05076	0.00887
2483.08646	0.00892
2482.12215	0.00893
2481.15785	0.00887
2480.19354	0.00883
2479.22923	0.00882
2478.26493	0.00885
2477.30062	0.00889
2476.33632	0.00893
2475.37201	0.00891
2474.40771	0.00884
2473.4434	0.00878
2472.4791	0.00878
2471.51479	0.00884
2470.55049	0.00888
2469.58618	0.00887
2468.62188	0.00883
2467.65757	0.00878
2466.69326	0.00876
2465.72896	0.00879
2464.76465	0.00885
2463.80035	0.00885
2462.83604	0.00878
2461.87174	0.0087
2460.90743	0.00864
2459.94313	0.00865
2458.97882	0.0087
2458.01452	0.00871
2457.05021	0.00867
2456.0859	0.0086
2455.1216	0.00853
2454.15729	0.0085
2453.19299	0.00854
2452.22868	0.00856
2451.26438	0.00854
2450.30007	0.00846
2449.33577	0.00836
2448.37146	0.00831
2447.40716	0.00832
2446.44285	0.00835
2445.47854	0.00834
2444.51424	0.00827
2443.54993	0.00818
2442.58563	0.00815
2441.62132	0.00814
2440.65702	0.00815
2439.69271	0.00815
2438.72841	0.0081
2437.7641	0.00802
2436.7998	0.00795
2435.83549	0.00792
2434.87119	0.00792
2433.90688	0.00792
2432.94257	0.00793
2431.97827	0.00788
2431.01396	0.0078
2430.04966	0.00774
2429.08535	0.00772
2428.12105	0.00774
2427.15674	0.00777
2426.19244	0.00774
2425.22813	0.00768
2424.26383	0.00763
2423.29952	0.00764
2422.33521	0.00769
2421.37091	0.00774
2420.4066	0.00773
2419.4423	0.00766
2418.47799	0.00759
2417.51369	0.00758
2416.54938	0.00762
2415.58508	0.00767
2414.62077	0.00766
2413.65647	0.00761
2412.69216	0.00753
2411.72786	0.00748
2410.76355	0.00745
2409.79924	0.00747
2408.83494	0.0075
2407.87063	0.00747
2406.90633	0.00741
2405.94202	0.00733
2404.97772	0.0073
2404.01341	0.00732
2403.04911	0.00735
2402.0848	0.00734
2401.1205	0.00731
2400.15619	0.00723
2399.19188	0.00718
2398.22758	0.00718
2397.26327	0.00722
2396.29897	0.00729
2395.33466	0.00729
2394.37036	0.00725
2393.40605	0.0072
2392.44175	0.00719
2391.47744	0.00721
2390.51314	0.00727
2389.54883	0.00729
2388.58453	0.00726
2387.62022	0.00717
2386.65591	0.00711
2385.69161	0.0071
2384.7273	0.00713
2383.763	0.00713
2382.79869	0.00712
2381.83439	0.00704
2380.87008	0.00695
2379.90578	0.00693
2378.94147	0.00697
2377.97717	0.00699
2377.01286	0.00697
2376.04855	0.0069
2375.08425	0.00684
2374.11994	0.00683
2373.15564	0.00686
2372.19133	0.00688
2371.22703	0.00688
2370.26272	0.00682
2369.29842	0.00674
2368.33411	0.00672
2367.36981	0.00674
2366.4055	0.00675
2365.4412	0.00676
2364.47689	0.00674
2363.51258	0.00667
2362.54828	0.00661
2361.58397	0.00661
2360.61967	0.00666
2359.65536	0.00671
2358.69106	0.00671
2357.72675	0.00667
2356.76245	0.00664
2355.79814	0.00662
2354.83384	0.00666
2353.86953	0.00673
2352.90522	0.00674
2351.94092	0.00668
2350.97661	0.00659
2350.01231	0.00654
2349.048	0.00658
2348.0837	0.00665
2347.11939	0.0067
2346.15509	0.00669
2345.19078	0.00665
2344.22648	0.00661
2343.26217	0.00663
2342.29786	0.0067
2341.33356	0.00677
2340.36925	0.0068
2339.40495	0.0068
2338.44064	0.00681
2337.47634	0.00687
2336.51203	0.00695
2335.54773	0.00698
2334.58342	0.00693
2333.61912	0.00681
2332.65481	0.00672
2331.69051	0.00669
2330.7262	0.00674
2329.76189	0.00683
2328.79759	0.00688
2327.83328	0.00686
2326.86898	0.00683
2325.90467	0.00682
2324.94037	0.00687
2323.97606	0.00696
2323.01176	0.00705
2322.04745	0.00707
2321.08315	0.00703
2320.11884	0.007
2319.15453	0.00702
2318.19023	0.0071
2317.22592	0.00718
2316.26162	0.00724
2315.29731	0.00725
2314.33301	0.00722
2313.3687	0.00722
2312.4044	0.00726
2311.44009	0.00736
2310.47579	0.00745
2309.51148	0.00748
2308.54718	0.00744
2307.58287	0.0074
2306.61856	0.00742
2305.65426	0.00751
2304.68995	0.00762
2303.72565	0.00767
2302.76134	0.00764
2301.79704	0.00758
2300.83273	0.00756
2299.86843	0.00763
2298.90412	0.00773
2297.93982	0.00778
2296.97551	0.00776
2296.0112	0.0077
2295.0469	0.00764
2294.08259	0.00766
2293.11829	0.00773
2292.15398	0.00782
2291.18968	0.00784
2290.22537	0.00778
2289.26107	0.0077
2288.29676	0.00764
2287.33246	0.00769
2286.36815	0.00779
2285.40385	0.00787
2284.43954	0.00786
2283.47523	0.00777
2282.51093	0.00769
2281.54662	0.00772
2280.58232	0.00785
2279.61801	0.00796
2278.65371	0.00797
2277.6894	0.00789
2276.7251	0.0078
2275.76079	0.00781
2274.79649	0.00793
2273.83218	0.00808
2272.86787	0.00816
2271.90357	0.0081
2270.93926	0.00798
2269.97496	0.00794
2269.01065	0.00806
2268.04635	0.00827
2267.08204	0.0084
2266.11774	0.00838
2265.15343	0.00827
2264.18913	0.00822
2263.22482	0.00831
2262.26052	0.00849
2261.29621	0.00865
2260.3319	0.00869
2259.3676	0.00862
2258.40329	0.00853
2257.43899	0.00855
2256.47468	0.0087
2255.51038	0.00888
2254.54607	0.00898
2253.58177	0.00893
2252.61746	0.00884
2251.65316	0.00881
2250.68885	0.00893
2249.72454	0.00912
2248.76024	0.00927
2247.79593	0.0093
2246.83163	0.00922
2245.86732	0.00914
2244.90302	0.00922
2243.93871	0.0094
2242.97441	0.00958
2242.0101	0.00965
2241.0458	0.0096
2240.08149	0.00951
2239.11719	0.00952
2238.15288	0.00968
2237.18857	0.00987
2236.22427	0.01
2235.25996	0.01001
2234.29566	0.00993
2233.33135	0.0099
2232.36705	0.01001
2231.40274	0.01022
2230.43844	0.01041
2229.47413	0.01044
2228.50983	0.0104
2227.54552	0.01037
2226.58121	0.01044
2225.61691	0.0106
2224.6526	0.01082
2223.6883	0.01095
2222.72399	0.01095
2221.75969	0.01088
2220.79538	0.01087
2219.83108	0.01101
2218.86677	0.01126
2217.90247	0.01143
2216.93816	0.01149
2215.97385	0.01146
2215.00955	0.01143
2214.04524	0.01152
2213.08094	0.01173
2212.11663	0.01198
2211.15233	0.01214
2210.18802	0.01216
2209.22372	0.01212
2208.25941	0.01211
2207.29511	0.01227
2206.3308	0.01257
2205.3665	0.01281
2204.40219	0.01288
2203.43788	0.0128
2202.47358	0.01273
2201.50927	0.01286
2200.54497	0.01314
2199.58066	0.01342
2198.61636	0.01358
2197.65205	0.01354
2196.68775	0.01344
2195.72344	0.01346
2194.75914	0.01369
2193.79483	0.01402
2192.83052	0.01425
2191.86622	0.01428
2190.90191	0.01418
2189.93761	0.01412
2188.9733	0.01429
2188.009	0.01462
2187.04469	0.0149
2186.08039	0.015
2185.11608	0.01491
2184.15178	0.0148
2183.18747	0.01487
2182.22317	0.01518
2181.25886	0.01552
2180.29455	0.01571
2179.33025	0.01566
2178.36594	0.01553
2177.40164	0.01553
2176.43733	0.01574
2175.47303	0.0161
2174.50872	0.01637
2173.54442	0.01639
2172.58011	0.01623
2171.61581	0.01615
2170.6515	0.01628
2169.68719	0.0166
2168.72289	0.0169
2167.75858	0.01697
2166.79428	0.01682
2165.82997	0.01666
2164.86567	0.0167
2163.90136	0.01695
2162.93706	0.01727
2161.97275	0.01743
2161.00845	0.01734
2160.04414	0.01715
2159.07984	0.01707
2158.11553	0.01718
2157.15122	0.01744
2156.18692	0.01764
2155.22261	0.01763
2154.25831	0.01745
2153.294	0.0173
2152.3297	0.01734
2151.36539	0.01757
2150.40109	0.01783
2149.43678	0.01789
2148.47248	0.01774
2147.50817	0.01755
2146.54386	0.01751
2145.57956	0.01767
2144.61525	0.01792
2143.65095	0.01808
2142.68664	0.01808
2141.72234	0.01792
2140.75803	0.01781
2139.79373	0.01791
2138.82942	0.01816
2137.86512	0.0184
2136.90081	0.01846
2135.93651	0.01834
2134.9722	0.01816
2134.00789	0.01818
2133.04359	0.01839
2132.07928	0.01866
2131.11498	0.01883
2130.15067	0.0188
2129.18637	0.01864
2128.22206	0.01857
2127.25776	0.0187
2126.29345	0.01896
2125.32915	0.01917
2124.36484	0.01922
2123.40053	0.01913
2122.43623	0.01901
2121.47192	0.01903
2120.50762	0.01923
2119.54331	0.0195
2118.57901	0.01964
2117.6147	0.01961
2116.6504	0.01946
2115.68609	0.0194
2114.72179	0.01952
2113.75748	0.01977
2112.79318	0.01998
2111.82887	0.02
2110.86456	0.01989
2109.90026	0.01976
2108.93595	0.01979
2107.97165	0.01996
2107.00734	0.02018
2106.04304	0.0203
2105.07873	0.02024
2104.11443	0.02008
2103.15012	0.02
2102.18582	0.0201
2101.22151	0.02035
2100.2572	0.02053
2099.2929	0.02053
2098.32859	0.02038
2097.36429	0.02027
2096.39998	0.0203
2095.43568	0.0205
2094.47137	0.02072
2093.50707	0.02081
2092.54276	0.02072
2091.57846	0.02058
2090.61415	0.02052
2089.64984	0.02064
2088.68554	0.02088
2087.72123	0.02106
2086.75693	0.02105
2085.79262	0.02088
2084.82832	0.02071
2083.86401	0.02072
2082.89971	0.02091
2081.9354	0.02113
2080.9711	0.02122
2080.00679	0.02112
2079.04249	0.02092
2078.07818	0.02085
2077.11387	0.02098
2076.14957	0.02123
2075.18526	0.02139
2074.22096	0.02133
2073.25665	0.02112
2072.29235	0.02095
2071.32804	0.02101
2070.36374	0.02123
2069.39943	0.02142
2068.43513	0.02143
2067.47082	0.02126
2066.50651	0.02106
2065.54221	0.02103
2064.5779	0.0212
2063.6136	0.02138
2062.64929	0.02142
2061.68499	0.0213
2060.72068	0.02106
2059.75638	0.02089
2058.79207	0.02089
2057.82777	0.02104
2056.86346	0.02113
2055.89916	0.02104
2054.93485	0.02074
2053.97054	0.02045
2053.00624	0.02031
2052.04193	0.02034
2051.07763	0.02042
2050.11332	0.02033
2049.14902	0.02003
2048.18471	0.01964
2047.22041	0.01934
2046.2561	0.01925
2045.2918	0.01927
2044.32749	0.01922
2043.36318	0.01896
2042.39888	0.01856
2041.43457	0.01821
2040.47027	0.01802
2039.50596	0.01797
2038.54166	0.01795
2037.57735	0.01778
2036.61305	0.01742
2035.64874	0.01703
2034.68444	0.01679
2033.72013	0.01671
2032.75583	0.0167
2031.79152	0.0166
2030.82721	0.01634
2029.86291	0.01598
2028.8986	0.01568
2027.9343	0.01556
2026.96999	0.01557
2026.00569	0.01554
2025.04138	0.01534
2024.07708	0.01503
2023.11277	0.01472
2022.14847	0.01454
2021.18416	0.01452
2020.21985	0.01455
2019.25555	0.01446
2018.29124	0.01424
2017.32694	0.01398
2016.36263	0.01377
2015.39833	0.01365
2014.43402	0.01367
2013.46972	0.01367
2012.50541	0.01352
2011.54111	0.01327
2010.5768	0.01305
2009.6125	0.01297
2008.64819	0.01303
2007.68388	0.01309
2006.71958	0.01302
2005.75527	0.01282
2004.79097	0.01259
2003.82666	0.01247
2002.86236	0.01249
2001.89805	0.01256
2000.93375	0.01256
1999.96944	0.01243
1999.00514	0.01222
1998.04083	0.01203
1997.07652	0.01197
1996.11222	0.01202
1995.14791	0.01205
1994.18361	0.01196
1993.2193	0.01182
1992.255	0.01172
1991.29069	0.01156
1990.32639	0.01143
1989.36208	0.01148
1988.39778	0.01145
1987.43347	0.01125
1986.46917	0.01098
1985.50486	0.01081
1984.54055	0.01078
1983.57625	0.01082
1982.61194	0.01081
1981.64764	0.01067
1980.68333	0.01044
1979.71903	0.01025
1978.75472	0.01018
1977.79042	0.01024
1976.82611	0.0103
1975.86181	0.01026
1974.8975	0.0101
1973.93319	0.00991
1972.96889	0.0098
1972.00458	0.00982
1971.04028	0.00989
1970.07597	0.00991
1969.11167	0.00982
1968.14736	0.00974
1967.18306	0.0097
1966.21875	0.00967
1965.25445	0.00969
1964.29014	0.00971
1963.32583	0.00965
1962.36153	0.00955
1961.39722	0.0095
1960.43292	0.0095
1959.46861	0.00955
1958.50431	0.00961
1957.54	0.00963
1956.5757	0.00961
1955.61139	0.00955
1954.64709	0.00954
1953.68278	0.00955
1952.71848	0.0096
1951.75417	0.00962
1950.78986	0.00962
1949.82556	0.00958
1948.86125	0.00954
1947.89695	0.00954
1946.93264	0.00956
1945.96834	0.0096
1945.00403	0.00957
1944.03973	0.00957
1943.07542	0.00972
1942.11112	0.0097
1941.14681	0.00943
1940.1825	0.0093
1939.2182	0.00927
1938.25389	0.00923
1937.28959	0.00918
1936.32528	0.00909
1935.36098	0.00902
1934.39667	0.00898
1933.43237	0.00893
1932.46806	0.00891
1931.50376	0.00886
1930.53945	0.00879
1929.57515	0.0087
1928.61084	0.00863
1927.64653	0.0086
1926.68223	0.00857
1925.71792	0.00857
1924.75362	0.00857
1923.78931	0.00865
1922.82501	0.00868
1921.8607	0.00848
1920.8964	0.0083
1919.93209	0.00832
1918.96779	0.00865
1918.00348	0.00895
1917.03917	0.00863
1916.07487	0.00822
1915.11056	0.00815
1914.14626	0.00819
1913.18195	0.00827
1912.21765	0.00831
1911.25334	0.0083
1910.28904	0.00828
1909.32473	0.0082
1908.36043	0.00819
1907.39612	0.00824
1906.43182	0.00828
1905.46751	0.00825
1904.5032	0.00816
1903.5389	0.00805
1902.57459	0.00802
1901.61029	0.00812
1900.64598	0.0082
1899.68168	0.0082
1898.71737	0.0081
1897.75307	0.00797
1896.78876	0.00791
1895.82446	0.00802
1894.86015	0.00814
1893.89584	0.00808
1892.93154	0.00797
1891.96723	0.00784
1891.00293	0.00783
1890.03862	0.00806
1889.07432	0.00814
1888.11001	0.00796
1887.14571	0.00783
1886.1814	0.00772
1885.2171	0.00763
1884.25279	0.00758
1883.28849	0.00754
1882.32418	0.00759
1881.35987	0.00762
1880.39557	0.00758
1879.43126	0.00746
1878.46696	0.00734
1877.50265	0.00729
1876.53835	0.00731
1875.57404	0.00736
1874.60974	0.00736
1873.64543	0.00726
1872.68113	0.0071
1871.71682	0.00701
1870.75251	0.00717
1869.78821	0.00761
1868.8239	0.00778
1867.8596	0.00751
1866.89529	0.00718
1865.93099	0.0069
1864.96668	0.00673
1864.00238	0.00674
1863.03807	0.0068
1862.07377	0.00681
1861.10946	0.00669
1860.14516	0.00651
1859.18085	0.0064
1858.21654	0.00641
1857.25224	0.00645
1856.28793	0.0065
1855.32363	0.00643
1854.35932	0.00629
1853.39502	0.00619
1852.43071	0.00615
1851.46641	0.00622
1850.5021	0.00629
1849.5378	0.00636
1848.57349	0.00639
1847.60918	0.00632
1846.64488	0.00618
1845.68057	0.00645
1844.71627	0.00735
1843.75196	0.0075
1842.78766	0.00679
1841.82335	0.0064
1840.85905	0.00625
1839.89474	0.00625
1838.93044	0.00642
1837.96613	0.00669
1837.00182	0.00684
1836.03752	0.00671
1835.07321	0.00655
1834.10891	0.00653
1833.1446	0.00668
1832.1803	0.00693
1831.21599	0.00736
1830.25169	0.00785
1829.28738	0.00768
1828.32308	0.00715
1827.35877	0.00704
1826.39447	0.0075
1825.43016	0.00813
1824.46585	0.00805
1823.50155	0.00761
1822.53724	0.00744
1821.57294	0.00746
1820.60863	0.00768
1819.64433	0.00793
1818.68002	0.00812
1817.71572	0.00818
1816.75141	0.00806
1815.78711	0.00799
1814.8228	0.00812
1813.85849	0.00841
1812.89419	0.00868
1811.92988	0.00885
1810.96558	0.00895
1810.00127	0.00882
1809.03697	0.00871
1808.07266	0.00889
1807.10836	0.00917
1806.14405	0.00928
1805.17975	0.00926
1804.21544	0.00918
1803.25114	0.00932
1802.28683	0.0097
1801.32252	0.01
1800.35822	0.01028
1799.39391	0.01034
1798.42961	0.01001
1797.4653	0.00978
1796.501	0.00996
1795.53669	0.01023
1794.57239	0.01044
1793.60808	0.011
1792.64378	0.01145
1791.67947	0.01117
1790.71516	0.01079
1789.75086	0.01067
1788.78655	0.01077
1787.82225	0.01099
1786.85794	0.01106
1785.89364	0.01124
1784.92933	0.01141
1783.96503	0.01127
1783.00072	0.01126
1782.03642	0.01163
1781.07211	0.01207
1780.10781	0.01205
1779.1435	0.01168
1778.17919	0.01157
1777.21489	0.01175
1776.25058	0.01223
1775.28628	0.01253
1774.32197	0.01255
1773.35767	0.013
1772.39336	0.01336
1771.42906	0.01322
1770.46475	0.01298
1769.50045	0.01317
1768.53614	0.01383
1767.57183	0.01372
1766.60753	0.01299
1765.64322	0.01278
1764.67892	0.01299
1763.71461	0.01338
1762.75031	0.01405
1761.786	0.0144
1760.8217	0.01384
1759.85739	0.01325
1758.89309	0.01333
1757.92878	0.01387
1756.96448	0.0145
1756.00017	0.01435
1755.03586	0.01372
1754.07156	0.01336
1753.10725	0.01335
1752.14295	0.01419
1751.17864	0.01501
1750.21434	0.01471
1749.25003	0.01431
1748.28573	0.01408
1747.32142	0.01369
1746.35712	0.0136
1745.39281	0.01384
1744.4285	0.01434
1743.4642	0.01464
1742.49989	0.01436
1741.53559	0.01409
1740.57128	0.01467
1739.60698	0.01541
1738.64267	0.01556
1737.67837	0.01567
1736.71406	0.01577
1735.74976	0.01625
1734.78545	0.01757
1733.82115	0.01832
1732.85684	0.0181
1731.89253	0.01794
1730.92823	0.01823
1729.96392	0.01846
1728.99962	0.01825
1728.03531	0.01837
1727.07101	0.01904
1726.1067	0.01976
1725.1424	0.02024
1724.17809	0.02047
1723.21379	0.02054
1722.24948	0.02069
1721.28517	0.02126
1720.32087	0.02218
1719.35656	0.02339
1718.39226	0.02439
1717.42795	0.02435
1716.46365	0.024
1715.49934	0.02451
1714.53504	0.02538
1713.57073	0.02567
1712.60643	0.02573
1711.64212	0.02582
1710.67781	0.02604
1709.71351	0.02651
1708.7492	0.02712
1707.7849	0.02815
1706.82059	0.02924
1705.85629	0.02973
1704.89198	0.02988
1703.92768	0.03009
1702.96337	0.03051
1701.99907	0.03188
1701.03476	0.03433
1700.07046	0.03539
1699.10615	0.03441
1698.14184	0.0339
1697.17754	0.03491
1696.21323	0.03684
1695.24893	0.03793
1694.28462	0.0378
1693.32032	0.03795
1692.35601	0.03848
1691.39171	0.03935
1690.4274	0.04069
1689.4631	0.04212
1688.49879	0.04337
1687.53448	0.04413
1686.57018	0.04478
1685.60587	0.04632
1684.64157	0.04843
1683.67726	0.04996
1682.71296	0.0507
1681.74865	0.05134
1680.78435	0.05241
1679.82004	0.05347
1678.85574	0.05446
1677.89143	0.05587
1676.92713	0.05779
1675.96282	0.06023
1674.99851	0.0618
1674.03421	0.062
1673.0699	0.06281
1672.1056	0.06473
1671.14129	0.06667
1670.17699	0.06864
1669.21268	0.07044
1668.24838	0.07114
1667.28407	0.07157
1666.31977	0.07277
1665.35546	0.07435
1664.39115	0.07621
1663.42685	0.07822
1662.46254	0.07959
1661.49824	0.08011
1660.53393	0.08089
1659.56963	0.08226
1658.60532	0.08377
1657.64102	0.08522
1656.67671	0.08627
1655.71241	0.08732
1654.7481	0.08884
1653.7838	0.09088
1652.81949	0.09241
1651.85518	0.0924
1650.89088	0.09212
1649.92657	0.09237
1648.96227	0.09306
1647.99796	0.09395
1647.03366	0.09476
1646.06935	0.09544
1645.10505	0.09538
1644.14074	0.0949
1643.17644	0.09459
1642.21213	0.09431
1641.24782	0.09418
1640.28352	0.09424
1639.31921	0.09423
1638.35491	0.09407
1637.3906	0.09352
1636.4263	0.09292
1635.46199	0.09256
1634.49769	0.09134
1633.53338	0.08984
1632.56908	0.08877
1631.60477	0.08742
1630.64047	0.08595
1629.67616	0.08446
1628.71185	0.08345
1627.74755	0.08261
1626.78324	0.08116
1625.81894	0.0794
1624.85463	0.07772
1623.89033	0.07638
1622.92602	0.07468
1621.96172	0.07279
1620.99741	0.0713
1620.03311	0.0698
1619.0688	0.06804
1618.10449	0.06638
1617.14019	0.0653
1616.17588	0.06377
1615.21158	0.06171
1614.24727	0.06007
1613.28297	0.05843
1612.31866	0.0566
1611.35436	0.05489
1610.39005	0.05361
1609.42575	0.05268
1608.46144	0.05172
1607.49714	0.05066
1606.53283	0.04933
1605.56852	0.04788
1604.60422	0.04674
1603.63991	0.04606
1602.67561	0.04555
1601.7113	0.04494
1600.747	0.04408
1599.78269	0.04297
1598.81839	0.04202
1597.85408	0.04147
1596.88978	0.04129
1595.92547	0.04116
1594.96116	0.04078
1593.99686	0.04006
1593.03255	0.03921
1592.06825	0.03872
1591.10394	0.03864
1590.13964	0.03872
1589.17533	0.0386
1588.21103	0.0382
1587.24672	0.03764
1586.28242	0.03721
1585.31811	0.03714
1584.3538	0.03735
1583.3895	0.03756
1582.42519	0.03745
1581.46089	0.03712
1580.49658	0.03678
1579.53228	0.03671
1578.56797	0.037
1577.60367	0.03762
1576.63936	0.03844
1575.67506	0.03829
1574.71075	0.03738
1573.74645	0.03703
1572.78214	0.03723
1571.81783	0.03769
1570.85353	0.0385
1569.88922	0.03926
1568.92492	0.03899
1567.96061	0.03821
1566.99631	0.03805
1566.032	0.03859
1565.0677	0.03941
1564.10339	0.03962
1563.13909	0.03933
1562.17478	0.03916
1561.21047	0.03977
1560.24617	0.04116
1559.28186	0.04216
1558.31756	0.04279
1557.35325	0.04249
1556.38895	0.0412
1555.42464	0.04098
1554.46034	0.04169
1553.49603	0.04192
1552.53173	0.04198
1551.56742	0.04234
1550.60312	0.04281
1549.63881	0.04285
1548.6745	0.04263
1547.7102	0.04286
1546.74589	0.04363
1545.78159	0.04469
1544.81728	0.04518
1543.85298	0.04502
1542.88867	0.04556
1541.92437	0.0464
1540.96006	0.04683
1539.99576	0.04763
1539.03145	0.04808
1538.06714	0.04744
1537.10284	0.04683
1536.13853	0.04698
1535.17423	0.04789
1534.20992	0.0493
1533.24562	0.05011
1532.28131	0.04988
1531.31701	0.0496
1530.3527	0.04965
1529.3884	0.05029
1528.42409	0.05147
1527.45979	0.0523
1526.49548	0.05287
1525.53117	0.05326
1524.56687	0.0532
1523.60256	0.05354
1522.63826	0.05496
1521.67395	0.05673
1520.70965	0.05743
1519.74534	0.05677
1518.78104	0.05633
1517.81673	0.05725
1516.85243	0.05832
1515.88812	0.05887
1514.92381	0.05934
1513.95951	0.05965
1512.9952	0.06026
1512.0309	0.06095
1511.06659	0.06156
1510.10229	0.06279
1509.13798	0.06421
1508.17368	0.06549
1507.20937	0.06661
1506.24507	0.06725
1505.28076	0.06746
1504.31646	0.06784
1503.35215	0.06887
1502.38784	0.07019
1501.42354	0.07127
1500.45923	0.07225
1499.49493	0.07391
1498.53062	0.07566
1497.56632	0.07716
1496.60201	0.07919
1495.63771	0.08077
1494.6734	0.08179
1493.7091	0.08342
1492.74479	0.08566
1491.78048	0.08859
1490.81618	0.09198
1489.85187	0.09496
1488.88757	0.09746
1487.92326	0.10045
1486.95896	0.10407
1485.99465	0.10795
1485.03035	0.11229
1484.06604	0.11703
1483.10174	0.12199
1482.13743	0.12738
1481.17313	0.13316
1480.20882	0.13924
1479.24451	0.14555
1478.28021	0.15196
1477.3159	0.15845
1476.3516	0.16469
1475.38729	0.16992
1474.42299	0.1749
1473.45868	0.17993
1472.49438	0.18392
1471.53007	0.18659
1470.56577	0.18824
1469.60146	0.18976
1468.63715	0.19137
1467.67285	0.19289
1466.70854	0.19455
1465.74424	0.1964
1464.77993	0.19806
1463.81563	0.19898
1462.85132	0.19999
1461.88702	0.20141
1460.92271	0.20258
1459.95841	0.20367
1458.9941	0.20433
1458.02979	0.20466
1457.06549	0.20457
1456.10118	0.20313
1455.13688	0.20092
1454.17257	0.19894
1453.20827	0.19706
1452.24396	0.19488
1451.27966	0.1922
1450.31535	0.18903
1449.35105	0.18568
1448.38674	0.18227
1447.42244	0.17827
1446.45813	0.1739
1445.49382	0.16983
1444.52952	0.16623
1443.56521	0.16288
1442.60091	0.15979
1441.6366	0.15693
1440.6723	0.15434
1439.70799	0.15211
1438.74369	0.15021
1437.77938	0.14937
1436.81508	0.14909
1435.85077	0.14785
1434.88646	0.14664
1433.92216	0.14663
1432.95785	0.14713
1431.99355	0.14776
1431.02924	0.14873
1430.06494	0.14991
1429.10063	0.15086
1428.13633	0.15172
1427.17202	0.15287
1426.20772	0.15396
1425.24341	0.15515
1424.27911	0.15654
1423.3148	0.15764
1422.35049	0.15864
1421.38619	0.15995
1420.42188	0.16202
1419.45758	0.16427
1418.49327	0.16548
1417.52897	0.16646
1416.56466	0.16792
1415.60036	0.16937
1414.63605	0.17082
1413.67175	0.17215
1412.70744	0.17331
1411.74313	0.17426
1410.77883	0.175
1409.81452	0.17559
1408.85022	0.17592
1407.88591	0.17597
1406.92161	0.17564
1405.9573	0.17511
1404.993	0.1744
1404.02869	0.17314
1403.06439	0.17165
1402.10008	0.17013
1401.13578	0.16841
1400.17147	0.16681
1399.20716	0.1653
1398.24286	0.16355
1397.27855	0.16193
1396.31425	0.16082
1395.34994	0.16031
1394.38564	0.15992
1393.42133	0.15933
1392.45703	0.15936
1391.49272	0.16018
1390.52842	0.16133
1389.56411	0.16272
1388.5998	0.1646
1387.6355	0.16659
1386.67119	0.16751
1385.70689	0.16772
1384.74258	0.16866
1383.77828	0.17123
1382.81397	0.17532
1381.84967	0.17954
1380.88536	0.18318
1379.92106	0.18632
1378.95675	0.18923
1377.99245	0.19219
1377.02814	0.19535
1376.06383	0.19897
1375.09953	0.20298
1374.13522	0.20705
1373.17092	0.21083
1372.20661	0.21446
1371.24231	0.21819
1370.278	0.22167
1369.3137	0.2246
1368.34939	0.22669
1367.38509	0.22774
1366.42078	0.22801
1365.45647	0.22758
1364.49217	0.22645
1363.52786	0.22445
1362.56356	0.22116
1361.59925	0.2169
1360.63495	0.21214
1359.67064	0.2071
1358.70634	0.20231
1357.74203	0.19783
1356.77773	0.19348
1355.81342	0.18936
1354.84911	0.18556
1353.88481	0.18216
1352.9205	0.17921
1351.9562	0.17668
1350.99189	0.17425
1350.02759	0.1717
1349.06328	0.1691
1348.09898	0.16668
1347.13467	0.16481
1346.17037	0.16361
1345.20606	0.16298
1344.24176	0.16278
1343.27745	0.16301
1342.31314	0.16385
1341.34884	0.16553
1340.38453	0.16801
1339.42023	0.17078
1338.45592	0.1734
1337.49162	0.17571
1336.52731	0.1777
1335.56301	0.17943
1334.5987	0.18098
1333.6344	0.18223
1332.67009	0.18282
1331.70578	0.18259
1330.74148	0.18169
1329.77717	0.18051
1328.81287	0.17937
1327.84856	0.17831
1326.88426	0.17726
1325.91995	0.176
1324.95565	0.17447
1323.99134	0.17286
1323.02704	0.17136
1322.06273	0.1701
1321.09843	0.16889
1320.13412	0.16761
1319.16981	0.16609
1318.20551	0.16442
1317.2412	0.1629
1316.2769	0.16173
1315.31259	0.16086
1314.34829	0.16011
1313.38398	0.15925
1312.41968	0.15821
1311.45537	0.15719
1310.49107	0.15655
1309.52676	0.1564
1308.56245	0.15656
1307.59815	0.15676
1306.63384	0.15689
1305.66954	0.15702
1304.70523	0.1573
1303.74093	0.15781
1302.77662	0.15831
1301.81232	0.15848
1300.84801	0.15815
1299.88371	0.15717
1298.9194	0.15554
1297.9551	0.15344
1296.99079	0.15107
1296.02648	0.14839
1295.06218	0.14526
1294.09787	0.14174
1293.13357	0.13814
1292.16926	0.13469
1291.20496	0.13161
1290.24065	0.12903
1289.27635	0.1268
1288.31204	0.12476
1287.34774	0.12289
1286.38343	0.12132
1285.41912	0.1202
1284.45482	0.11964
1283.49051	0.11953
1282.52621	0.11956
1281.5619	0.1195
1280.5976	0.11945
1279.63329	0.1196
1278.66899	0.12015
1277.70468	0.12112
1276.74038	0.12238
1275.77607	0.12361
1274.81177	0.12474
1273.84746	0.12601
1272.88315	0.12764
1271.91885	0.12959
1270.95454	0.13174
1269.99024	0.13376
1269.02593	0.13537
1268.06163	0.13672
1267.09732	0.13816
1266.13302	0.13983
1265.16871	0.14163
1264.20441	0.14334
1263.2401	0.14463
1262.27579	0.14551
1261.31149	0.14639
1260.34718	0.14752
1259.38288	0.14885
1258.41857	0.15021
1257.45427	0.15133
1256.48996	0.15202
1255.52566	0.15247
1254.56135	0.1531
1253.59705	0.1541
1252.63274	0.15525
1251.66844	0.1562
1250.70413	0.15677
1249.73982	0.15702
1248.77552	0.15735
1247.81121	0.15805
1246.84691	0.159
1245.8826	0.15987
1244.9183	0.16046
1243.95399	0.16076
1242.98969	0.16099
1242.02538	0.16148
1241.06108	0.16242
1240.09677	0.16355
1239.13246	0.1645
1238.16816	0.16523
1237.20385	0.16587
1236.23955	0.1668
1235.27524	0.16823
1234.31094	0.17003
1233.34663	0.17196
1232.38233	0.1738
1231.41802	0.17556
1230.45372	0.1775
1229.48941	0.17993
1228.5251	0.18293
1227.5608	0.18627
1226.59649	0.18962
1225.63219	0.19286
1224.66788	0.19619
1223.70358	0.19983
1222.73927	0.20382
1221.77497	0.20803
1220.81066	0.2121
1219.84636	0.21578
1218.88205	0.21915
1217.91775	0.22253
1216.95344	0.22611
1215.98913	0.22994
1215.02483	0.23402
1214.06052	0.23809
1213.09622	0.24208
1212.13191	0.24631
1211.16761	0.25111
1210.2033	0.25659
1209.239	0.2626
1208.27469	0.26882
1207.31039	0.27501
1206.34608	0.28116
1205.38177	0.28736
1204.41747	0.2937
1203.45316	0.30012
1202.48886	0.3063
1201.52455	0.31197
1200.56025	0.31693
1199.59594	0.32127
1198.63164	0.32512
1197.66733	0.32841
1196.70303	0.33084
1195.73872	0.33215
1194.77442	0.33207
1193.81011	0.3305
1192.8458	0.32769
1191.8815	0.32402
1190.91719	0.31975
1189.95289	0.31505
1188.98858	0.31016
1188.02428	0.30538
1187.05997	0.30108
1186.09567	0.29781
1185.13136	0.29592
1184.16706	0.29556
1183.20275	0.29692
1182.23844	0.3001
1181.27414	0.30516
1180.30983	0.31225
1179.34553	0.32163
1178.38122	0.33339
1177.41692	0.3473
1176.45261	0.363
1175.48831	0.38034
1174.524	0.39927
1173.5597	0.41966
1172.59539	0.44151
1171.63109	0.46457
1170.66678	0.48839
1169.70247	0.51249
1168.73817	0.53637
1167.77386	0.55962
1166.80956	0.5819
1165.84525	0.603
1164.88095	0.62257
1163.91664	0.63984
1162.95234	0.65441
1161.98803	0.6664
1161.02373	0.67569
1160.05942	0.68223
1159.09511	0.68596
1158.13081	0.68659
1157.1665	0.684
1156.2022	0.67848
1155.23789	0.67054
1154.27359	0.66069
1153.30928	0.64964
1152.34498	0.63802
1151.38067	0.62603
1150.41637	0.61394
1149.45206	0.60235
1148.48776	0.59182
1147.52345	0.58277
1146.55914	0.57535
1145.59484	0.56936
1144.63053	0.56442
1143.66623	0.5604
1142.70192	0.55733
1141.73762	0.55523
1140.77331	0.554
1139.80901	0.5533
1138.8447	0.55248
1137.8804	0.55152
1136.91609	0.55071
1135.95178	0.55018
1134.98748	0.55002
1134.02317	0.55035
1133.05887	0.55118
1132.09456	0.55237
1131.13026	0.55374
1130.16595	0.55545
1129.20165	0.5577
1128.23734	0.56068
1127.27304	0.5644
1126.30873	0.56837
1125.34443	0.57232
1124.38012	0.57647
1123.41581	0.58103
1122.45151	0.58624
1121.4872	0.59214
1120.5229	0.59843
1119.55859	0.60468
1118.59429	0.61076
1117.62998	0.6168
1116.66568	0.62314
1115.70137	0.62984
1114.73707	0.63665
1113.77276	0.64343
1112.80845	0.64989
1111.84415	0.65602
1110.87984	0.66196
1109.91554	0.66791
1108.95123	0.67388
1107.98693	0.67963
1107.02262	0.68495
1106.05832	0.68978
1105.09401	0.69439
1104.12971	0.69906
1103.1654	0.70409
1102.20109	0.70979
1101.23679	0.71619
1100.27248	0.72328
1099.30818	0.73132
1098.34387	0.74081
1097.37957	0.75214
1096.41526	0.76563
1095.45096	0.78062
1094.48665	0.79597
1093.52235	0.81112
1092.55804	0.82558
1091.59374	0.83941
1090.62943	0.85229
1089.66512	0.86328
1088.70082	0.87175
1087.73651	0.87662
1086.77221	0.87717
1085.8079	0.87393
1084.8436	0.86745
1083.87929	0.85709
1082.91499	0.84238
1081.95068	0.82358
1080.98638	0.80152
1080.02207	0.77748
1079.05776	0.75313
1078.09346	0.73067
1077.12915	0.7117
1076.16485	0.69701
1075.20054	0.6873
1074.23624	0.68344
1073.27193	0.68571
1072.30763	0.69335
1071.34332	0.70508
1070.37902	0.7194
1069.41471	0.73495
1068.45041	0.75101
1067.4861	0.76737
1066.52179	0.78403
1065.55749	0.80076
1064.59318	0.81733
1063.62888	0.8332
1062.66457	0.84787
1061.70027	0.86177
1060.73596	0.87521
1059.77166	0.88812
1058.80735	0.90063
1057.84305	0.91249
1056.87874	0.92333
1055.91443	0.93323
1054.95013	0.94237
1053.98582	0.95105
1053.02152	0.95945
1052.05721	0.96761
1051.09291	0.97483
1050.1286	0.98018
1049.1643	0.9844
1048.19999	0.98883
1047.23569	0.99322
1046.27138	0.99676
1045.30708	0.99915
1044.34277	1
1043.37846	0.99931
1042.41416	0.9976
1041.44985	0.99523
1040.48555	0.9921
1039.52124	0.98804
1038.55694	0.98264
1037.59263	0.97522
1036.62833	0.96646
1035.66402	0.95763
1034.69972	0.94915
1033.73541	0.94072
1032.7711	0.9319
1031.8068	0.92253
1030.84249	0.91252
1029.87819	0.90278
1028.91388	0.89429
1027.94958	0.88653
1026.98527	0.87891
1026.02097	0.87128
1025.05666	0.86358
1024.09236	0.85573
1023.12805	0.84834
1022.16375	0.84204
1021.19944	0.83617
1020.23513	0.82965
1019.27083	0.82209
1018.30652	0.81385
1017.34222	0.80529
1016.37791	0.79662
1015.41361	0.78824
1014.4493	0.77985
1013.485	0.77079
1012.52069	0.76151
1011.55639	0.75254
1010.59208	0.74402
1009.62777	0.73596
1008.66347	0.72751
1007.69916	0.71728
1006.73486	0.70433
1005.77055	0.68878
1004.80625	0.67078
1003.84194	0.65053
1002.87764	0.62811
1001.91333	0.60299
1000.94903	0.57507
999.98472	0.54489
999.02042	0.51368
998.05611	0.48272
997.0918	0.45283
996.1275	0.42433
995.16319	0.39704
994.19889	0.37104
993.23458	0.34702
992.27028	0.32578
991.30597	0.30779
990.34167	0.2928
989.37736	0.27986
988.41306	0.26809
987.44875	0.25733
986.48444	0.24788
985.52014	0.23987
984.55583	0.233
983.59153	0.22648
982.62722	0.21965
981.66292	0.21266
980.69861	0.2064
979.73431	0.20207
978.77	0.20046
977.8057	0.20158
976.84139	0.20505
975.87708	0.21063
974.91278	0.21844
973.94847	0.22874
972.98417	0.24128
972.01986	0.25504
971.05556	0.26854
970.09125	0.28029
969.12695	0.28961
968.16264	0.29667
967.19834	0.30174
966.23403	0.30483
965.26973	0.30559
964.30542	0.30346
963.34111	0.29832
962.37681	0.29081
961.4125	0.28192
960.4482	0.27245
959.48389	0.26275
958.51959	0.25269
957.55528	0.24214
956.59098	0.23167
955.62667	0.22226
954.66237	0.21458
953.69806	0.20861
952.73375	0.20367
951.76945	0.19888
950.80514	0.19379
949.84084	0.18866
948.87653	0.18424
947.91223	0.1809
946.94792	0.1784
945.98362	0.17607
945.01931	0.17326
944.05501	0.16999
943.0907	0.16652
942.1264	0.16295
941.16209	0.15914
940.19778	0.1547
939.23348	0.14936
938.26917	0.14334
937.30487	0.13733
936.34056	0.13192
935.37626	0.12735
934.41195	0.12335
933.44765	0.11937
932.48334	0.11512
931.51904	0.11088
930.55473	0.1073
929.59042	0.10476
928.62612	0.10326
927.66181	0.10237
926.69751	0.10156
925.7332	0.10082
924.7689	0.10064
923.80459	0.10154
922.84029	0.10357
921.87598	0.1062
920.91168	0.10864
919.94737	0.11037
918.98307	0.11149
918.01876	0.11251
917.05445	0.11366
916.09015	0.11465
915.12584	0.11495
914.16154	0.11405
913.19723	0.11202
912.23293	0.10947
911.26862	0.10701
910.30432	0.10478
909.34001	0.1024
908.37571	0.09932
907.4114	0.09537
906.44709	0.09091
905.48279	0.08663
904.51848	0.08291
903.55418	0.07958
902.58987	0.07615
901.62557	0.07224
900.66126	0.06798
899.69696	0.06399
898.73265	0.06088
897.76835	0.05881
896.80404	0.05733
895.83974	0.05565
894.87543	0.05352
893.91112	0.0513
892.94682	0.04953
891.98251	0.04844
891.01821	0.04768
890.0539	0.04645
889.0896	0.04428
888.12529	0.04145
887.16099	0.03869
886.19668	0.03665
885.23238	0.03525
884.26807	0.03377
883.30376	0.03167
882.33946	0.02908
881.37515	0.0266
880.41085	0.0249
879.44654	0.02426
878.48224	0.0242
877.51793	0.02401
876.55363	0.02349
875.58932	0.02309
874.62502	0.02359
873.66071	0.02532
872.69641	0.02805
871.7321	0.03109
870.76779	0.03394
869.80349	0.03679
868.83918	0.04036
867.87488	0.04526
866.91057	0.05138
865.94627	0.05803
864.98196	0.0644
864.01766	0.07027
863.05335	0.0759
862.08905	0.0816
861.12474	0.08727
860.16043	0.09206
859.19613	0.09507
858.23182	0.09584
857.26752	0.09472
856.30321	0.09257
855.33891	0.09007
854.3746	0.08721
853.4103	0.08358
852.44599	0.07904
851.48169	0.07395
850.51738	0.0691
849.55307	0.06521
848.58877	0.06235
847.62446	0.05986
846.66016	0.05691
845.69585	0.05348
844.73155	0.05012
843.76724	0.04727
842.80294	0.04507
841.83863	0.04308
840.87433	0.04061
839.91002	0.03741
838.94572	0.03376
837.98141	0.03034
837.0171	0.02767
836.0528	0.02556
835.08849	0.0234
834.12419	0.02065
833.15988	0.01742
832.19558	0.01439
831.23127	0.01218
830.26697	0.01082
829.30266	0.00986
828.33836	0.00859
827.37405	0.00682
826.40974	0.00511
825.44544	0.004
824.48113	0.00371
823.51683	0.00381
822.55252	0.00355
821.58822	0.00267
820.62391	0.00149
819.65961	7.31714E-4
818.6953	6.95292E-4
817.731	0.00112
816.76669	0.00137
815.80239	0.00105
814.83808	4.08038E-4
813.87377	0
812.90947	2.11323E-4
811.94516	9.62374E-4
810.98086	0.00182
810.01655	0.00223
809.05225	0.00217
808.08794	0.00215
807.12364	0.00262
806.15933	0.00367
805.19503	0.0049
804.23072	0.00586
803.26641	0.00629
802.30211	0.00634
801.3378	0.00659
800.3735	0.00722
799.40919	0.00821
798.44489	0.00915
797.48058	0.00964
796.51628	0.0097
795.55197	0.00982
794.58767	0.01039
793.62336	0.01142
792.65906	0.01259
791.69475	0.01338
790.73044	0.01374
789.76614	0.01402
788.80183	0.01463
787.83753	0.01567
786.87322	0.01684
785.90892	0.01791
784.94461	0.01867
783.98031	0.01917
783.016	0.01982
782.0517	0.0211
781.08739	0.02284
780.12308	0.02439
779.15878	0.02552
778.19447	0.02625
777.23017	0.02684
776.26586	0.02768
775.30156	0.02898
774.33725	0.03045
773.37295	0.03172
772.40864	0.03282
771.44434	0.03424
770.48003	0.03641
769.51573	0.03952
768.55142	0.04354
767.58711	0.04781
766.62281	0.05186
765.6585	0.05577
764.6942	0.05982
763.72989	0.06415
762.76559	0.0687
761.80128	0.07301
760.83698	0.07614
759.87267	0.07793
758.90837	0.07894
757.94406	0.07951
756.97975	0.07972
756.01545	0.07941
755.05114	0.07813
754.08684	0.07554
753.12253	0.07211
752.15823	0.06855
751.19392	0.06524
750.22962	0.06203
749.26531	0.05849
748.30101	0.0543
747.3367	0.04962
746.3724	0.04527
745.40809	0.04172
744.44378	0.03891
743.47948	0.03649
742.51517	0.03383
741.55087	0.03097
740.58656	0.02831
739.62226	0.02651
738.65795	0.02582
737.69365	0.02574
736.72934	0.02571
735.76504	0.02534
734.80073	0.0248
733.83642	0.02476
732.87212	0.02574
731.90781	0.02748
730.94351	0.02936
729.9792	0.03079
729.0149	0.03172
728.05059	0.03279
727.08629	0.03464
726.12198	0.03735
725.15768	0.04013
724.19337	0.04227
723.22906	0.04362
722.26476	0.04482
721.30045	0.04686
720.33615	0.05015
719.37184	0.05427
718.40754	0.05822
717.44323	0.06155
716.47893	0.06475
715.51462	0.06853
714.55032	0.07335
713.58601	0.07891
712.62171	0.08415
711.6574	0.08821
710.69309	0.09138
709.72879	0.09449
708.76448	0.098
707.80018	0.10165
706.83587	0.10464
705.87157	0.10606
704.90726	0.10571
703.94296	0.10441
702.97865	0.10291
702.01435	0.10126
701.05004	0.099
700.08573	0.09553
699.12143	0.09063
698.15712	0.08496
697.19282	0.07986
696.22851	0.07589
695.26421	0.07274
694.2999	0.06976
693.3356	0.06644
692.37129	0.06297
691.40699	0.06027
690.44268	0.05921
689.47838	0.05948
688.51407	0.05989
687.54976	0.05962
686.58546	0.05876
685.62115	0.05802
684.65685	0.0583
683.69254	0.05976
682.72824	0.06143
681.76393	0.0624
680.79963	0.06241
679.83532	0.06207
678.87102	0.06243
677.90671	0.06398
676.9424	0.06611
675.9781	0.06768
675.01379	0.06808
674.04949	0.06791
673.08518	0.06831
672.12088	0.06971
671.15657	0.07183
670.19227	0.07376
669.22796	0.07459
668.26366	0.07469
667.29935	0.075
666.33505	0.07624
665.37074	0.07827
664.40643	0.08031
663.44213	0.08156
662.47782	0.08183
661.51352	0.08186
660.54921	0.08275
659.58491	0.08467
658.6206	0.08674
657.6563	0.08824
656.69199	0.0886
655.72769	0.08845
654.76338	0.08892
653.79907	0.09028
652.83477	0.09216
651.87046	0.09362
650.90616	0.09411
649.94185	0.09374
648.97755	0.09333
648.01324	0.09381
647.04894	0.09517
646.08463	0.09662
645.12033	0.09715
644.15602	0.09668
643.19172	0.09597
642.22741	0.09603
641.2631	0.09731
640.2988	0.09903
639.33449	0.09991
638.37019	0.09973
637.40588	0.09935
636.44158	0.09945
635.47727	0.10067
634.51297	0.10279
633.54866	0.10476
632.58436	0.10581
631.62005	0.10607
630.65574	0.10674
629.69144	0.10845
628.72713	0.11131
627.76283	0.1146
626.79852	0.11706
625.83422	0.11879
624.86991	0.12053
623.90561	0.12314
622.9413	0.12711
621.977	0.13197
621.01269	0.13659
620.04839	0.14041
619.08408	0.14388
618.11977	0.14792
617.15547	0.15321
616.19116	0.15941
615.22686	0.16521
614.26255	0.16932
613.29825	0.1719
612.33394	0.17403
611.36964	0.17664
610.40533	0.17969
609.44103	0.18217
608.47672	0.18328
607.51241	0.18273
606.54811	0.1818
605.5838	0.18182
604.6195	0.18233
603.65519	0.18285
602.69089	0.18293
601.72658	0.18209
600.76228	0.18053
599.79797	0.17946
598.83367	0.17955
597.86936	0.18023
596.90505	0.18072
595.94075	0.18021
594.97644	0.1789
594.01214	0.1779
593.04783	0.17806
592.08353	0.1794
591.11922	0.18099
590.15492	0.18186
589.19061	0.1819
588.22631	0.18199
587.262	0.18308
586.2977	0.18538
585.33339	0.18805
584.36908	0.19
583.40478	0.191
582.44047	0.19165
581.47617	0.19274
580.51186	0.1946
579.54756	0.19691
578.58325	0.19869
577.61895	0.19956
576.65464	0.19992
575.69034	0.19977
574.72603	0.19973
573.76172	0.20055
572.79742	0.20123
571.83311	0.20081
570.86881	0.19945
569.9045	0.19767
568.9402	0.1961
567.97589	0.19518
567.01159	0.19441
566.04728	0.19279
565.08298	0.19026
564.11867	0.18758
563.15437	0.18535
562.19006	0.18352
561.22575	0.18158
560.26145	0.17977
559.29714	0.17781
558.33284	0.17517
557.36853	0.1725
556.40423	0.17056
555.43992	0.16932
554.47562	0.16795
553.51131	0.16621
552.54701	0.1641
551.5827	0.16208
550.61839	0.16115
549.65409	0.16111
548.68978	0.16109
547.72548	0.16055
546.76117	0.15949
545.79687	0.15827
544.83256	0.15716
543.86826	0.15656
542.90395	0.15641
541.93965	0.15589
540.97534	0.1545
540.01104	0.1526
539.04673	0.15063
538.08242	0.14921
537.11812	0.14863
536.15381	0.14774
535.18951	0.14548
534.2252	0.14262
533.2609	0.14054
532.29659	0.13906
531.33229	0.13744
530.36798	0.13568
529.40368	0.13394
528.43937	0.13199
527.47506	0.12986
526.51076	0.12826
525.54645	0.1269
524.58215	0.12569
523.61784	0.1244
522.65354	0.12269
521.68923	0.12125
520.72493	0.1202
519.76062	0.11947
518.79632	0.11881
517.83201	0.11813
516.86771	0.11719
515.9034	0.11571
514.93909	0.11463
513.97479	0.11423
513.01048	0.11396
512.04618	0.11362
511.08187	0.11284
510.11757	0.11165
509.15326	0.11082
508.18896	0.11055
507.22465	0.11051
506.26035	0.11032
505.29604	0.10955
504.33173	0.10848
503.36743	0.10755
502.40312	0.10708
501.43882	0.10644
500.47451	0.10535
499.51021	0.10423
498.5459	0.10326
497.5816	0.10217
496.61729	0.10054
495.65299	0.0992
494.68868	0.09802
493.72438	0.09634
492.76007	0.09398
491.79576	0.09159
490.83146	0.0906
489.86715	0.08979
488.90285	0.08871
487.93854	0.08753
486.97424	0.08588
486.00993	0.08445
485.04563	0.08332
484.08132	0.08237
483.11702	0.0812
482.15271	0.08013
481.1884	0.0793
480.2241	0.07797
479.25979	0.07656
478.29549	0.07573
477.33118	0.07499
476.36688	0.07396
475.40257	0.07305
474.43827	0.07184
473.47396	0.07104
472.50966	0.0708
471.54535	0.06999
470.58104	0.06897
469.61674	0.06797
468.65243	0.06733
467.68813	0.06631
466.72382	0.0652
465.75952	0.06503
464.79521	0.06465
463.83091	0.06357
462.8666	0.06215
461.9023	0.06127
460.93799	0.06118
459.97369	0.06117
459.00938	0.06062
458.04507	0.05984
457.08077	0.05906
456.11646	0.05827
455.15216	0.05776
454.18785	0.05697
453.22355	0.05629
452.25924	0.05575
451.29494	0.05509
450.33063	0.0549
449.36633	0.05514
448.40202	0.05551
447.43771	0.05503
446.47341	0.054
445.5091	0.05304
444.5448	0.05262
443.58049	0.05324
442.61619	0.05367
441.65188	0.05312
440.68758	0.05191
439.72327	0.05126
438.75897	0.05221
437.79466	0.0532
436.83036	0.05269
435.86605	0.05176
434.90174	0.05053
433.93744	0.04921
432.97313	0.04897
432.00883	0.04865
431.04452	0.04799
430.08022	0.04728
429.11591	0.04643
428.15161	0.04522
427.1873	0.0439
426.223	0.04327
425.25869	0.04222
424.29438	0.04125
423.33008	0.0408
422.36577	0.03938
421.40147	0.03698
420.43716	0.03599
419.47286	0.03666
418.50855	0.03662
417.54425	0.03524
416.57994	0.03236
415.61564	0.02975
414.65133	0.02868
413.68703	0.02877
412.72272	0.02869
411.75841	0.02703
410.79411	0.02527
409.8298	0.0233
408.8655	0.02165
407.90119	0.02127
406.93689	0.02142
405.97258	0.02066
405.00828	0.01808
404.04397	0.01525
403.07967	0.01475
402.11536	0.0168
401.15105	0.0171
400.18675	0.01547