401	0.03525
402	0.03528
403	0.03531
404	0.03533
405	0.03535
406	0.03536
407	0.03538
408	0.03538
409	0.03539
410	0.03539
411	0.03539
412	0.03539
413	0.03538
414	0.03543
415	0.03543
416	0.03536
417	0.03518
418	0.03485
419	0.03451
420	0.03434
421	0.03438
422	0.03454
423	0.03482
424	0.03529
425	0.03602
426	0.03699
427	0.03808
428	0.03917
429	0.04025
430	0.04138
431	0.04253
432	0.0436
433	0.04452
434	0.0453
435	0.04598
436	0.04655
437	0.04692
438	0.04698
439	0.04674
440	0.04623
441	0.04542
442	0.04442
443	0.04349
444	0.04275
445	0.04209
446	0.04148
447	0.04099
448	0.04072
449	0.04069
450	0.04078
451	0.04089
452	0.04107
453	0.04144
454	0.04204
455	0.04274
456	0.04347
457	0.04429
458	0.04531
459	0.04652
460	0.04773
461	0.04886
462	0.04999
463	0.05116
464	0.05229
465	0.05333
466	0.05435
467	0.05546
468	0.05667
469	0.0579
470	0.05909
471	0.06026
472	0.06148
473	0.06276
474	0.06406
475	0.0653
476	0.06653
477	0.06775
478	0.06892
479	0.07
480	0.07103
481	0.07204
482	0.07302
483	0.0739
484	0.07461
485	0.07528
486	0.076
487	0.07676
488	0.07746
489	0.0781
490	0.07876
491	0.07948
492	0.08021
493	0.08088
494	0.08148
495	0.08206
496	0.08265
497	0.08321
498	0.08367
499	0.08399
500	0.0842
501	0.08432
502	0.08436
503	0.08431
504	0.08424
505	0.08415
506	0.08406
507	0.08397
508	0.08392
509	0.08401
510	0.08428
511	0.08469
512	0.08523
513	0.0859
514	0.08675
515	0.08777
516	0.08892
517	0.09015
518	0.0915
519	0.09301
520	0.09462
521	0.09624
522	0.09777
523	0.09921
524	0.10055
525	0.10176
526	0.10278
527	0.10361
528	0.10425
529	0.1047
530	0.10493
531	0.10491
532	0.1047
533	0.10436
534	0.10391
535	0.10334
536	0.10263
537	0.10183
538	0.10103
539	0.10025
540	0.09949
541	0.09876
542	0.09811
543	0.09755
544	0.09703
545	0.09652
546	0.09604
547	0.09563
548	0.0953
549	0.09501
550	0.09473
551	0.0945
552	0.09435
553	0.09429
554	0.09429
555	0.09439
556	0.09464
557	0.09507
558	0.0957
559	0.09653
560	0.0976
561	0.09896
562	0.10066
563	0.10268
564	0.105
565	0.10764
566	0.11059
567	0.11382
568	0.11727
569	0.12091
570	0.12473
571	0.12862
572	0.13246
573	0.13613
574	0.13955
575	0.14269
576	0.14549
577	0.14789
578	0.14983
579	0.15127
580	0.15222
581	0.15269
582	0.15268
583	0.15221
584	0.15133
585	0.15012
586	0.14865
587	0.14694
588	0.1451
589	0.14323
590	0.14141
591	0.13968
592	0.13809
593	0.13673
594	0.13566
595	0.13491
596	0.13447
597	0.1343
598	0.13441
599	0.13479
600	0.1354
601	0.13613
602	0.13689
603	0.13766
604	0.1384
605	0.13902
606	0.1394
607	0.13947
608	0.13922
609	0.13861
610	0.13759
611	0.13611
612	0.13421
613	0.13191
614	0.12927
615	0.12629
616	0.12303
617	0.11963
618	0.11625
619	0.11292
620	0.1096
621	0.10629
622	0.10307
623	0.10002
624	0.09714
625	0.09442
626	0.09188
627	0.08961
628	0.08761
629	0.08581
630	0.08413
631	0.08254
632	0.08107
633	0.07971
634	0.07838
635	0.07703
636	0.07568
637	0.07435
638	0.07305
639	0.07173
640	0.0704
641	0.06912
642	0.06789
643	0.06657
644	0.06503
645	0.0635
646	0.06241
647	0.06189
648	0.06186
649	0.06215
650	0.06264
651	0.06325
652	0.06386
653	0.06434
654	0.06457
655	0.0645
656	0.06416
657	0.0635
658	0.06246
659	0.061
660	0.05915
661	0.05694
662	0.05439
663	0.05148
664	0.04825
665	0.04478
666	0.04121
667	0.03771
668	0.03469
669	0.03282
670	0.03225
671	0.03259
672	0.03345
673	0.03459
674	0.03593
675	0.03746
676	0.03914
677	0.04092
678	0.04273
679	0.04456
680	0.04647
681	0.04849
682	0.0506
683	0.0528
684	0.05515
685	0.05775
686	0.06065
687	0.06389
688	0.06756
689	0.07181
690	0.0768
691	0.08264
692	0.08937
693	0.09691
694	0.10482
695	0.11276
696	0.12053
697	0.12801
698	0.1351
699	0.14165
700	0.14749
701	0.15242
702	0.1563
703	0.15905
704	0.16067
705	0.16116
706	0.16049
707	0.15872
708	0.15596
709	0.15237
710	0.14808
711	0.14322
712	0.13796
713	0.13248
714	0.12695
715	0.12148
716	0.11615
717	0.11105
718	0.1063
719	0.10197
720	0.09812
721	0.09477
722	0.09189
723	0.08944
724	0.08732
725	0.08545
726	0.08376
727	0.08224
728	0.08086
729	0.0796
730	0.07839
731	0.07722
732	0.07612
733	0.07514
734	0.07431
735	0.07365
736	0.07322
737	0.07311
738	0.0734
739	0.07414
740	0.07535
741	0.07711
742	0.07949
743	0.0825
744	0.08612
745	0.09027
746	0.09487
747	0.09982
748	0.105
749	0.11027
750	0.11549
751	0.12051
752	0.1252
753	0.12937
754	0.13288
755	0.1356
756	0.13748
757	0.13846
758	0.13849
759	0.13755
760	0.13567
761	0.13295
762	0.12947
763	0.12532
764	0.12059
765	0.11543
766	0.10999
767	0.10439
768	0.09875
769	0.09316
770	0.08775
771	0.08261
772	0.07779
773	0.0733
774	0.06917
775	0.06543
776	0.06206
777	0.05904
778	0.05632
779	0.05389
780	0.05175
781	0.04986
782	0.04818
783	0.04667
784	0.04531
785	0.04411
786	0.04307
787	0.04211
788	0.0412
789	0.04036
790	0.0396
791	0.03889
792	0.03821
793	0.03753
794	0.03688
795	0.03627
796	0.03566
797	0.03505
798	0.03442
799	0.03382
800	0.03325
801	0.03271
802	0.03221
803	0.03177
804	0.03143
805	0.03122
806	0.03111
807	0.03111
808	0.03125
809	0.03156
810	0.03202
811	0.03258
812	0.03324
813	0.03401
814	0.03492
815	0.03595
816	0.0371
817	0.03836
818	0.03979
819	0.04143
820	0.04329
821	0.0454
822	0.04779
823	0.05053
824	0.05368
825	0.05726
826	0.06127
827	0.06574
828	0.07067
829	0.07607
830	0.08185
831	0.08796
832	0.09432
833	0.10087
834	0.10751
835	0.1141
836	0.12055
837	0.12679
838	0.13277
839	0.13843
840	0.14369
841	0.14852
842	0.15293
843	0.15694
844	0.16053
845	0.16369
846	0.16644
847	0.16881
848	0.17083
849	0.17249
850	0.17377
851	0.17464
852	0.17512
853	0.17517
854	0.17472
855	0.17369
856	0.17205
857	0.16979
858	0.16688
859	0.16329
860	0.15902
861	0.15409
862	0.14857
863	0.14253
864	0.13601
865	0.12909
866	0.1219
867	0.11457
868	0.1072
869	0.09988
870	0.09272
871	0.08584
872	0.07938
873	0.07341
874	0.06801
875	0.06323
876	0.05916
877	0.05582
878	0.05321
879	0.0513
880	0.05009
881	0.04956
882	0.04966
883	0.05031
884	0.05143
885	0.05297
886	0.05488
887	0.0571
888	0.05954
889	0.06216
890	0.06492
891	0.06781
892	0.07078
893	0.0738
894	0.07688
895	0.08003
896	0.0833
897	0.0867
898	0.09022
899	0.09389
900	0.09773
901	0.10178
902	0.10602
903	0.11044
904	0.11506
905	0.11989
906	0.12493
907	0.13016
908	0.13559
909	0.14122
910	0.14705
911	0.15309
912	0.15931
913	0.16568
914	0.17219
915	0.17882
916	0.18552
917	0.19224
918	0.19894
919	0.20558
920	0.21213
921	0.21854
922	0.22474
923	0.23072
924	0.23646
925	0.24196
926	0.24721
927	0.25222
928	0.25703
929	0.26169
930	0.26625
931	0.27074
932	0.27522
933	0.27974
934	0.2843
935	0.28892
936	0.29355
937	0.29815
938	0.30265
939	0.30694
940	0.31092
941	0.31445
942	0.31742
943	0.31972
944	0.32126
945	0.32195
946	0.32177
947	0.32073
948	0.3189
949	0.31637
950	0.31327
951	0.30978
952	0.30615
953	0.30263
954	0.29948
955	0.29696
956	0.29533
957	0.29483
958	0.29565
959	0.29793
960	0.30176
961	0.30715
962	0.3141
963	0.32251
964	0.33225
965	0.34314
966	0.35497
967	0.36752
968	0.38055
969	0.3938
970	0.40705
971	0.42009
972	0.43273
973	0.44482
974	0.45621
975	0.46682
976	0.47663
977	0.48566
978	0.49396
979	0.50158
980	0.50865
981	0.51531
982	0.52171
983	0.52801
984	0.53436
985	0.54093
986	0.54788
987	0.55536
988	0.56348
989	0.57234
990	0.582
991	0.59252
992	0.6039
993	0.6161
994	0.62904
995	0.64262
996	0.65672
997	0.67116
998	0.68578
999	0.70038
1000	0.71483
1001	0.72898
1002	0.74268
1003	0.75581
1004	0.76828
1005	0.78007
1006	0.79117
1007	0.80159
1008	0.8114
1009	0.82068
1010	0.82956
1011	0.83816
1012	0.84663
1013	0.85507
1014	0.86362
1015	0.87238
1016	0.88141
1017	0.89073
1018	0.90032
1019	0.91014
1020	0.9201
1021	0.93011
1022	0.94001
1023	0.94964
1024	0.95886
1025	0.96749
1026	0.97538
1027	0.98235
1028	0.98829
1029	0.99308
1030	0.99666
1031	0.99898
1032	1
1033	0.99973
1034	0.99821
1035	0.99549
1036	0.99165
1037	0.98676
1038	0.98091
1039	0.97419
1040	0.96671
1041	0.95854
1042	0.94978
1043	0.94051
1044	0.93082
1045	0.92079
1046	0.91048
1047	0.89997
1048	0.88932
1049	0.8786
1050	0.86785
1051	0.8571
1052	0.84636
1053	0.83562
1054	0.82488
1055	0.8141
1056	0.80326
1057	0.79231
1058	0.78124
1059	0.77007
1060	0.75886
1061	0.74766
1062	0.73661
1063	0.72586
1064	0.71562
1065	0.70611
1066	0.69755
1067	0.69019
1068	0.68426
1069	0.67998
1070	0.67752
1071	0.67699
1072	0.67842
1073	0.68178
1074	0.68694
1075	0.69368
1076	0.70165
1077	0.71047
1078	0.71966
1079	0.72876
1080	0.73728
1081	0.74475
1082	0.75078
1083	0.75505
1084	0.75735
1085	0.75754
1086	0.75561
1087	0.75164
1088	0.74583
1089	0.73844
1090	0.7298
1091	0.72028
1092	0.71029
1093	0.70025
1094	0.69053
1095	0.68148
1096	0.6734
1097	0.66652
1098	0.66096
1099	0.65679
1100	0.65396
1101	0.65238
1102	0.65192
1103	0.65237
1104	0.65353
1105	0.65516
1106	0.65706
1107	0.65903
1108	0.6609
1109	0.66249
1110	0.66369
1111	0.6644
1112	0.6646
1113	0.66426
1114	0.6634
1115	0.66207
1116	0.66033
1117	0.65825
1118	0.6559
1119	0.65336
1120	0.65068
1121	0.64791
1122	0.64507
1123	0.64218
1124	0.63925
1125	0.63628
1126	0.63326
1127	0.63017
1128	0.62704
1129	0.62386
1130	0.62068
1131	0.61754
1132	0.61446
1133	0.61152
1134	0.60878
1135	0.60638
1136	0.60443
1137	0.60304
1138	0.60234
1139	0.60243
1140	0.60339
1141	0.60529
1142	0.60815
1143	0.61195
1144	0.61667
1145	0.62222
1146	0.62849
1147	0.63532
1148	0.64254
1149	0.64994
1150	0.65731
1151	0.66442
1152	0.67105
1153	0.67697
1154	0.68197
1155	0.68587
1156	0.68849
1157	0.6897
1158	0.6894
1159	0.68754
1160	0.68411
1161	0.6791
1162	0.67255
1163	0.66453
1164	0.65512
1165	0.64446
1166	0.63267
1167	0.61989
1168	0.60628
1169	0.592
1170	0.57722
1171	0.56207
1172	0.5467
1173	0.53126
1174	0.51589
1175	0.50069
1176	0.48579
1177	0.47126
1178	0.45718
1179	0.44361
1180	0.43062
1181	0.41824
1182	0.40649
1183	0.39541
1184	0.38501
1185	0.3753
1186	0.36628
1187	0.35795
1188	0.35032
1189	0.34339
1190	0.33717
1191	0.33164
1192	0.32677
1193	0.32257
1194	0.31901
1195	0.31605
1196	0.31364
1197	0.31174
1198	0.31027
1199	0.30916
1200	0.30832
1201	0.30764
1202	0.30701
1203	0.30636
1204	0.30558
1205	0.30458
1206	0.30329
1207	0.30163
1208	0.29958
1209	0.29711
1210	0.29421
1211	0.29089
1212	0.2872
1213	0.28319
1214	0.27895
1215	0.27455
1216	0.27006
1217	0.26558
1218	0.26123
1219	0.2571
1220	0.25326
1221	0.24977
1222	0.2467
1223	0.24411
1224	0.24203
1225	0.24046
1226	0.23941
1227	0.23889
1228	0.23888
1229	0.23934
1230	0.24023
1231	0.24149
1232	0.2431
1233	0.24499
1234	0.24711
1235	0.24938
1236	0.25176
1237	0.2542
1238	0.25666
1239	0.25907
1240	0.26138
1241	0.26355
1242	0.26555
1243	0.26735
1244	0.26893
1245	0.27025
1246	0.2713
1247	0.27208
1248	0.2726
1249	0.27286
1250	0.27285
1251	0.2726
1252	0.27211
1253	0.27139
1254	0.27045
1255	0.26931
1256	0.26799
1257	0.26651
1258	0.2649
1259	0.26318
1260	0.2614
1261	0.25959
1262	0.25778
1263	0.25601
1264	0.25431
1265	0.25273
1266	0.2513
1267	0.25009
1268	0.24911
1269	0.2484
1270	0.24796
1271	0.24784
1272	0.24803
1273	0.24854
1274	0.24933
1275	0.2504
1276	0.2517
1277	0.25322
1278	0.25491
1279	0.25674
1280	0.25867
1281	0.26069
1282	0.26275
1283	0.26484
1284	0.26693
1285	0.26901
1286	0.27106
1287	0.27307
1288	0.27503
1289	0.27692
1290	0.27874
1291	0.28047
1292	0.28208
1293	0.28355
1294	0.28483
1295	0.28592
1296	0.28679
1297	0.28743
1298	0.28782
1299	0.28795
1300	0.28782
1301	0.28744
1302	0.28683
1303	0.28603
1304	0.28509
1305	0.28406
1306	0.28302
1307	0.28202
1308	0.28113
1309	0.28042
1310	0.27996
1311	0.27978
1312	0.27993
1313	0.28046
1314	0.28139
1315	0.28273
1316	0.28448
1317	0.28665
1318	0.28923
1319	0.29217
1320	0.29538
1321	0.29877
1322	0.30223
1323	0.30564
1324	0.30892
1325	0.31198
1326	0.31475
1327	0.31716
1328	0.31916
1329	0.32071
1330	0.32177
1331	0.32231
1332	0.32235
1333	0.32189
1334	0.32097
1335	0.31961
1336	0.31787
1337	0.31584
1338	0.3136
1339	0.31127
1340	0.30897
1341	0.3068
1342	0.30474
1343	0.30277
1344	0.30089
1345	0.29912
1346	0.29749
1347	0.29606
1348	0.29485
1349	0.29389
1350	0.29322
1351	0.29287
1352	0.2929
1353	0.29331
1354	0.2941
1355	0.29526
1356	0.29679
1357	0.29864
1358	0.30076
1359	0.30313
1360	0.30572
1361	0.30856
1362	0.31166
1363	0.315
1364	0.31846
1365	0.32182
1366	0.32481
1367	0.32723
1368	0.32892
1369	0.32979
1370	0.32971
1371	0.32864
1372	0.32658
1373	0.32356
1374	0.31967
1375	0.31501
1376	0.30972
1377	0.30387
1378	0.29758
1379	0.29098
1380	0.28422
1381	0.27749
1382	0.27103
1383	0.26511
1384	0.25998
1385	0.25582
1386	0.25267
1387	0.2505
1388	0.24916
1389	0.24845
1390	0.24821
1391	0.24832
1392	0.24866
1393	0.24917
1394	0.24978
1395	0.2505
1396	0.25137
1397	0.25238
1398	0.25347
1399	0.25458
1400	0.25567
1401	0.25668
1402	0.25761
1403	0.25846
1404	0.25925
1405	0.26005
1406	0.26095
1407	0.26197
1408	0.26309
1409	0.26424
1410	0.26535
1411	0.26633
1412	0.26712
1413	0.26766
1414	0.26798
1415	0.26809
1416	0.26803
1417	0.26783
1418	0.26756
1419	0.26726
1420	0.26695
1421	0.26657
1422	0.26604
1423	0.26532
1424	0.26444
1425	0.26342
1426	0.26224
1427	0.26086
1428	0.25928
1429	0.25753
1430	0.25564
1431	0.25362
1432	0.25147
1433	0.24926
1434	0.24708
1435	0.24504
1436	0.24325
1437	0.24176
1438	0.24063
1439	0.2398
1440	0.23924
1441	0.23898
1442	0.23908
1443	0.23959
1444	0.2405
1445	0.2418
1446	0.24347
1447	0.24554
1448	0.24801
1449	0.25089
1450	0.25415
1451	0.25775
1452	0.26163
1453	0.26574
1454	0.26999
1455	0.27428
1456	0.2785
1457	0.28259
1458	0.28649
1459	0.29002
1460	0.29297
1461	0.29508
1462	0.29617
1463	0.29614
1464	0.29505
1465	0.293
1466	0.29015
1467	0.28663
1468	0.28255
1469	0.278
1470	0.27306
1471	0.26784
1472	0.26251
1473	0.25728
1474	0.2523
1475	0.24758
1476	0.24315
1477	0.239
1478	0.23508
1479	0.23132
1480	0.22762
1481	0.22389
1482	0.22
1483	0.21585
1484	0.21148
1485	0.20699
1486	0.20247
1487	0.19804
1488	0.19379
1489	0.18978
1490	0.18605
1491	0.1826
1492	0.17933
1493	0.17616
1494	0.17313
1495	0.17028
1496	0.16766
1497	0.16528
1498	0.16313
1499	0.16119
1500	0.15938
1501	0.15763
1502	0.15584
1503	0.15396
1504	0.152
1505	0.15
1506	0.14809
1507	0.1465
1508	0.1454
1509	0.14477
1510	0.14453
1511	0.14462
1512	0.14498
1513	0.14554
1514	0.14617
1515	0.14677
1516	0.14732
1517	0.14798
1518	0.14886
1519	0.14987
1520	0.15097
1521	0.15215
1522	0.15346
1523	0.15482
1524	0.15602
1525	0.15692
1526	0.15747
1527	0.15769
1528	0.1576
1529	0.15723
1530	0.15659
1531	0.15567
1532	0.15447
1533	0.15295
1534	0.15113
1535	0.14905
1536	0.14687
1537	0.14467
1538	0.14252
1539	0.14051
1540	0.13884
1541	0.13762
1542	0.13676
1543	0.13611
1544	0.13563
1545	0.13525
1546	0.13491
1547	0.13445
1548	0.13371
1549	0.13265
1550	0.13128
1551	0.1296
1552	0.12756
1553	0.12513
1554	0.12241
1555	0.11952
1556	0.11656
1557	0.11357
1558	0.11064
1559	0.10796
1560	0.10571
1561	0.10379
1562	0.10203
1563	0.10037
1564	0.09879
1565	0.09722
1566	0.09557
1567	0.09378
1568	0.09179
1569	0.08961
1570	0.0873
1571	0.08482
1572	0.08213
1573	0.0792
1574	0.07593
1575	0.07239
1576	0.06869
1577	0.06496
1578	0.06133
1579	0.05787
1580	0.05464
1581	0.05168
1582	0.0491
1583	0.04695
1584	0.04517
1585	0.04362
1586	0.04225
1587	0.0411
1588	0.04019
1589	0.03951
1590	0.03906
1591	0.03881
1592	0.03874
1593	0.03885
1594	0.0391
1595	0.03939
1596	0.03964
1597	0.0398
1598	0.0398
1599	0.0398
1600	0.0398
1601	0.0398
1602	0.0398
1603	0.0398
1604	0.0398
1605	0.0398
1606	0.0398
1607	0.0398
1608	0.0398
1609	0.0398
1610	0.0398
1611	0.0398
1612	0.0398
1613	0.0398
1614	0.0398
1615	0.0398
1616	0.0398
1617	0.0398
1618	0.0398
1619	0.0398
1620	0.0398
1621	0.0398
1622	0.0398
1623	0.0398
1624	0.0398
1625	0.0398
1626	0.0398
1627	0.0398
1628	0.0398
1629	0.0398
1630	0.0398
1631	0.0398
1632	0.0398
1633	0.0398
1634	0.0398
1635	0.0398
1636	0.0398
1637	0.0398
1638	0.0398
1639	0.0398
1640	0.0398
1641	0.0398
1642	0.0398
1643	0.0398
1644	0.0398
1645	0.0398
1646	0.0398
1647	0.0398
1648	0.0398
1649	0.0398
1650	0.0398
1651	0.0398
1652	0.0398
1653	0.0398
1654	0.0398
1655	0.0398
1656	0.03966
1657	0.0394
1658	0.03908
1659	0.03872
1660	0.03837
1661	0.03818
1662	0.03831
1663	0.03879
1664	0.03964
1665	0.04084
1666	0.04241
1667	0.04434
1668	0.04666
1669	0.04937
1670	0.05249
1671	0.05599
1672	0.05982
1673	0.06399
1674	0.06849
1675	0.07329
1676	0.07835
1677	0.08364
1678	0.08907
1679	0.09453
1680	0.09991
1681	0.10529
1682	0.11066
1683	0.11601
1684	0.12147
1685	0.1271
1686	0.13277
1687	0.13824
1688	0.14339
1689	0.14812
1690	0.15238
1691	0.15614
1692	0.15936
1693	0.16204
1694	0.16416
1695	0.16577
1696	0.16696
1697	0.1678
1698	0.16826
1699	0.16831
1700	0.16796
1701	0.16726
1702	0.16618
1703	0.16468
1704	0.16275
1705	0.16045
1706	0.15786
1707	0.15507
1708	0.15215
1709	0.14903
1710	0.14564
1711	0.14208
1712	0.13849
1713	0.1349
1714	0.13138
1715	0.12799
1716	0.12487
1717	0.12211
1718	0.11982
1719	0.11807
1720	0.11683
1721	0.116
1722	0.1155
1723	0.11531
1724	0.11542
1725	0.11584
1726	0.11646
1727	0.11724
1728	0.11821
1729	0.11938
1730	0.12076
1731	0.12234
1732	0.12408
1733	0.12597
1734	0.12816
1735	0.13077
1736	0.13375
1737	0.13705
1738	0.14072
1739	0.14487
1740	0.1496
1741	0.15494
1742	0.16086
1743	0.16736
1744	0.17439
1745	0.18196
1746	0.19005
1747	0.1986
1748	0.20759
1749	0.21696
1750	0.22661
1751	0.23639
1752	0.24613
1753	0.2556
1754	0.26459
1755	0.27289
1756	0.28036
1757	0.28696
1758	0.29267
1759	0.29738
1760	0.30097
1761	0.30346
1762	0.30498
1763	0.30568
1764	0.3056
1765	0.30481
1766	0.3034
1767	0.30153
1768	0.29938
1769	0.29713
1770	0.29494
1771	0.29292
1772	0.2912
1773	0.28987
1774	0.2889
1775	0.28819
1776	0.28766
1777	0.28726
1778	0.28691
1779	0.28661
1780	0.28634
1781	0.28611
1782	0.28584
1783	0.28543
1784	0.28481
1785	0.28396
1786	0.28286
1787	0.28144
1788	0.27963
1789	0.27743
1790	0.27485
1791	0.27192
1792	0.2687
1793	0.26522
1794	0.26146
1795	0.25739
1796	0.25301
1797	0.24832
1798	0.24327
1799	0.23785
1800	0.23213
1801	0.22619
1802	0.22008
1803	0.21389
1804	0.20766
1805	0.20139
1806	0.1951
1807	0.18887
1808	0.18277
1809	0.17684
1810	0.17111
1811	0.16561
1812	0.16035
1813	0.15535
1814	0.15061
1815	0.14612
1816	0.14187
1817	0.13783
1818	0.13396
1819	0.13023
1820	0.12665
1821	0.12322
1822	0.11998
1823	0.11693
1824	0.11409
1825	0.1115
1826	0.10914
1827	0.10699
1828	0.10498
1829	0.10312
1830	0.10144
1831	0.09997
1832	0.09863
1833	0.09738
1834	0.09617
1835	0.095
1836	0.09383
1837	0.09266
1838	0.09149
1839	0.09031
1840	0.08912
1841	0.08792
1842	0.08671
1843	0.08555
1844	0.08448
1845	0.0836
1846	0.08294
1847	0.08248
1848	0.08219
1849	0.08204
1850	0.08198
1851	0.08192
1852	0.08183
1853	0.08169
1854	0.0815
1855	0.08119
1856	0.08074
1857	0.08012
1858	0.07937
1859	0.07849
1860	0.0775
1861	0.07644
1862	0.07531
1863	0.07414
1864	0.07295
1865	0.07179
1866	0.07072
1867	0.06983
1868	0.06922
1869	0.0689
1870	0.06885
1871	0.06898
1872	0.06924
1873	0.06957
1874	0.06991
1875	0.07023
1876	0.0705
1877	0.0707
1878	0.07081
1879	0.07082
1880	0.07072
1881	0.07052
1882	0.0702
1883	0.06978
1884	0.06926
1885	0.06866
1886	0.06802
1887	0.06736
1888	0.0667
1889	0.06611
1890	0.06562
1891	0.06527
1892	0.06502
1893	0.06484
1894	0.0647
1895	0.06457
1896	0.06449
1897	0.06442
1898	0.06433
1899	0.06421
1900	0.06405
1901	0.06387
1902	0.06365
1903	0.06337
1904	0.06303
1905	0.06262
1906	0.06214
1907	0.0616
1908	0.06101
1909	0.0604
1910	0.0598
1911	0.05921
1912	0.05864
1913	0.05808
1914	0.05753
1915	0.05698
1916	0.05643
1917	0.0559
1918	0.05543
1919	0.05506
1920	0.0548
1921	0.05462
1922	0.0545
1923	0.05448
1924	0.05456
1925	0.0547
1926	0.05484
1927	0.05495
1928	0.05502
1929	0.05503
1930	0.05498
1931	0.05486
1932	0.05469
1933	0.05446
1934	0.05417
1935	0.05382
1936	0.05341
1937	0.05293
1938	0.05241
1939	0.05187
1940	0.05132
1941	0.05081
1942	0.05037
1943	0.05004
1944	0.04983
1945	0.04973
1946	0.04974
1947	0.04985
1948	0.05
1949	0.05016
1950	0.0503
1951	0.05041
1952	0.05049
1953	0.05053
1954	0.05052
1955	0.05046
1956	0.05036
1957	0.05021
1958	0.05002
1959	0.04977
1960	0.04948
1961	0.04915
1962	0.04879
1963	0.04842
1964	0.04805
1965	0.0477
1966	0.04742
1967	0.0472
1968	0.04706
1969	0.04698
1970	0.04695
1971	0.04695
1972	0.04696
1973	0.04696
1974	0.04694
1975	0.04689
1976	0.0468
1977	0.04668
1978	0.04652
1979	0.04632
1980	0.04608
1981	0.0458
1982	0.04547
1983	0.0451
1984	0.04469
1985	0.04426
1986	0.04381
1987	0.04337
1988	0.04294
1989	0.04255
1990	0.04221
1991	0.04193
1992	0.04172
1993	0.04158
1994	0.0415
1995	0.04148
1996	0.04148
1997	0.0415
1998	0.04153
1999	0.04156
2000	0.04159
2001	0.04159
2002	0.04157
2003	0.04152
2004	0.04144
2005	0.04132
2006	0.04117
2007	0.04099
2008	0.04078
2009	0.04055
2010	0.0403
2011	0.04005
2012	0.0398
2013	0.03956
2014	0.03935
2015	0.03916
2016	0.03902
2017	0.03893
2018	0.0389
2019	0.03892
2020	0.03898
2021	0.03907
2022	0.03919
2023	0.03932
2024	0.03947
2025	0.03962
2026	0.03976
2027	0.03991
2028	0.04004
2029	0.04017
2030	0.04027
2031	0.04036
2032	0.04043
2033	0.04048
2034	0.04052
2035	0.04053
2036	0.04054
2037	0.04053
2038	0.04052
2039	0.04052
2040	0.04053
2041	0.04056
2042	0.04063
2043	0.04072
2044	0.04084
2045	0.04096
2046	0.04109
2047	0.04122
2048	0.04135
2049	0.04147
2050	0.04157
2051	0.04167
2052	0.04175
2053	0.04182
2054	0.04187
2055	0.04191
2056	0.04193
2057	0.04193
2058	0.04192
2059	0.04189
2060	0.04185
2061	0.0418
2062	0.04175
2063	0.0417
2064	0.04165
2065	0.04161
2066	0.0416
2067	0.0416
2068	0.04162
2069	0.04163
2070	0.04164
2071	0.04165
2072	0.04165
2073	0.04165
2074	0.04164
2075	0.04163
2076	0.04162
2077	0.04161
2078	0.04159
2079	0.04157
2080	0.04155
2081	0.04152
2082	0.0415
2083	0.04147
2084	0.04143
2085	0.0414
2086	0.04136
2087	0.04133
2088	0.04131
2089	0.04129
2090	0.04129
2091	0.0413
2092	0.04131
2093	0.04132
2094	0.04133
2095	0.04134
2096	0.04135
2097	0.04136
2098	0.04137
2099	0.04137
2100	0.04137
2101	0.04137
2102	0.04136
2103	0.04134
2104	0.04131
2105	0.04128
2106	0.04124
2107	0.04119
2108	0.04113
2109	0.04107
2110	0.041
2111	0.04094
2112	0.04088
2113	0.04083
2114	0.04078
2115	0.04075
2116	0.04073
2117	0.04071
2118	0.0407
2119	0.04069
2120	0.04069
2121	0.0407
2122	0.0407
2123	0.04071
2124	0.04072
2125	0.04073
2126	0.04074
2127	0.04074
2128	0.04074
2129	0.04074
2130	0.04073
2131	0.04072
2132	0.04071
2133	0.04068
2134	0.04066
2135	0.04063
2136	0.0406
2137	0.04057
2138	0.04053
2139	0.0405
2140	0.04047
2141	0.04043
2142	0.04039
2143	0.04034
2144	0.0403
2145	0.04025
2146	0.0402
2147	0.04015
2148	0.04009
2149	0.04004
2150	0.03998
2151	0.03992
2152	0.03986
2153	0.0398
2154	0.03974
2155	0.03968
2156	0.03962
2157	0.03955
2158	0.03948
2159	0.03941
2160	0.03933
2161	0.03926
2162	0.03917
2163	0.03909
2164	0.039
2165	0.03891
2166	0.03881
2167	0.0387
2168	0.03858
2169	0.03846
2170	0.03833
2171	0.0382
2172	0.03806
2173	0.03792
2174	0.03777
2175	0.03763
2176	0.03749
2177	0.03734
2178	0.03719
2179	0.03705
2180	0.0369
2181	0.03674
2182	0.03659
2183	0.03644
2184	0.03629
2185	0.03616
2186	0.03603
2187	0.03591
2188	0.0358
2189	0.0357
2190	0.03562
2191	0.03554
2192	0.03548
2193	0.03543
2194	0.03539
2195	0.03536
2196	0.03534
2197	0.03533
2198	0.03533
2199	0.03534
2200	0.03535
2201	0.03536
2202	0.03537
2203	0.03538
2204	0.03538
2205	0.03538
2206	0.03538
2207	0.03538
2208	0.03538
2209	0.03538
2210	0.03538
2211	0.03538
2212	0.03538
2213	0.03538
2214	0.03538
2215	0.03538
2216	0.03538
2217	0.03538
2218	0.03538
2219	0.03538
2220	0.03538
2221	0.03538
2222	0.03538
2223	0.03538
2224	0.03538
2225	0.03538
2226	0.03538
2227	0.03538
2228	0.03538
2229	0.03538
2230	0.03538
2231	0.03538
2232	0.03538
2233	0.03538
2234	0.03538
2235	0.03538
2236	0.03538
2237	0.03538
2238	0.03538
2239	0.03538
2240	0.03538
2241	0.03538
2242	0.03538
2243	0.03538
2244	0.03538
2245	0.03538
2246	0.03538
2247	0.03538
2248	0.03538
2249	0.03538
2250	0.03538
2251	0.03538
2252	0.03538
2253	0.03538
2254	0.03538
2255	0.03538
2256	0.03538
2257	0.03538
2258	0.03538
2259	0.03538
2260	0.03538
2261	0.03538
2262	0.03538
2263	0.03538
2264	0.03538
2265	0.03538
2266	0.03538
2267	0.03538
2268	0.03538
2269	0.03538
2270	0.03538
2271	0.03538
2272	0.03538
2273	0.03538
2274	0.03538
2275	0.03538
2276	0.03538
2277	0.03538
2278	0.03538
2279	0.03538
2280	0.03538
2281	0.03538
2282	0.03538
2283	0.03538
2284	0.03538
2285	0.03538
2286	0.03538
2287	0.03538
2288	0.03538
2289	0.03538
2290	0.03538
2291	0.03538
2292	0.03538
2293	0.03538
2294	0.03538
2295	0.03538
2296	0.03538
2297	0.03538
2298	0.03538
2299	0.03538
2300	0.03538
2301	0.03538
2302	0.03538
2303	0.03538
2304	0.03538
2305	0.03538
2306	0.03538
2307	0.03538
2308	0.03538
2309	0.03538
2310	0.03538
2311	0.03538
2312	0.03538
2313	0.03538
2314	0.03538
2315	0.03538
2316	0.03538
2317	0.03538
2318	0.03538
2319	0.03538
2320	0.03538
2321	0.03538
2322	0.03538
2323	0.03538
2324	0.03538
2325	0.03538
2326	0.03538
2327	0.03538
2328	0.03538
2329	0.03538
2330	0.03538
2331	0.03538
2332	0.03538
2333	0.03538
2334	0.03538
2335	0.03538
2336	0.03538
2337	0.03538
2338	0.03538
2339	0.03538
2340	0.03538
2341	0.03538
2342	0.03538
2343	0.03538
2344	0.03538
2345	0.03538
2346	0.03538
2347	0.03538
2348	0.03538
2349	0.03538
2350	0.03538
2351	0.03538
2352	0.03538
2353	0.03538
2354	0.03538
2355	0.03538
2356	0.03538
2357	0.03538
2358	0.03538
2359	0.03538
2360	0.03538
2361	0.03538
2362	0.03538
2363	0.03538
2364	0.03538
2365	0.03538
2366	0.03538
2367	0.03538
2368	0.03538
2369	0.03538
2370	0.03538
2371	0.03538
2372	0.03538
2373	0.03538
2374	0.03538
2375	0.03538
2376	0.03538
2377	0.03538
2378	0.03538
2379	0.03538
2380	0.03538
2381	0.03538
2382	0.03538
2383	0.03538
2384	0.03538
2385	0.03538
2386	0.03538
2387	0.03538
2388	0.03538
2389	0.03538
2390	0.03538
2391	0.03538
2392	0.03538
2393	0.03538
2394	0.03538
2395	0.03538
2396	0.03538
2397	0.03538
2398	0.03538
2399	0.03538
2400	0.03538
2401	0.03538
2402	0.03538
2403	0.03538
2404	0.03538
2405	0.03538
2406	0.03538
2407	0.03538
2408	0.03538
2409	0.03538
2410	0.03538
2411	0.03538
2412	0.03538
2413	0.03538
2414	0.03538
2415	0.03538
2416	0.03538
2417	0.03538
2418	0.03538
2419	0.03538
2420	0.03538
2421	0.03538
2422	0.03538
2423	0.03538
2424	0.03538
2425	0.03538
2426	0.03538
2427	0.03538
2428	0.03538
2429	0.03538
2430	0.03538
2431	0.03538
2432	0.03538
2433	0.03538
2434	0.03538
2435	0.03538
2436	0.03538
2437	0.03538
2438	0.03538
2439	0.03538
2440	0.03538
2441	0.03538
2442	0.03538
2443	0.03538
2444	0.03538
2445	0.03538
2446	0.03538
2447	0.03538
2448	0.03538
2449	0.03538
2450	0.03538
2451	0.03538
2452	0.03538
2453	0.03538
2454	0.03538
2455	0.03538
2456	0.03538
2457	0.03538
2458	0.03538
2459	0.03538
2460	0.03544
2461	0.03546
2462	0.03545
2463	0.03543
2464	0.03539
2465	0.03533
2466	0.03526
2467	0.03519
2468	0.03512
2469	0.03506
2470	0.035
2471	0.03495
2472	0.03491
2473	0.03488
2474	0.03488
2475	0.03489
2476	0.03491
2477	0.03496
2478	0.03503
2479	0.03513
2480	0.03524
2481	0.03538
2482	0.03554
2483	0.03572
2484	0.03593
2485	0.03607
2486	0.03621
2487	0.03636
2488	0.0365
2489	0.03663
2490	0.03677
2491	0.03691
2492	0.03704
2493	0.03718
2494	0.03732
2495	0.03746
2496	0.03759
2497	0.03773
2498	0.03786
2499	0.03798
2500	0.03809
2501	0.0382
2502	0.0383
2503	0.0384
2504	0.0385
2505	0.03859
2506	0.03868
2507	0.03876
2508	0.03884
2509	0.03891
2510	0.03898
2511	0.03905
2512	0.03911
2513	0.03918
2514	0.03925
2515	0.03932
2516	0.0394
2517	0.03948
2518	0.03956
2519	0.03965
2520	0.03974
2521	0.03983
2522	0.03992
2523	0.04002
2524	0.04013
2525	0.04023
2526	0.04035
2527	0.04047
2528	0.04059
2529	0.04072
2530	0.04085
2531	0.04099
2532	0.04113
2533	0.04128
2534	0.04143
2535	0.04159
2536	0.04176
2537	0.04193
2538	0.04211
2539	0.04228
2540	0.04246
2541	0.04264
2542	0.04283
2543	0.04302
2544	0.04321
2545	0.0434
2546	0.0436
2547	0.04379
2548	0.04398
2549	0.04417
2550	0.04437
2551	0.04456
2552	0.04476
2553	0.04495
2554	0.04515
2555	0.04536
2556	0.04556
2557	0.04578
2558	0.04599
2559	0.04621
2560	0.04643
2561	0.04665
2562	0.04688
2563	0.04711
2564	0.04736
2565	0.04761
2566	0.04787
2567	0.04814
2568	0.04841
2569	0.04869
2570	0.04897
2571	0.04926
2572	0.04956
2573	0.04985
2574	0.05015
2575	0.05045
2576	0.05076
2577	0.05106
2578	0.05136
2579	0.05166
2580	0.05196
2581	0.05226
2582	0.05256
2583	0.05285
2584	0.05314
2585	0.05343
2586	0.05372
2587	0.05401
2588	0.05431
2589	0.05461
2590	0.05491
2591	0.05522
2592	0.05554
2593	0.05586
2594	0.05619
2595	0.05653
2596	0.05687
2597	0.05722
2598	0.05757
2599	0.05793
2600	0.05829
2601	0.05866
2602	0.05904
2603	0.05942
2604	0.05981
2605	0.06021
2606	0.06061
2607	0.06101
2608	0.06141
2609	0.06181
2610	0.06222
2611	0.06264
2612	0.06305
2613	0.06347
2614	0.0639
2615	0.06432
2616	0.06475
2617	0.06517
2618	0.0656
2619	0.06602
2620	0.06645
2621	0.06686
2622	0.06727
2623	0.06768
2624	0.0681
2625	0.0685
2626	0.0689
2627	0.0693
2628	0.06969
2629	0.07007
2630	0.07045
2631	0.07081
2632	0.07117
2633	0.07152
2634	0.07186
2635	0.0722
2636	0.07252
2637	0.07283
2638	0.07313
2639	0.07342
2640	0.07369
2641	0.07395
2642	0.07421
2643	0.07445
2644	0.07467
2645	0.07489
2646	0.07509
2647	0.07529
2648	0.07549
2649	0.07569
2650	0.07587
2651	0.07605
2652	0.07623
2653	0.07641
2654	0.07657
2655	0.07674
2656	0.0769
2657	0.07705
2658	0.0772
2659	0.07733
2660	0.07746
2661	0.07757
2662	0.07767
2663	0.07775
2664	0.07782
2665	0.07788
2666	0.07792
2667	0.07794
2668	0.07796
2669	0.07796
2670	0.07796
2671	0.07796
2672	0.07795
2673	0.07793
2674	0.0779
2675	0.07787
2676	0.07785
2677	0.07781
2678	0.07778
2679	0.07774
2680	0.07771
2681	0.07767
2682	0.07762
2683	0.07758
2684	0.07753
2685	0.07749
2686	0.07744
2687	0.0774
2688	0.07736
2689	0.07731
2690	0.07728
2691	0.07724
2692	0.07722
2693	0.0772
2694	0.07719
2695	0.0772
2696	0.07722
2697	0.07725
2698	0.07729
2699	0.07736
2700	0.07744
2701	0.07754
2702	0.07765
2703	0.07778
2704	0.07793
2705	0.0781
2706	0.07829
2707	0.0785
2708	0.07873
2709	0.07898
2710	0.07924
2711	0.07953
2712	0.07982
2713	0.08012
2714	0.08043
2715	0.08076
2716	0.08109
2717	0.08142
2718	0.08176
2719	0.0821
2720	0.08244
2721	0.08279
2722	0.08313
2723	0.08346
2724	0.08379
2725	0.08412
2726	0.08444
2727	0.08475
2728	0.08505
2729	0.08534
2730	0.08563
2731	0.08591
2732	0.08617
2733	0.08644
2734	0.0867
2735	0.08695
2736	0.08719
2737	0.08743
2738	0.08766
2739	0.08789
2740	0.08811
2741	0.08834
2742	0.08856
2743	0.08878
2744	0.08901
2745	0.08923
2746	0.08946
2747	0.08969
2748	0.08991
2749	0.09014
2750	0.09035
2751	0.09057
2752	0.09078
2753	0.09099
2754	0.0912
2755	0.09141
2756	0.09163
2757	0.09184
2758	0.09206
2759	0.09228
2760	0.0925
2761	0.09273
2762	0.09295
2763	0.09318
2764	0.09342
2765	0.09366
2766	0.0939
2767	0.09415
2768	0.09441
2769	0.09467
2770	0.09495
2771	0.09522
2772	0.09551
2773	0.09581
2774	0.09612
2775	0.09644
2776	0.09677
2777	0.09713
2778	0.0975
2779	0.09789
2780	0.0983
2781	0.09873
2782	0.09917
2783	0.09964
2784	0.10012
2785	0.10063
2786	0.10115
2787	0.10169
2788	0.10226
2789	0.10285
2790	0.10346
2791	0.1041
2792	0.10477
2793	0.10547
2794	0.10619
2795	0.10694
2796	0.10773
2797	0.10854
2798	0.10939
2799	0.11026
2800	0.11116
2801	0.11208
2802	0.11304
2803	0.11401
2804	0.115
2805	0.11602
2806	0.11705
2807	0.11809
2808	0.11915
2809	0.12022
2810	0.12131
2811	0.1224
2812	0.12352
2813	0.12464
2814	0.12578
2815	0.12693
2816	0.1281
2817	0.12929
2818	0.13049
2819	0.13171
2820	0.13294
2821	0.1342
2822	0.13546
2823	0.13674
2824	0.13803
2825	0.13934
2826	0.14065
2827	0.14197
2828	0.1433
2829	0.14464
2830	0.146
2831	0.14738
2832	0.14881
2833	0.15028
2834	0.15181
2835	0.15343
2836	0.15514
2837	0.15697
2838	0.15893
2839	0.16103
2840	0.16328
2841	0.16568
2842	0.16824
2843	0.17097
2844	0.17384
2845	0.17687
2846	0.18003
2847	0.18331
2848	0.18669
2849	0.19015
2850	0.19367
2851	0.19724
2852	0.20084
2853	0.20447
2854	0.20814
2855	0.21183
2856	0.21557
2857	0.21936
2858	0.2232
2859	0.22711
2860	0.23109
2861	0.23516
2862	0.23929
2863	0.2435
2864	0.24777
2865	0.25209
2866	0.25644
2867	0.26078
2868	0.2651
2869	0.26935
2870	0.27351
2871	0.27752
2872	0.28135
2873	0.28498
2874	0.28837
2875	0.29151
2876	0.29438
2877	0.29699
2878	0.29934
2879	0.30143
2880	0.30328
2881	0.30492
2882	0.30637
2883	0.30766
2884	0.30881
2885	0.30986
2886	0.31084
2887	0.31177
2888	0.31269
2889	0.31361
2890	0.31455
2891	0.31554
2892	0.31658
2893	0.31769
2894	0.31889
2895	0.32017
2896	0.32154
2897	0.32303
2898	0.32462
2899	0.32633
2900	0.32814
2901	0.33005
2902	0.33206
2903	0.33417
2904	0.33638
2905	0.33869
2906	0.3411
2907	0.34363
2908	0.34628
2909	0.34906
2910	0.35199
2911	0.35507
2912	0.3583
2913	0.36169
2914	0.36524
2915	0.36893
2916	0.37277
2917	0.37674
2918	0.38082
2919	0.38498
2920	0.38916
2921	0.39332
2922	0.39739
2923	0.40128
2924	0.40491
2925	0.4082
2926	0.41107
2927	0.41345
2928	0.41528
2929	0.4165
2930	0.41707
2931	0.41696
2932	0.41615
2933	0.41463
2934	0.4124
2935	0.40948
2936	0.40591
2937	0.40173
2938	0.39701
2939	0.39181
2940	0.38621
2941	0.38029
2942	0.37414
2943	0.36786
2944	0.36152
2945	0.35523
2946	0.34906
2947	0.34311
2948	0.33746
2949	0.33219
2950	0.32738
2951	0.3231
2952	0.31942
2953	0.31636
2954	0.31397
2955	0.31225
2956	0.31121
2957	0.31082
2958	0.31105
2959	0.31185
2960	0.31316
2961	0.31488
2962	0.31694
2963	0.31921
2964	0.32159
2965	0.32399
2966	0.32627
2967	0.32835
2968	0.33012
2969	0.3315
2970	0.33242
2971	0.33281
2972	0.33263
2973	0.33185
2974	0.33046
2975	0.32845
2976	0.32584
2977	0.32264
2978	0.31888
2979	0.3146
2980	0.30984
2981	0.30466
2982	0.29911
2983	0.29323
2984	0.28708
2985	0.28071
2986	0.27416
2987	0.26748
2988	0.26074
2989	0.25397
2990	0.24724
2991	0.24057
2992	0.23401
2993	0.22761
2994	0.22139
2995	0.21538
2996	0.20961
2997	0.2041
2998	0.19886
2999	0.19389
3000	0.1892
3001	0.1848
3002	0.18067
3003	0.17681
3004	0.17322
3005	0.16988
3006	0.16678
3007	0.16389
3008	0.1612
3009	0.1587
3010	0.15638
3011	0.15423
3012	0.15225
3013	0.15042
3014	0.14875
3015	0.14721
3016	0.14579
3017	0.14449
3018	0.14331
3019	0.14224
3020	0.14128
3021	0.14041
3022	0.13964
3023	0.13897
3024	0.13839
3025	0.13789
3026	0.13749
3027	0.13716
3028	0.13692
3029	0.13674
3030	0.13661
3031	0.13655
3032	0.13654
3033	0.13658
3034	0.13667
3035	0.13679
3036	0.13693
3037	0.13709
3038	0.13724
3039	0.13738
3040	0.1375
3041	0.13761
3042	0.13769
3043	0.13776
3044	0.13782
3045	0.13785
3046	0.13786
3047	0.13786
3048	0.13786
3049	0.13784
3050	0.13783
3051	0.13781
3052	0.1378
3053	0.13779
3054	0.13778
3055	0.13779
3056	0.13782
3057	0.13786
3058	0.13793
3059	0.138
3060	0.13807
3061	0.13814
3062	0.1382
3063	0.13824
3064	0.13826
3065	0.13826
3066	0.13824
3067	0.13819
3068	0.13812
3069	0.13801
3070	0.13787
3071	0.13769
3072	0.13749
3073	0.13726
3074	0.13701
3075	0.13676
3076	0.13649
3077	0.13623
3078	0.13599
3079	0.13579
3080	0.13562
3081	0.1355
3082	0.13542
3083	0.13537
3084	0.13536
3085	0.13537
3086	0.13541
3087	0.13547
3088	0.13554
3089	0.13563
3090	0.13573
3091	0.13584
3092	0.13596
3093	0.13609
3094	0.13622
3095	0.13636
3096	0.13653
3097	0.13672
3098	0.13694
3099	0.13718
3100	0.13746
3101	0.13778
3102	0.13815
3103	0.13856
3104	0.13902
3105	0.13951
3106	0.14003
3107	0.14057
3108	0.14112
3109	0.14169
3110	0.14228
3111	0.14288
3112	0.1435
3113	0.14414
3114	0.14479
3115	0.14546
3116	0.14616
3117	0.1469
3118	0.14766
3119	0.14847
3120	0.14931
3121	0.15019
3122	0.1511
3123	0.15205
3124	0.15303
3125	0.15404
3126	0.15507
3127	0.15613
3128	0.1572
3129	0.15829
3130	0.15939
3131	0.16051
3132	0.16164
3133	0.16278
3134	0.16394
3135	0.16511
3136	0.16628
3137	0.16746
3138	0.16864
3139	0.16982
3140	0.17101
3141	0.17221
3142	0.17341
3143	0.17461
3144	0.17581
3145	0.177
3146	0.17818
3147	0.17936
3148	0.18052
3149	0.18167
3150	0.18281
3151	0.18395
3152	0.18509
3153	0.18624
3154	0.18739
3155	0.18854
3156	0.18971
3157	0.19087
3158	0.19203
3159	0.19318
3160	0.19432
3161	0.19545
3162	0.19657
3163	0.19767
3164	0.19876
3165	0.19984
3166	0.20089
3167	0.20191
3168	0.20292
3169	0.2039
3170	0.20487
3171	0.20582
3172	0.20674
3173	0.20766
3174	0.20858
3175	0.2095
3176	0.21043
3177	0.21135
3178	0.21229
3179	0.21323
3180	0.21417
3181	0.21511
3182	0.21604
3183	0.21696
3184	0.21786
3185	0.21874
3186	0.2196
3187	0.22044
3188	0.22125
3189	0.22204
3190	0.2228
3191	0.22352
3192	0.22423
3193	0.22491
3194	0.22557
3195	0.2262
3196	0.22682
3197	0.22743
3198	0.22803
3199	0.22863
3200	0.22922
3201	0.22981
3202	0.23038
3203	0.23093
3204	0.23148
3205	0.232
3206	0.23252
3207	0.23301
3208	0.2335
3209	0.23397
3210	0.23444
3211	0.23491
3212	0.23538
3213	0.23585
3214	0.23632
3215	0.23679
3216	0.23726
3217	0.23773
3218	0.23818
3219	0.23862
3220	0.23904
3221	0.23946
3222	0.23986
3223	0.24023
3224	0.24056
3225	0.24087
3226	0.24114
3227	0.24137
3228	0.24158
3229	0.24175
3230	0.24189
3231	0.24199
3232	0.24208
3233	0.24215
3234	0.24222
3235	0.2423
3236	0.24237
3237	0.24245
3238	0.24254
3239	0.24262
3240	0.24271
3241	0.2428
3242	0.24289
3243	0.24299
3244	0.24309
3245	0.2432
3246	0.24332
3247	0.24347
3248	0.24364
3249	0.24382
3250	0.24402
3251	0.24424
3252	0.24448
3253	0.24472
3254	0.24499
3255	0.24526
3256	0.24556
3257	0.24588
3258	0.24622
3259	0.24656
3260	0.2469
3261	0.24723
3262	0.24756
3263	0.24786
3264	0.24815
3265	0.24842
3266	0.24868
3267	0.24891
3268	0.24913
3269	0.24936
3270	0.24958
3271	0.24983
3272	0.25008
3273	0.25034
3274	0.2506
3275	0.25086
3276	0.25112
3277	0.25138
3278	0.25161
3279	0.25182
3280	0.25199
3281	0.25211
3282	0.25218
3283	0.25218
3284	0.25212
3285	0.25199
3286	0.25179
3287	0.25152
3288	0.25118
3289	0.25078
3290	0.25031
3291	0.24979
3292	0.24922
3293	0.24861
3294	0.24797
3295	0.24729
3296	0.24657
3297	0.2458
3298	0.24499
3299	0.24414
3300	0.24323
3301	0.24226
3302	0.24122
3303	0.24013
3304	0.23897
3305	0.23776
3306	0.23649
3307	0.23516
3308	0.23377
3309	0.23233
3310	0.23084
3311	0.22928
3312	0.22767
3313	0.22599
3314	0.22424
3315	0.22242
3316	0.22054
3317	0.21858
3318	0.21655
3319	0.21443
3320	0.21222
3321	0.20993
3322	0.20754
3323	0.20506
3324	0.20248
3325	0.19982
3326	0.19707
3327	0.19425
3328	0.19136
3329	0.1884
3330	0.18538
3331	0.18227
3332	0.1791
3333	0.17586
3334	0.17256
3335	0.16918
3336	0.16575
3337	0.16224
3338	0.15868
3339	0.15506
3340	0.15137
3341	0.1476
3342	0.14375
3343	0.13983
3344	0.13582
3345	0.13172
3346	0.12753
3347	0.12325
3348	0.11887
3349	0.11441
3350	0.10986
3351	0.10523
3352	0.10052
3353	0.09571
3354	0.09055
3355	0.08517
3356	0.07969
3357	0.07421
3358	0.06882
3359	0.06362
3360	0.05867
3361	0.05405
3362	0.0498
3363	0.04597
3364	0.04258
3365	0.03965
3366	0.0372
3367	0.03523
3368	0.03372
3369	0.03265
3370	0.03197
3371	0.03166
3372	0.03164
3373	0.03186
3374	0.03223
3375	0.03267
3376	0.03308
3377	0.03334
3378	0.03334
3379	0.03334
3380	0.03334
3381	0.03334
3382	0.03334
3383	0.03334
3384	0.03334
3385	0.03334
3386	0.03334
3387	0.03334
3388	0.03334
3389	0.03334
3390	0.03334
3391	0.03334
3392	0.03334
3393	0.03334
3394	0.03334
3395	0.03334
3396	0.03334
3397	0.03334
3398	0.03334
3399	0.03334
3400	0.03334
3401	0.03334
3402	0.03334
3403	0.03334
3404	0.03334
3405	0.03334
3406	0.03334
3407	0.03334
3408	0.03334
3409	0.03334
3410	0.03334
3411	0.03334
3412	0.03334
3413	0.03334
3414	0.03334
3415	0.03334
3416	0.03334
3417	0.03334
3418	0.03334
3419	0.03334
3420	0.03334
3421	0.03334
3422	0.03334
3423	0.03334
3424	0.03334
3425	0.03334
3426	0.03334
3427	0.03334
3428	0.03334
3429	0.03334
3430	0.03334
3431	0.03334
3432	0.03334
3433	0.03334
3434	0.03334
3435	0.03334
3436	0.03334
3437	0.03334
3438	0.03334
3439	0.03334
3440	0.03334
3441	0.03334
3442	0.03334
3443	0.03334
3444	0.03334
3445	0.03334
3446	0.03334
3447	0.03334
3448	0.03334
3449	0.03334
3450	0.03334
3451	0.03334
3452	0.03334
3453	0.03334
3454	0.03334
3455	0.03334
3456	0.03334
3457	0.03334
3458	0.03334
3459	0.03334
3460	0.03334
3461	0.03334
3462	0.03334
3463	0.03334
3464	0.03334
3465	0.03334
3466	0.03334
3467	0.03334
3468	0.03334
3469	0.03334
3470	0.03334
3471	0.03334
3472	0.03334
3473	0.03334
3474	0.03334
3475	0.03334
3476	0.03334
3477	0.03334
3478	0.03334
3479	0.03334
3480	0.03334
3481	0.03334
3482	0.03334
3483	0.03334
3484	0.03334
3485	0.03334
3486	0.03334
3487	0.03334
3488	0.03334
3489	0.03334
3490	0.03334
3491	0.03334
3492	0.03334
3493	0.03334
3494	0.03334
3495	0.03334
3496	0.03334
3497	0.03334
3498	0.03334
3499	0.03334
3500	0.03334
3501	0.03334
3502	0.03334
3503	0.03334
3504	0.03334
3505	0.03334
3506	0.03334
3507	0.03334
3508	0.03334
3509	0.03334
3510	0.03334
3511	0.03334
3512	0.03334
3513	0.03334
3514	0.03334
3515	0.03334
3516	0.03334
3517	0.03334
3518	0.03334
3519	0.03334
3520	0.03334
3521	0.03334
3522	0.03334
3523	0.03334
3524	0.03334
3525	0.03334
3526	0.03334
3527	0.03334
3528	0.03334
3529	0.03334
3530	0.03334
3531	0.03334
3532	0.03334
3533	0.03334
3534	0.03334
3535	0.03334
3536	0.03334
3537	0.03334
3538	0.03334
3539	0.03334
3540	0.03334
3541	0.03334
3542	0.03334
3543	0.03334
3544	0.03334
3545	0.03334
3546	0.03334
3547	0.03334
3548	0.03334
3549	0.03334
3550	0.03334
3551	0.03334
3552	0.03334
3553	0.03334
3554	0.03334
3555	0.03334
3556	0.03334
3557	0.03334
3558	0.03334
3559	0.03334
3560	0.03334
3561	0.03334
3562	0.03334
3563	0.03334
3564	0.03334
3565	0.03334
3566	0.03334
3567	0.03334
3568	0.03334
3569	0.03334
3570	0.03334
3571	0.03334
3572	0.03334
3573	0.03334
3574	0.03334
3575	0.03334
3576	0.03334
3577	0.03334
3578	0.03334
3579	0.03334
3580	0.03334
3581	0.03334
3582	0.03334
3583	0.03334
3584	0.03334
3585	0.03322
3586	0.03301
3587	0.0328
3588	0.03264
3589	0.03256
3590	0.03258
3591	0.03272
3592	0.033
3593	0.03345
3594	0.03411
3595	0.035
3596	0.03618
3597	0.03763
3598	0.03934
3599	0.04129
3600	0.04345
3601	0.04579
3602	0.04826
3603	0.0508
3604	0.05336
3605	0.05591
3606	0.05846
3607	0.06101
3608	0.06348
3609	0.0658
3610	0.06802
3611	0.07015
3612	0.07211
3613	0.07388
3614	0.07545
3615	0.07684
3616	0.07806
3617	0.07914
3618	0.08012
3619	0.08107
3620	0.08201
3621	0.0829
3622	0.08374
3623	0.08454
3624	0.08534
3625	0.08621
3626	0.0872
3627	0.08842
3628	0.08994
3629	0.09181
3630	0.094
3631	0.09638
3632	0.09877
3633	0.10109
3634	0.10326
3635	0.10521
3636	0.10687
3637	0.10821
3638	0.1092
3639	0.10983
3640	0.11007
3641	0.10996
3642	0.10953
3643	0.10884
3644	0.10791
3645	0.10678
3646	0.10559
3647	0.10456
3648	0.10385
3649	0.10357
3650	0.10375
3651	0.10439
3652	0.10543
3653	0.10676
3654	0.10822
3655	0.10967
3656	0.11104
3657	0.1123
3658	0.11333
3659	0.11402
3660	0.11427
3661	0.11405
3662	0.11334
3663	0.11213
3664	0.11043
3665	0.10831
3666	0.10585
3667	0.10316
3668	0.10039
3669	0.0977
3670	0.09525
3671	0.09313
3672	0.0913
3673	0.08969
3674	0.0883
3675	0.08716
3676	0.08628
3677	0.0856
3678	0.08502
3679	0.0845
3680	0.08402
3681	0.08347
3682	0.08277
3683	0.08188
3684	0.08077
3685	0.07946
3686	0.07797
3687	0.07637
3688	0.07477
3689	0.07328
3690	0.07196
3691	0.07082
3692	0.06988
3693	0.06904
3694	0.06823
3695	0.06739
3696	0.0665
3697	0.06556
3698	0.06464
3699	0.06377
3700	0.06295
3701	0.06216
3702	0.06141
3703	0.06071
3704	0.06004
3705	0.05937
3706	0.05867
3707	0.05792
3708	0.05716
3709	0.05641
3710	0.05575
3711	0.05523
3712	0.05491
3713	0.0548
3714	0.05472
3715	0.05453
3716	0.05409
3717	0.05331
3718	0.05216
3719	0.05067
3720	0.04887
3721	0.04685
3722	0.04468
3723	0.04242
3724	0.04014
3725	0.03789
3726	0.03574
3727	0.03374
3728	0.03191
3729	0.03029
3730	0.02888
3731	0.02769
3732	0.02678
3733	0.02618
3734	0.02591
3735	0.02603
3736	0.02658
3737	0.02744
3738	0.02842
3739	0.0294
3740	0.0303
3741	0.03111
3742	0.03183
3743	0.03248
3744	0.03309
3745	0.03369
3746	0.03427
3747	0.03482
3748	0.03539
3749	0.036
3750	0.03668
3751	0.03746
3752	0.03832
3753	0.03921
3754	0.04007
3755	0.04087
3756	0.04165
3757	0.04245
3758	0.04329
3759	0.04419
3760	0.04511
3761	0.04595
3762	0.04661
3763	0.04711
3764	0.04745
3765	0.04766
3766	0.04777
3767	0.0478
3768	0.04773
3769	0.04758
3770	0.04738
3771	0.04714
3772	0.04689
3773	0.04662
3774	0.04636
3775	0.04609
3776	0.04579
3777	0.04545
3778	0.0451
3779	0.04483
3780	0.04467
3781	0.04459
3782	0.04451
3783	0.04441
3784	0.04429
3785	0.04412
3786	0.04389
3787	0.04354
3788	0.04306
3789	0.0424
3790	0.04155
3791	0.04049
3792	0.03927
3793	0.03793
3794	0.03651
3795	0.03503
3796	0.03352
3797	0.03209
3798	0.03082
3799	0.02975
3800	0.0289
3801	0.02832
3802	0.02804
3803	0.02801
3804	0.02812
3805	0.0283
3806	0.02848
3807	0.02868
3808	0.02885
3809	0.02891
3810	0.02878
3811	0.02842
3812	0.02781
3813	0.02697
3814	0.02595
3815	0.02483
3816	0.02369
3817	0.02262
3818	0.02162
3819	0.02073
3820	0.01999
3821	0.0195
3822	0.01926
3823	0.01916
3824	0.01911
3825	0.01907
3826	0.01901
3827	0.01887
3828	0.01863
3829	0.01829
3830	0.01788
3831	0.01747
3832	0.017
3833	0.01644
3834	0.0158
3835	0.01509
3836	0.01437
3837	0.01364
3838	0.01298
3839	0.01242
3840	0.01198
3841	0.0117
3842	0.01153
3843	0.01145
3844	0.01142
3845	0.01139
3846	0.01127
3847	0.01103
3848	0.01066
3849	0.01019
3850	0.00965
3851	0.00911
3852	0.00863
3853	0.00826
3854	0.00804
3855	0.00789
3856	0.0077
3857	0.00747
3858	0.00725
3859	0.00701
3860	0.00673
3861	0.00643
3862	0.00616
3863	0.00597
3864	0.00585
3865	0.0058
3866	0.00575
3867	0.00563
3868	0.00543
3869	0.00521
3870	0.00504
3871	0.00496
3872	0.00492
3873	0.00491
3874	0.00494
3875	0.00504
3876	0.00521
3877	0.00539
3878	0.00552
3879	0.00558
3880	0.00561
3881	0.0057
3882	0.00582
3883	0.00595
3884	0.00606
3885	0.00617
3886	0.00629
3887	0.00635
3888	0.0063
3889	0.00609
3890	0.00572
3891	0.00523
3892	0.00469
3893	0.00414
3894	0.00362
3895	0.00307
3896	0.00247
3897	0.00185
3898	0.00126
3899	7.48792E-4
3900	3.38481E-4
3901	6.70465E-5
3902	0
3903	1.85682E-4
3904	6.25699E-4
3905	0.00128
3906	0.00206
3907	0.00291
3908	0.00375
3909	0.00455
3910	0.00526
3911	0.00581
3912	0.00619
3913	0.00639
3914	0.00642
3915	0.00629
3916	0.00603
3917	0.00565
3918	0.00517
3919	0.00461
3920	0.004
3921	0.00341
3922	0.00284
3923	0.00233
3924	0.00191
3925	0.00163
3926	0.0015
3927	0.0015
3928	0.00158
3929	0.00171
3930	0.00189
3931	0.00209
3932	0.00232
3933	0.00257
3934	0.0028
3935	0.003
3936	0.00313
3937	0.00319
3938	0.00317
3939	0.00309
3940	0.00299
3941	0.00285
3942	0.00271
3943	0.00257
3944	0.00247
3945	0.00237
3946	0.00227
3947	0.00219
3948	0.00216
3949	0.0022
3950	0.0023
3951	0.00244
3952	0.00261
3953	0.00281
3954	0.00303
3955	0.00327
3956	0.0035
3957	0.0037
3958	0.00386
3959	0.00396
3960	0.00401
3961	0.00401
3962	0.00399
3963	0.00395
3964	0.00389
3965	0.0038
3966	0.0037
3967	0.00359
3968	0.00348
3969	0.00335
3970	0.00323
3971	0.00313
3972	0.00306
3973	0.00303
3974	0.00302
3975	0.00304
3976	0.00307
3977	0.00309
3978	0.00312
3979	0.00314
3980	0.00315
3981	0.00316
3982	0.00317
3983	0.00318
3984	0.00319
3985	0.0032
3986	0.00321
3987	0.00321
3988	0.00319
3989	0.00318
3990	0.00317
3991	0.00315
3992	0.00312
3993	0.00309
3994	0.00306
3995	0.00302
3996	0.00298
3997	0.00293
3998	0.00288
3999	0.00283
4000	0.00277