4000.18193	0.01021
3999.21756	0.0103
3998.2532	0.01041
3997.28884	0.01054
3996.32447	0.01068
3995.36011	0.01083
3994.39574	0.01099
3993.43138	0.01117
3992.46702	0.01136
3991.50265	0.01157
3990.53829	0.01179
3989.57392	0.01202
3988.60956	0.01226
3987.6452	0.01239
3986.68083	0.01258
3985.71647	0.01284
3984.7521	0.01315
3983.78774	0.01349
3982.82338	0.01385
3981.85901	0.01422
3980.89465	0.01462
3979.93028	0.01504
3978.96592	0.01548
3978.00156	0.01594
3977.03719	0.01643
3976.07283	0.01694
3975.10846	0.0174
3974.1441	0.01781
3973.17974	0.01818
3972.21537	0.01847
3971.25101	0.01866
3970.28664	0.01877
3969.32228	0.01879
3968.35792	0.01876
3967.39355	0.01875
3966.42919	0.01883
3965.46482	0.01902
3964.50046	0.01928
3963.5361	0.0196
3962.57173	0.01999
3961.60737	0.02044
3960.643	0.02097
3959.67864	0.02161
3958.71428	0.02242
3957.74991	0.02341
3956.78555	0.02458
3955.82118	0.02588
3954.85682	0.02727
3953.89246	0.02866
3952.92809	0.02997
3951.96373	0.03115
3950.99936	0.03219
3950.035	0.03303
3949.07064	0.03369
3948.10627	0.03417
3947.14191	0.03445
3946.17754	0.03453
3945.21318	0.0345
3944.24882	0.03445
3943.28445	0.03436
3942.32009	0.03415
3941.35572	0.0339
3940.39136	0.03374
3939.427	0.03371
3938.46263	0.03381
3937.49827	0.03409
3936.5339	0.03464
3935.56954	0.03549
3934.60518	0.03664
3933.64081	0.038
3932.67645	0.03947
3931.71208	0.04095
3930.74772	0.04237
3929.78336	0.04374
3928.81899	0.04505
3927.85463	0.04626
3926.89026	0.04727
3925.9259	0.04799
3924.96154	0.04826
3923.99717	0.04796
3923.03281	0.04717
3922.06844	0.04607
3921.10408	0.04474
3920.13972	0.04322
3919.17535	0.04163
3918.21099	0.04019
3917.24662	0.03907
3916.28226	0.03829
3915.3179	0.03796
3914.35353	0.0382
3913.38917	0.03904
3912.4248	0.04046
3911.46044	0.04249
3910.49608	0.04513
3909.53171	0.04838
3908.56735	0.05214
3907.60298	0.05625
3906.63862	0.06052
3905.67426	0.06466
3904.70989	0.0684
3903.74553	0.07148
3902.78116	0.07369
3901.8168	0.07491
3900.85244	0.07526
3899.88807	0.07497
3898.92371	0.07421
3897.95934	0.0731
3896.99498	0.07178
3896.03062	0.07041
3895.06625	0.06912
3894.10189	0.06799
3893.13752	0.06701
3892.17316	0.06606
3891.2088	0.06505
3890.24443	0.06409
3889.28007	0.06348
3888.3157	0.06348
3887.35134	0.06404
3886.38698	0.06501
3885.42261	0.06613
3884.45825	0.06721
3883.49388	0.06822
3882.52952	0.0692
3881.56516	0.07019
3880.60079	0.0712
3879.63643	0.07218
3878.67206	0.07328
3877.7077	0.07474
3876.74333	0.07668
3875.77897	0.07885
3874.81461	0.08097
3873.85024	0.08286
3872.88588	0.08447
3871.92151	0.08587
3870.95715	0.08704
3869.99279	0.08789
3869.02842	0.08835
3868.06406	0.08877
3867.09969	0.08952
3866.13533	0.09068
3865.17097	0.09205
3864.2066	0.09338
3863.24224	0.09456
3862.27787	0.09559
3861.31351	0.09649
3860.34915	0.09739
3859.38478	0.09839
3858.42042	0.09951
3857.45605	0.10065
3856.49169	0.10175
3855.52733	0.10287
3854.56296	0.10393
3853.5986	0.10457
3852.63423	0.10437
3851.66987	0.10342
3850.70551	0.10216
3849.74114	0.1009
3848.77678	0.09984
3847.81241	0.09908
3846.84805	0.09875
3845.88369	0.099
3844.91932	0.09995
3843.95496	0.10133
3842.99059	0.10267
3842.02623	0.10376
3841.06187	0.10458
3840.0975	0.10508
3839.13314	0.10519
3838.16877	0.1048
3837.20441	0.104
3836.24005	0.10296
3835.27568	0.10181
3834.31132	0.10061
3833.34695	0.09949
3832.38259	0.09857
3831.41823	0.09783
3830.45386	0.09726
3829.4895	0.09694
3828.52513	0.09711
3827.56077	0.09785
3826.59641	0.09909
3825.63204	0.10077
3824.66768	0.10281
3823.70331	0.10494
3822.73895	0.10686
3821.77459	0.1083
3820.81022	0.10891
3819.84586	0.10854
3818.88149	0.10743
3817.91713	0.10575
3816.95277	0.10359
3815.9884	0.10105
3815.02404	0.0983
3814.05967	0.09576
3813.09531	0.09377
3812.13095	0.09254
3811.16658	0.09218
3810.20222	0.09274
3809.23785	0.09416
3808.27349	0.09629
3807.30913	0.09884
3806.34476	0.10148
3805.3804	0.10408
3804.41603	0.1066
3803.45167	0.10893
3802.48731	0.11078
3801.52294	0.11171
3800.55858	0.11141
3799.59421	0.10999
3798.62985	0.10765
3797.66549	0.10453
3796.70112	0.10085
3795.73676	0.09688
3794.77239	0.09288
3793.80803	0.08909
3792.84367	0.08563
3791.8793	0.08263
3790.91494	0.08025
3789.95057	0.0786
3788.98621	0.07768
3788.02185	0.07742
3787.05748	0.07774
3786.09312	0.07852
3785.12875	0.07958
3784.16439	0.08082
3783.20003	0.08225
3782.23566	0.08391
3781.2713	0.08567
3780.30693	0.08731
3779.34257	0.08856
3778.37821	0.08934
3777.41384	0.08989
3776.44948	0.09057
3775.48511	0.09151
3774.52075	0.09263
3773.55639	0.09382
3772.59202	0.09502
3771.62766	0.09624
3770.66329	0.09743
3769.69893	0.09853
3768.73457	0.09963
3767.7702	0.10092
3766.80584	0.10245
3765.84147	0.10427
3764.87711	0.10641
3763.91275	0.109
3762.94838	0.11218
3761.98402	0.11605
3761.01965	0.12065
3760.05529	0.12591
3759.09093	0.13159
3758.12656	0.13739
3757.1622	0.1431
3756.19783	0.14867
3755.23347	0.15413
3754.26911	0.15953
3753.30474	0.16479
3752.34038	0.1697
3751.37601	0.17394
3750.41165	0.17737
3749.44729	0.17996
3748.48292	0.18178
3747.51856	0.18293
3746.55419	0.18358
3745.58983	0.18383
3744.62547	0.18367
3743.6611	0.18309
3742.69674	0.18235
3741.73237	0.18168
3740.76801	0.18119
3739.80365	0.18095
3738.83928	0.18099
3737.87492	0.18118
3736.91055	0.18132
3735.94619	0.18112
3734.98182	0.18031
3734.01746	0.17877
3733.0531	0.17662
3732.08873	0.17393
3731.12437	0.17081
3730.16	0.16746
3729.19564	0.16407
3728.23128	0.16081
3727.26691	0.15783
3726.30255	0.1552
3725.33818	0.15299
3724.37382	0.1512
3723.40946	0.14981
3722.44509	0.14876
3721.48073	0.14806
3720.51636	0.14793
3719.552	0.14852
3718.58764	0.14974
3717.62327	0.15153
3716.65891	0.15382
3715.69454	0.15648
3714.73018	0.15926
3713.76582	0.1618
3712.80145	0.16371
3711.83709	0.16458
3710.87272	0.16426
3709.90836	0.1629
3708.944	0.16079
3707.97963	0.15834
3707.01527	0.15594
3706.0509	0.15382
3705.08654	0.15209
3704.12218	0.15083
3703.15781	0.15012
3702.19345	0.1499
3701.22908	0.15013
3700.26472	0.15085
3699.30036	0.15223
3698.33599	0.15423
3697.37163	0.15665
3696.40726	0.15939
3695.4429	0.16245
3694.47854	0.16593
3693.51417	0.16982
3692.54981	0.17382
3691.58544	0.17752
3690.62108	0.18057
3689.65672	0.18275
3688.69235	0.18411
3687.72799	0.18492
3686.76362	0.18569
3685.79926	0.18685
3684.8349	0.18868
3683.87053	0.19127
3682.90617	0.19465
3681.9418	0.19878
3680.97744	0.20358
3680.01308	0.20883
3679.04871	0.2142
3678.08435	0.2194
3677.11998	0.22427
3676.15562	0.22858
3675.19126	0.2319
3674.22689	0.23413
3673.26253	0.23556
3672.29816	0.23622
3671.3338	0.23596
3670.36944	0.2345
3669.40507	0.23158
3668.44071	0.2274
3667.47634	0.22257
3666.51198	0.21778
3665.54762	0.21363
3664.58325	0.21059
3663.61889	0.209
3662.65452	0.20909
3661.69016	0.21096
3660.7258	0.21459
3659.76143	0.21987
3658.79707	0.22666
3657.8327	0.23473
3656.86834	0.24368
3655.90398	0.25301
3654.93961	0.26239
3653.97525	0.27166
3653.01088	0.28058
3652.04652	0.28876
3651.08216	0.29573
3650.11779	0.30098
3649.15343	0.30402
3648.18906	0.30482
3647.2247	0.30356
3646.26034	0.30076
3645.29597	0.29725
3644.33161	0.29372
3643.36724	0.29055
3642.40288	0.28791
3641.43852	0.28587
3640.47415	0.28454
3639.50979	0.2841
3638.54542	0.2847
3637.58106	0.28639
3636.6167	0.28919
3635.65233	0.29304
3634.68797	0.29781
3633.7236	0.30329
3632.75924	0.30937
3631.79488	0.31599
3630.83051	0.32294
3629.86615	0.32975
3628.90178	0.33574
3627.93742	0.34054
3626.97306	0.34437
3626.00869	0.34758
3625.04433	0.35058
3624.07996	0.35361
3623.1156	0.35687
3622.15124	0.3604
3621.18687	0.36408
3620.22251	0.36771
3619.25814	0.37107
3618.29378	0.37406
3617.32942	0.37674
3616.36505	0.37922
3615.40069	0.38155
3614.43632	0.38369
3613.47196	0.38563
3612.5076	0.38739
3611.54323	0.38904
3610.57887	0.39062
3609.6145	0.39203
3608.65014	0.3931
3607.68578	0.39373
3606.72141	0.39395
3605.75705	0.39403
3604.79268	0.39439
3603.82832	0.39545
3602.86396	0.39727
3601.89959	0.39982
3600.93523	0.40297
3599.97086	0.40657
3599.0065	0.41049
3598.04214	0.4146
3597.07777	0.41882
3596.11341	0.42306
3595.14904	0.42725
3594.18468	0.43138
3593.22031	0.43545
3592.25595	0.43942
3591.29159	0.44328
3590.32722	0.44696
3589.36286	0.45026
3588.39849	0.45287
3587.43413	0.45451
3586.46977	0.45509
3585.5054	0.4549
3584.54104	0.45437
3583.57667	0.45387
3582.61231	0.45368
3581.64795	0.45396
3580.68358	0.45482
3579.71922	0.45629
3578.75485	0.45838
3577.79049	0.46115
3576.82613	0.46463
3575.86176	0.46878
3574.8974	0.47353
3573.93303	0.47874
3572.96867	0.48432
3572.00431	0.4902
3571.03994	0.4963
3570.07558	0.50246
3569.11121	0.50844
3568.14685	0.51386
3567.18249	0.51823
3566.21812	0.52114
3565.25376	0.5226
3564.28939	0.52292
3563.32503	0.52253
3562.36067	0.52183
3561.3963	0.52105
3560.43194	0.52034
3559.46757	0.51979
3558.50321	0.51951
3557.53885	0.5196
3556.57448	0.52015
3555.61012	0.52124
3554.64575	0.52293
3553.68139	0.52513
3552.71703	0.52774
3551.75266	0.53063
3550.7883	0.53373
3549.82393	0.53701
3548.85957	0.54039
3547.89521	0.54368
3546.93084	0.54663
3545.96648	0.54898
3545.00211	0.55053
3544.03775	0.5513
3543.07339	0.55152
3542.10902	0.55157
3541.14466	0.55174
3540.18029	0.55213
3539.21593	0.55284
3538.25157	0.5539
3537.2872	0.55534
3536.32284	0.55711
3535.35847	0.55922
3534.39411	0.56171
3533.42975	0.5646
3532.46538	0.56782
3531.50102	0.57122
3530.53665	0.57462
3529.57229	0.57794
3528.60793	0.58108
3527.64356	0.58401
3526.6792	0.58663
3525.71483	0.58886
3524.75047	0.59058
3523.78611	0.59171
3522.82174	0.59227
3521.85738	0.59242
3520.89301	0.59242
3519.92865	0.59251
3518.96429	0.5928
3517.99992	0.59332
3517.03556	0.59412
3516.07119	0.59526
3515.10683	0.59675
3514.14247	0.5986
3513.1781	0.6008
3512.21374	0.60335
3511.24937	0.60623
3510.28501	0.60932
3509.32065	0.61247
3508.35628	0.61557
3507.39192	0.61861
3506.42755	0.62159
3505.46319	0.62447
3504.49883	0.62712
3503.53446	0.62942
3502.5701	0.63127
3501.60573	0.63268
3500.64137	0.63377
3499.67701	0.6347
3498.71264	0.63563
3497.74828	0.63664
3496.78391	0.63773
3495.81955	0.6389
3494.85519	0.64017
3493.89082	0.6416
3492.92646	0.64325
3491.96209	0.64513
3490.99773	0.64722
3490.03337	0.64949
3489.069	0.65189
3488.10464	0.65434
3487.14027	0.65677
3486.17591	0.65919
3485.21155	0.6616
3484.24718	0.66401
3483.28282	0.66635
3482.31845	0.66851
3481.35409	0.67042
3480.38973	0.67206
3479.42536	0.67349
3478.461	0.67485
3477.49663	0.67622
3476.53227	0.67765
3475.56791	0.67911
3474.60354	0.6806
3473.63918	0.6821
3472.67481	0.68365
3471.71045	0.6853
3470.74609	0.68706
3469.78172	0.68889
3468.81736	0.69073
3467.85299	0.69254
3466.88863	0.69432
3465.92427	0.69605
3464.9599	0.69773
3463.99554	0.69936
3463.03117	0.70096
3462.06681	0.70249
3461.10245	0.70397
3460.13808	0.70538
3459.17372	0.70675
3458.20935	0.70811
3457.24499	0.70948
3456.28062	0.71091
3455.31626	0.71242
3454.3519	0.71398
3453.38753	0.71559
3452.42317	0.71722
3451.4588	0.71886
3450.49444	0.7205
3449.53008	0.72213
3448.56571	0.72369
3447.60135	0.7251
3446.63698	0.72627
3445.67262	0.72719
3444.70826	0.72793
3443.74389	0.7285
3442.77953	0.72888
3441.81516	0.72907
3440.8508	0.72909
3439.88644	0.72901
3438.92207	0.72886
3437.95771	0.72869
3436.99334	0.72856
3436.02898	0.72846
3435.06462	0.72843
3434.10025	0.72848
3433.13589	0.72862
3432.17152	0.72885
3431.20716	0.72915
3430.2428	0.72951
3429.27843	0.72992
3428.31407	0.73037
3427.3497	0.73083
3426.38534	0.73124
3425.42098	0.73158
3424.45661	0.73181
3423.49225	0.73191
3422.52788	0.73187
3421.56352	0.73171
3420.59916	0.73136
3419.63479	0.7308
3418.67043	0.73007
3417.70606	0.72924
3416.7417	0.72837
3415.77734	0.72749
3414.81297	0.72659
3413.84861	0.72567
3412.88424	0.72477
3411.91988	0.72389
3410.95552	0.72308
3409.99115	0.72234
3409.02679	0.72169
3408.06242	0.72114
3407.09806	0.72067
3406.1337	0.7203
3405.16933	0.72002
3404.20497	0.7198
3403.2406	0.71964
3402.27624	0.71951
3401.31188	0.71938
3400.34751	0.71923
3399.38315	0.71904
3398.41878	0.71877
3397.45442	0.71842
3396.49006	0.71798
3395.52569	0.71747
3394.56133	0.7169
3393.59696	0.71628
3392.6326	0.71555
3391.66824	0.7147
3390.70387	0.71375
3389.73951	0.71272
3388.77514	0.71165
3387.81078	0.71052
3386.84642	0.70935
3385.88205	0.70814
3384.91769	0.70688
3383.95332	0.70559
3382.98896	0.70425
3382.0246	0.70289
3381.06023	0.70152
3380.09587	0.70016
3379.1315	0.6988
3378.16714	0.69743
3377.20278	0.69605
3376.23841	0.69467
3375.27405	0.69328
3374.30968	0.69187
3373.34532	0.69043
3372.38096	0.68898
3371.41659	0.6875
3370.45223	0.68597
3369.48786	0.68437
3368.5235	0.68271
3367.55914	0.68099
3366.59477	0.6792
3365.63041	0.67735
3364.66604	0.67542
3363.70168	0.67342
3362.73732	0.67138
3361.77295	0.66927
3360.80859	0.66713
3359.84422	0.66495
3358.87986	0.66275
3357.9155	0.66056
3356.95113	0.65835
3355.98677	0.65615
3355.0224	0.65395
3354.05804	0.65178
3353.09368	0.64967
3352.12931	0.64762
3351.16495	0.64564
3350.20058	0.64373
3349.23622	0.64188
3348.27186	0.64009
3347.30749	0.63834
3346.34313	0.63664
3345.37876	0.63497
3344.4144	0.63332
3343.45004	0.6317
3342.48567	0.6301
3341.52131	0.62852
3340.55694	0.62695
3339.59258	0.62539
3338.62822	0.62381
3337.66385	0.62222
3336.69949	0.6206
3335.73512	0.61892
3334.77076	0.6172
3333.8064	0.61544
3332.84203	0.61365
3331.87767	0.61185
3330.9133	0.61005
3329.94894	0.60824
3328.98458	0.60643
3328.02021	0.60463
3327.05585	0.60283
3326.09148	0.60104
3325.12712	0.59927
3324.16276	0.59753
3323.19839	0.59583
3322.23403	0.59417
3321.26966	0.59257
3320.3053	0.59102
3319.34094	0.58952
3318.37657	0.58806
3317.41221	0.58665
3316.44784	0.58527
3315.48348	0.5839
3314.51911	0.58254
3313.55475	0.58116
3312.59039	0.57976
3311.62602	0.57833
3310.66166	0.57689
3309.69729	0.57543
3308.73293	0.57393
3307.76857	0.57241
3306.8042	0.57087
3305.83984	0.56932
3304.87547	0.56778
3303.91111	0.56624
3302.94675	0.56471
3301.98238	0.5632
3301.01802	0.56174
3300.05365	0.56031
3299.08929	0.55894
3298.12493	0.5576
3297.16056	0.55629
3296.1962	0.555
3295.23183	0.55374
3294.26747	0.55251
3293.30311	0.55131
3292.33874	0.55012
3291.37438	0.54895
3290.41001	0.5478
3289.44565	0.54668
3288.48129	0.54562
3287.51692	0.5446
3286.55256	0.54364
3285.58819	0.54274
3284.62383	0.5419
3283.65947	0.54113
3282.6951	0.54041
3281.73074	0.53974
3280.76637	0.53912
3279.80201	0.53855
3278.83765	0.538
3277.87328	0.53748
3276.90892	0.53696
3275.94455	0.5364
3274.98019	0.53579
3274.01583	0.53514
3273.05146	0.53443
3272.0871	0.53369
3271.12273	0.53291
3270.15837	0.53211
3269.19401	0.53131
3268.22964	0.53051
3267.26528	0.5297
3266.30091	0.52889
3265.33655	0.52809
3264.37219	0.52729
3263.40782	0.5265
3262.44346	0.52573
3261.47909	0.52498
3260.51473	0.52426
3259.55037	0.52357
3258.586	0.52292
3257.62164	0.5223
3256.65727	0.5217
3255.69291	0.52113
3254.72855	0.52057
3253.76418	0.52001
3252.79982	0.51945
3251.83545	0.51892
3250.87109	0.51842
3249.90673	0.51796
3248.94236	0.51754
3247.978	0.51717
3247.01363	0.51685
3246.04927	0.51655
3245.08491	0.51626
3244.12054	0.51594
3243.15618	0.51561
3242.19181	0.51527
3241.22745	0.51491
3240.26309	0.51452
3239.29872	0.5141
3238.33436	0.51365
3237.36999	0.51315
3236.40563	0.5126
3235.44127	0.51199
3234.4769	0.5113
3233.51254	0.51055
3232.54817	0.50972
3231.58381	0.50881
3230.61945	0.50783
3229.65508	0.50679
3228.69072	0.5057
3227.72635	0.50457
3226.76199	0.5034
3225.79763	0.50218
3224.83326	0.50093
3223.8689	0.49965
3222.90453	0.49832
3221.94017	0.49694
3220.97581	0.49552
3220.01144	0.49404
3219.04708	0.49249
3218.08271	0.49086
3217.11835	0.48918
3216.15399	0.48745
3215.18962	0.48568
3214.22526	0.48385
3213.26089	0.48197
3212.29653	0.48005
3211.33217	0.47809
3210.3678	0.47612
3209.40344	0.47412
3208.43907	0.47211
3207.47471	0.4701
3206.51035	0.4681
3205.54598	0.46611
3204.58162	0.46414
3203.61725	0.4622
3202.65289	0.4603
3201.68853	0.45843
3200.72416	0.45657
3199.7598	0.45472
3198.79543	0.45286
3197.83107	0.45096
3196.86671	0.44904
3195.90234	0.44709
3194.93798	0.44514
3193.97361	0.44321
3193.00925	0.44128
3192.04489	0.43937
3191.08052	0.43746
3190.11616	0.43556
3189.15179	0.43368
3188.18743	0.43181
3187.22307	0.42997
3186.2587	0.42815
3185.29434	0.42635
3184.32997	0.42457
3183.36561	0.42281
3182.40125	0.42108
3181.43688	0.41939
3180.47252	0.41773
3179.50815	0.41609
3178.54379	0.41448
3177.57943	0.41286
3176.61506	0.41123
3175.6507	0.40961
3174.68633	0.40798
3173.72197	0.40637
3172.7576	0.40475
3171.79324	0.40314
3170.82888	0.4015
3169.86451	0.39984
3168.90015	0.39814
3167.93578	0.39636
3166.97142	0.39452
3166.00706	0.39258
3165.04269	0.39053
3164.07833	0.38835
3163.11396	0.38604
3162.1496	0.38359
3161.18524	0.38099
3160.22087	0.37825
3159.25651	0.37538
3158.29214	0.37238
3157.32778	0.36928
3156.36342	0.36607
3155.39905	0.36276
3154.43469	0.35938
3153.47032	0.35595
3152.50596	0.35249
3151.5416	0.34904
3150.57723	0.34562
3149.61287	0.34224
3148.6485	0.33892
3147.68414	0.33568
3146.71978	0.33254
3145.75541	0.3295
3144.79105	0.32657
3143.82668	0.32373
3142.86232	0.321
3141.89796	0.31836
3140.93359	0.31582
3139.96923	0.31338
3139.00486	0.31103
3138.0405	0.30877
3137.07614	0.30659
3136.11177	0.3045
3135.14741	0.3025
3134.18304	0.30058
3133.21868	0.29874
3132.25432	0.29697
3131.28995	0.29526
3130.32559	0.29364
3129.36122	0.2921
3128.39686	0.29063
3127.4325	0.28925
3126.46813	0.28792
3125.50377	0.28665
3124.5394	0.28542
3123.57504	0.28421
3122.61068	0.283
3121.64631	0.28175
3120.68195	0.28047
3119.71758	0.27917
3118.75322	0.27783
3117.78886	0.27646
3116.82449	0.27505
3115.86013	0.27361
3114.89576	0.27215
3113.9314	0.27069
3112.96704	0.26925
3112.00267	0.26784
3111.03831	0.26649
3110.07394	0.2652
3109.10958	0.26398
3108.14522	0.26285
3107.18085	0.26182
3106.21649	0.26089
3105.25212	0.26006
3104.28776	0.25933
3103.3234	0.25869
3102.35903	0.2581
3101.39467	0.25756
3100.4303	0.25704
3099.46594	0.25652
3098.50158	0.25603
3097.53721	0.25558
3096.57285	0.25518
3095.60848	0.25481
3094.64412	0.25448
3093.67976	0.2542
3092.71539	0.25399
3091.75103	0.25386
3090.78666	0.25382
3089.8223	0.25388
3088.85794	0.25404
3087.89357	0.2543
3086.92921	0.25464
3085.96484	0.25509
3085.00048	0.25563
3084.03612	0.25629
3083.07175	0.25705
3082.10739	0.25792
3081.14302	0.25888
3080.17866	0.25991
3079.2143	0.261
3078.24993	0.26215
3077.28557	0.26334
3076.3212	0.26461
3075.35684	0.26595
3074.39248	0.26737
3073.42811	0.26884
3072.46375	0.27036
3071.49938	0.27189
3070.53502	0.27342
3069.57066	0.27494
3068.60629	0.27641
3067.64193	0.27781
3066.67756	0.27913
3065.7132	0.28036
3064.74884	0.2815
3063.78447	0.28254
3062.82011	0.2835
3061.85574	0.2844
3060.89138	0.28525
3059.92702	0.28605
3058.96265	0.28679
3057.99829	0.28748
3057.03392	0.28811
3056.06956	0.28867
3055.1052	0.28916
3054.14083	0.28959
3053.17647	0.28996
3052.2121	0.29027
3051.24774	0.29051
3050.28338	0.29068
3049.31901	0.29076
3048.35465	0.29075
3047.39028	0.29065
3046.42592	0.29047
3045.46156	0.29023
3044.49719	0.28994
3043.53283	0.28961
3042.56846	0.28927
3041.6041	0.28895
3040.63974	0.28866
3039.67537	0.28842
3038.71101	0.28824
3037.74664	0.2881
3036.78228	0.28799
3035.81792	0.28791
3034.85355	0.28781
3033.88919	0.28767
3032.92482	0.2875
3031.96046	0.28728
3030.99609	0.28703
3030.03173	0.28675
3029.06737	0.28649
3028.103	0.28628
3027.13864	0.28614
3026.17427	0.28608
3025.20991	0.28613
3024.24555	0.28631
3023.28118	0.28665
3022.31682	0.28716
3021.35245	0.28787
3020.38809	0.28877
3019.42373	0.28986
3018.45936	0.29116
3017.495	0.29264
3016.53063	0.29429
3015.56627	0.29607
3014.60191	0.29797
3013.63754	0.29995
3012.67318	0.30201
3011.70881	0.30413
3010.74445	0.30632
3009.78009	0.30862
3008.81572	0.31104
3007.85136	0.31365
3006.88699	0.3165
3005.92263	0.31964
3004.95827	0.32312
3003.9939	0.32697
3003.02954	0.33122
3002.06517	0.33591
3001.10081	0.34108
3000.13645	0.34676
2999.17208	0.35297
2998.20772	0.35971
2997.24335	0.36697
2996.27899	0.37473
2995.31463	0.38296
2994.35026	0.39163
2993.3859	0.40068
2992.42153	0.41007
2991.45717	0.41974
2990.49281	0.42966
2989.52844	0.43974
2988.56408	0.44994
2987.59971	0.46017
2986.63535	0.47037
2985.67099	0.48046
2984.70662	0.49036
2983.74226	0.5
2982.77789	0.50928
2981.81353	0.51812
2980.84917	0.52645
2979.8848	0.53418
2978.92044	0.54126
2977.95607	0.54761
2976.99171	0.55318
2976.02735	0.5579
2975.06298	0.56174
2974.09862	0.56466
2973.13425	0.56665
2972.16989	0.56772
2971.20553	0.5679
2970.24116	0.56724
2969.2768	0.56581
2968.31243	0.56368
2967.34807	0.56093
2966.38371	0.55764
2965.41934	0.55392
2964.45498	0.54989
2963.49061	0.54565
2962.52625	0.54135
2961.56189	0.5371
2960.59752	0.53303
2959.63316	0.52927
2958.66879	0.52595
2957.70443	0.52316
2956.74007	0.52102
2955.7757	0.5196
2954.81134	0.51899
2953.84697	0.51923
2952.88261	0.52037
2951.91825	0.52243
2950.95388	0.5254
2949.98952	0.52929
2949.02515	0.53405
2948.06079	0.53962
2947.09643	0.54592
2946.13206	0.55284
2945.1677	0.56025
2944.20333	0.56804
2943.23897	0.57605
2942.27461	0.58416
2941.31024	0.59223
2940.34588	0.60012
2939.38151	0.60771
2938.41715	0.61488
2937.45279	0.62152
2936.48842	0.62756
2935.52406	0.63291
2934.55969	0.63751
2933.59533	0.64131
2932.63097	0.64431
2931.6666	0.64647
2930.70224	0.6478
2929.73787	0.6483
2928.77351	0.648
2927.80915	0.64693
2926.84478	0.64511
2925.88042	0.64259
2924.91605	0.63941
2923.95169	0.63561
2922.98733	0.63125
2922.02296	0.6264
2921.0586	0.62111
2920.09423	0.61547
2919.12987	0.60953
2918.16551	0.60337
2917.20114	0.59706
2916.23678	0.59067
2915.27241	0.58425
2914.30805	0.57788
2913.34369	0.57161
2912.37932	0.56547
2911.41496	0.55951
2910.45059	0.55376
2909.48623	0.54821
2908.52187	0.54289
2907.5575	0.53777
2906.59314	0.53287
2905.62877	0.52815
2904.66441	0.52361
2903.70005	0.51924
2902.73568	0.51502
2901.77132	0.51093
2900.80695	0.50699
2899.84259	0.50317
2898.87823	0.49948
2897.91386	0.49593
2896.9495	0.49251
2895.98513	0.48925
2895.02077	0.48614
2894.05641	0.48321
2893.09204	0.48048
2892.12768	0.47796
2891.16331	0.47569
2890.19895	0.47365
2889.23458	0.47185
2888.27022	0.47029
2887.30586	0.46894
2886.34149	0.46779
2885.37713	0.46678
2884.41276	0.46588
2883.4484	0.46504
2882.48404	0.46419
2881.51967	0.46327
2880.55531	0.46222
2879.59094	0.46097
2878.62658	0.45946
2877.66222	0.45764
2876.69785	0.45545
2875.73349	0.45287
2874.76912	0.44987
2873.80476	0.44645
2872.8404	0.44263
2871.87603	0.43844
2870.91167	0.43394
2869.9473	0.42918
2868.98294	0.42425
2868.01858	0.41922
2867.05421	0.41415
2866.08985	0.40911
2865.12548	0.40416
2864.16112	0.39932
2863.19676	0.39461
2862.23239	0.39002
2861.26803	0.38552
2860.30366	0.38109
2859.3393	0.37666
2858.37494	0.37218
2857.41057	0.3676
2856.44621	0.36284
2855.48184	0.35785
2854.51748	0.3526
2853.55312	0.34704
2852.58875	0.34117
2851.62439	0.33499
2850.66002	0.32854
2849.69566	0.32185
2848.7313	0.315
2847.76693	0.30806
2846.80257	0.30113
2845.8382	0.2943
2844.87384	0.28764
2843.90948	0.28125
2842.94511	0.27517
2841.98075	0.26944
2841.01638	0.26411
2840.05202	0.25919
2839.08766	0.25467
2838.12329	0.25054
2837.15893	0.24677
2836.19456	0.24335
2835.2302	0.24023
2834.26584	0.23737
2833.30147	0.23473
2832.33711	0.23227
2831.37274	0.22995
2830.40838	0.22775
2829.44402	0.22563
2828.47965	0.22357
2827.51529	0.22157
2826.55092	0.21962
2825.58656	0.21771
2824.6222	0.21585
2823.65783	0.21404
2822.69347	0.21227
2821.7291	0.21055
2820.76474	0.20888
2819.80038	0.20724
2818.83601	0.20564
2817.87165	0.20408
2816.90728	0.20254
2815.94292	0.20102
2814.97856	0.19953
2814.01419	0.19805
2813.04983	0.19658
2812.08546	0.19512
2811.1211	0.19365
2810.15674	0.19219
2809.19237	0.19073
2808.22801	0.18925
2807.26364	0.18778
2806.29928	0.18631
2805.33492	0.18485
2804.37055	0.18339
2803.40619	0.18193
2802.44182	0.18047
2801.47746	0.17902
2800.5131	0.17757
2799.54873	0.17611
2798.58437	0.17465
2797.62	0.17319
2796.65564	0.17171
2795.69128	0.17023
2794.72691	0.16873
2793.76255	0.16723
2792.79818	0.1657
2791.83382	0.16417
2790.86946	0.16262
2789.90509	0.16105
2788.94073	0.15946
2787.97636	0.15785
2787.012	0.15624
2786.04764	0.15461
2785.08327	0.15299
2784.11891	0.15136
2783.15454	0.14975
2782.19018	0.14815
2781.22582	0.14656
2780.26145	0.14498
2779.29709	0.14342
2778.33272	0.14188
2777.36836	0.14036
2776.404	0.13886
2775.43963	0.13739
2774.47527	0.13595
2773.5109	0.13453
2772.54654	0.13315
2771.58218	0.1318
2770.61781	0.1305
2769.65345	0.12923
2768.68908	0.12801
2767.72472	0.12684
2766.76036	0.1257
2765.79599	0.12462
2764.83163	0.12358
2763.86726	0.1226
2762.9029	0.12168
2761.93854	0.1208
2760.97417	0.11999
2760.00981	0.11923
2759.04544	0.11851
2758.08108	0.11784
2757.11672	0.1172
2756.15235	0.1166
2755.18799	0.11603
2754.22362	0.11549
2753.25926	0.11497
2752.2949	0.11447
2751.33053	0.11398
2750.36617	0.1135
2749.4018	0.11303
2748.43744	0.11256
2747.47307	0.11207
2746.50871	0.11158
2745.54435	0.11107
2744.57998	0.11055
2743.61562	0.11002
2742.65125	0.10948
2741.68689	0.10893
2740.72253	0.10838
2739.75816	0.10782
2738.7938	0.10727
2737.82943	0.10672
2736.86507	0.10618
2735.90071	0.10564
2734.93634	0.1051
2733.97198	0.10458
2733.00761	0.10406
2732.04325	0.10357
2731.07889	0.1031
2730.11452	0.10265
2729.15016	0.10221
2728.18579	0.1018
2727.22143	0.1014
2726.25707	0.10101
2725.2927	0.10063
2724.32834	0.10025
2723.36397	0.09989
2722.39961	0.09953
2721.43525	0.09918
2720.47088	0.09883
2719.50652	0.09849
2718.54215	0.09815
2717.57779	0.09781
2716.61343	0.09747
2715.64906	0.09713
2714.6847	0.09678
2713.72033	0.09643
2712.75597	0.09608
2711.79161	0.09573
2710.82724	0.09537
2709.86288	0.09502
2708.89851	0.09467
2707.93415	0.09431
2706.96979	0.09396
2706.00542	0.09361
2705.04106	0.09327
2704.07669	0.09293
2703.11233	0.09258
2702.14797	0.09224
2701.1836	0.09189
2700.21924	0.09155
2699.25487	0.09119
2698.29051	0.09083
2697.32615	0.09045
2696.36178	0.09006
2695.39742	0.08966
2694.43305	0.08924
2693.46869	0.0888
2692.50433	0.08834
2691.53996	0.08786
2690.5756	0.08736
2689.61123	0.08684
2688.64687	0.0863
2687.68251	0.08574
2686.71814	0.08517
2685.75378	0.08458
2684.78941	0.08399
2683.82505	0.08338
2682.86069	0.08277
2681.89632	0.08215
2680.93196	0.08154
2679.96759	0.08092
2679.00323	0.08031
2678.03887	0.0797
2677.0745	0.0791
2676.11014	0.0785
2675.14577	0.07792
2674.18141	0.07736
2673.21705	0.07682
2672.25268	0.0763
2671.28832	0.07581
2670.32395	0.07535
2669.35959	0.07493
2668.39523	0.07455
2667.43086	0.07421
2666.4665	0.07393
2665.50213	0.07371
2664.53777	0.07354
2663.57341	0.07344
2662.60904	0.07341
2661.64468	0.07344
2660.68031	0.07354
2659.71595	0.07371
2658.75159	0.07394
2657.78722	0.07422
2656.82286	0.07456
2655.85849	0.07494
2654.89413	0.07534
2653.92977	0.07576
2652.9654	0.07618
2652.00104	0.07658
2651.03667	0.07696
2650.07231	0.07729
2649.10795	0.07756
2648.14358	0.07775
2647.17922	0.07787
2646.21485	0.07788
2645.25049	0.0778
2644.28613	0.07762
2643.32176	0.07733
2642.3574	0.07694
2641.39303	0.07646
2640.42867	0.0759
2639.46431	0.07527
2638.49994	0.07458
2637.53558	0.07386
2636.57121	0.07312
2635.60685	0.07237
2634.64249	0.07165
2633.67812	0.07095
2632.71376	0.07029
2631.74939	0.06969
2630.78503	0.06915
2629.82067	0.06869
2628.8563	0.06831
2627.89194	0.068
2626.92757	0.06777
2625.96321	0.06762
2624.99885	0.06753
2624.03448	0.06751
2623.07012	0.06753
2622.10575	0.0676
2621.14139	0.06771
2620.17703	0.06784
2619.21266	0.06799
2618.2483	0.06815
2617.28393	0.06832
2616.31957	0.06848
2615.35521	0.06862
2614.39084	0.06875
2613.42648	0.06885
2612.46211	0.06893
2611.49775	0.06898
2610.53339	0.06899
2609.56902	0.06897
2608.60466	0.06892
2607.64029	0.06883
2606.67593	0.06869
2605.71156	0.06851
2604.7472	0.06828
2603.78284	0.068
2602.81847	0.06767
2601.85411	0.0673
2600.88974	0.06688
2599.92538	0.06641
2598.96102	0.06591
2597.99665	0.06538
2597.03229	0.06482
2596.06792	0.06424
2595.10356	0.06364
2594.1392	0.06303
2593.17483	0.06241
2592.21047	0.06179
2591.2461	0.06117
2590.28174	0.06056
2589.31738	0.05997
2588.35301	0.05938
2587.38865	0.05879
2586.42428	0.05821
2585.45992	0.05764
2584.49556	0.05706
2583.53119	0.05647
2582.56683	0.05588
2581.60246	0.05527
2580.6381	0.05465
2579.67374	0.05401
2578.70937	0.05336
2577.74501	0.05269
2576.78064	0.05201
2575.81628	0.05132
2574.85192	0.05063
2573.88755	0.04993
2572.92319	0.04922
2571.95882	0.04853
2570.99446	0.04783
2570.0301	0.04714
2569.06573	0.04647
2568.10137	0.04581
2567.137	0.04517
2566.17264	0.04454
2565.20828	0.04392
2564.24391	0.04332
2563.27955	0.04273
2562.31518	0.04214
2561.35082	0.04157
2560.38646	0.04101
2559.42209	0.04046
2558.45773	0.03991
2557.49336	0.03938
2556.529	0.03884
2555.56464	0.03831
2554.60027	0.03779
2553.63591	0.03728
2552.67154	0.03677
2551.70718	0.03627
2550.74282	0.03578
2549.77845	0.03529
2548.81409	0.03481
2547.84972	0.03435
2546.88536	0.03389
2545.921	0.03344
2544.95663	0.033
2543.99227	0.03257
2543.0279	0.03215
2542.06354	0.03174
2541.09918	0.03133
2540.13481	0.03094
2539.17045	0.03055
2538.20608	0.03017
2537.24172	0.02979
2536.27736	0.02942
2535.31299	0.02906
2534.34863	0.0287
2533.38426	0.02834
2532.4199	0.02799
2531.45554	0.02765
2530.49117	0.02731
2529.52681	0.02697
2528.56244	0.02664
2527.59808	0.02632
2526.63372	0.02601
2525.66935	0.0257
2524.70499	0.0254
2523.74062	0.02511
2522.77626	0.02483
2521.8119	0.02456
2520.84753	0.0243
2519.88317	0.02405
2518.9188	0.02381
2517.95444	0.02358
2516.99008	0.02336
2516.02571	0.02315
2515.06135	0.02295
2514.09698	0.02275
2513.13262	0.02257
2512.16826	0.02239
2511.20389	0.02222
2510.23953	0.02206
2509.27516	0.0219
2508.3108	0.02175
2507.34644	0.0216
2506.38207	0.02146
2505.41771	0.02132
2504.45334	0.02119
2503.48898	0.02106
2502.52462	0.02093
2501.56025	0.02081
2500.59589	0.02068
2499.63152	0.02056
2498.66716	0.02044
2497.7028	0.02031
2496.73843	0.02018
2495.77407	0.02005
2494.8097	0.01992
2493.84534	0.01978
2492.88098	0.01964
2491.91661	0.0195
2490.95225	0.01935
2489.98788	0.0192
2489.02352	0.01904
2488.05916	0.01888
2487.09479	0.01871
2486.13043	0.01854
2485.16606	0.01837
2484.2017	0.0182
2483.23734	0.01802
2482.27297	0.01785
2481.30861	0.01768
2480.34424	0.0175
2479.37988	0.01733
2478.41552	0.01715
2477.45115	0.01698
2476.48679	0.01681
2475.52242	0.01664
2474.55806	0.01648
2473.5937	0.01632
2472.62933	0.01616
2471.66497	0.016
2470.7006	0.01585
2469.73624	0.01569
2468.77187	0.01554
2467.80751	0.0154
2466.84315	0.01525
2465.87878	0.01511
2464.91442	0.01497
2463.95005	0.01483
2462.98569	0.01469
2462.02133	0.01456
2461.05696	0.01443
2460.0926	0.0143
2459.12823	0.01417
2458.16387	0.01405
2457.19951	0.01394
2456.23514	0.01383
2455.27078	0.01373
2454.30641	0.01364
2453.34205	0.01356
2452.37769	0.01348
2451.41332	0.01342
2450.44896	0.01336
2449.48459	0.01331
2448.52023	0.01327
2447.55587	0.01323
2446.5915	0.01319
2445.62714	0.01316
2444.66277	0.01313
2443.69841	0.0131
2442.73405	0.01307
2441.76968	0.01303
2440.80532	0.01299
2439.84095	0.01295
2438.87659	0.01291
2437.91223	0.01287
2436.94786	0.01282
2435.9835	0.01277
2435.01913	0.01272
2434.05477	0.01267
2433.09041	0.01261
2432.12604	0.01256
2431.16168	0.0125
2430.19731	0.01244
2429.23295	0.01238
2428.26859	0.01233
2427.30422	0.01227
2426.33986	0.01221
2425.37549	0.01215
2424.41113	0.01209
2423.44677	0.01203
2422.4824	0.01197
2421.51804	0.01191
2420.55367	0.01185
2419.58931	0.01178
2418.62495	0.01172
2417.66058	0.01166
2416.69622	0.0116
2415.73185	0.01154
2414.76749	0.01147
2413.80313	0.01141
2412.83876	0.01135
2411.8744	0.01129
2410.91003	0.01123
2409.94567	0.01116
2408.98131	0.0111
2408.01694	0.01104
2407.05258	0.01098
2406.08821	0.01092
2405.12385	0.01086
2404.15949	0.01079
2403.19512	0.01073
2402.23076	0.01067
2401.26639	0.01061
2400.30203	0.01055
2399.33767	0.01049
2398.3733	0.01042
2397.40894	0.01036
2396.44457	0.0103
2395.48021	0.01024
2394.51585	0.01018
2393.55148	0.01012
2392.58712	0.01005
2391.62275	0.00999
2390.65839	0.00993
2389.69403	0.00987
2388.72966	0.00981
2387.7653	0.00975
2386.80093	0.00968
2385.83657	0.00962
2384.87221	0.00956
2383.90784	0.0095
2382.94348	0.00944
2381.97911	0.00937
2381.01475	0.00931
2380.05039	0.00925
2379.08602	0.00919
2378.12166	0.00913
2377.15729	0.00907
2376.19293	0.009
2375.22857	0.00894
2374.2642	0.00888
2373.29984	0.00882
2372.33547	0.00876
2371.37111	0.0087
2370.40675	0.00863
2369.44238	0.00857
2368.47802	0.00851
2367.51365	0.00845
2366.54929	0.00839
2365.58493	0.00833
2364.62056	0.00826
2363.6562	0.0082
2362.69183	0.00814
2361.72747	0.00808
2360.76311	0.00802
2359.79874	0.00795
2358.83438	0.00789
2357.87001	0.00783
2356.90565	0.00777
2355.94129	0.00771
2354.97692	0.00765
2354.01256	0.00758
2353.04819	0.00752
2352.08383	0.00746
2351.11947	0.0074
2350.1551	0.00734
2349.19074	0.00728
2348.22637	0.00721
2347.26201	0.00715
2346.29765	0.00709
2345.33328	0.00703
2344.36892	0.00697
2343.40455	0.00691
2342.44019	0.00684
2341.47583	0.00678
2340.51146	0.00672
2339.5471	0.00666
2338.58273	0.0066
2337.61837	0.00654
2336.65401	0.00647
2335.68964	0.00641
2334.72528	0.00635
2333.76091	0.00629
2332.79655	0.00623
2331.83219	0.00616
2330.86782	0.0061
2329.90346	0.00604
2328.93909	0.00598
2327.97473	0.00592
2327.01036	0.00586
2326.046	0.00579
2325.08164	0.00573
2324.11727	0.00567
2323.15291	0.00561
2322.18854	0.00555
2321.22418	0.00549
2320.25982	0.00542
2319.29545	0.00536
2318.33109	0.0053
2317.36672	0.00524
2316.40236	0.00518
2315.438	0.00512
2314.47363	0.00505
2313.50927	0.00499
2312.5449	0.00493
2311.58054	0.00487
2310.61618	0.00481
2309.65181	0.00474
2308.68745	0.00468
2307.72308	0.00461
2306.75872	0.00455
2305.79436	0.00449
2304.82999	0.00444
2303.86563	0.00439
2302.90126	0.00434
2301.9369	0.0043
2300.97254	0.00425
2300.00817	0.00421
2299.04381	0.00416
2298.07944	0.00411
2297.11508	0.00405
2296.15072	0.00397
2295.18635	0.00389
2294.22199	0.00378
2293.25762	0.00366
2292.29326	0.00352
2291.3289	0.00336
2290.36453	0.00317
2289.40017	0.00297
2288.4358	0.00274
2287.47144	0.00249
2286.50708	0.00224
2285.54271	0.00197
2284.57835	0.00171
2283.61398	0.00146
2282.64962	0.00122
2281.68526	9.96642E-4
2280.72089	7.95629E-4
2279.75653	6.18804E-4
2278.79216	4.68441E-4
2277.8278	3.44336E-4
2276.86344	2.44551E-4
2275.89907	1.6836E-4
2274.93471	1.15741E-4
2273.97034	8.55859E-5
2273.00598	7.42802E-5
2272.04162	7.72664E-5
2271.07725	9.06764E-5
2270.11289	1.12217E-4
2269.14852	1.38854E-4
2268.18416	1.66316E-4
2267.2198	1.90324E-4
2266.25543	2.08383E-4
2265.29107	2.20977E-4
2264.3267	2.286E-4
2263.36234	2.31239E-4
2262.39798	2.28637E-4
2261.43361	2.2186E-4
2260.46925	2.10871E-4
2259.50488	1.95469E-4
2258.54052	1.7578E-4
2257.57616	1.52802E-4
2256.61179	1.28542E-4
2255.64743	1.042E-4
2254.68306	7.96765E-5
2253.7187	5.49058E-5
2252.75434	3.21963E-5
2251.78997	1.4666E-5
2250.82561	3.95017E-6
2249.86124	0
2248.89688	2.78897E-6
2247.93252	1.31965E-5
2246.96815	3.25252E-5
2246.00379	6.05696E-5
2245.03942	9.61341E-5
2244.07506	1.3863E-4
2243.1107	1.88697E-4
2242.14633	2.47783E-4
2241.18197	3.15502E-4
2240.2176	3.90359E-4
2239.25324	4.70778E-4
2238.28888	5.55998E-4
2237.32451	6.46445E-4
2236.36015	7.43534E-4
2235.39578	8.46603E-4
2234.43142	9.53561E-4
2233.46706	0.00106
2232.50269	0.00118
2231.53833	0.0013
2230.57396	0.00142
2229.6096	0.00155
2228.64524	0.00168
2227.68087	0.00181
2226.71651	0.00194
2225.75214	0.00206
2224.78778	0.00219
2223.82342	0.00231
2222.85905	0.00242
2221.89469	0.00253
2220.93032	0.00263
2219.96596	0.00272
2219.0016	0.0028
2218.03723	0.00288
2217.07287	0.00296
2216.1085	0.00302
2215.14414	0.00308
2214.17978	0.00314
2213.21541	0.00319
2212.25105	0.00325
2211.28668	0.00331
2210.32232	0.00338
2209.35796	0.00345
2208.39359	0.00353
2207.42923	0.00362
2206.46486	0.00372
2205.5005	0.00383
2204.53614	0.00395
2203.57177	0.00407
2202.60741	0.0042
2201.64304	0.00434
2200.67868	0.00449
2199.71432	0.00465
2198.74995	0.00481
2197.78559	0.00497
2196.82122	0.00513
2195.85686	0.0053
2194.8925	0.00547
2193.92813	0.00564
2192.96377	0.0058
2191.9994	0.00596
2191.03504	0.00612
2190.07068	0.00627
2189.10631	0.00642
2188.14195	0.00656
2187.17758	0.0067
2186.21322	0.00683
2185.24885	0.00696
2184.28449	0.00707
2183.32013	0.00718
2182.35576	0.00728
2181.3914	0.00737
2180.42703	0.00746
2179.46267	0.00755
2178.49831	0.00764
2177.53394	0.00772
2176.56958	0.0078
2175.60521	0.00788
2174.64085	0.00796
2173.67649	0.00805
2172.71212	0.00814
2171.74776	0.00822
2170.78339	0.00831
2169.81903	0.0084
2168.85467	0.00848
2167.8903	0.00856
2166.92594	0.00863
2165.96157	0.00869
2164.99721	0.00875
2164.03285	0.0088
2163.06848	0.00883
2162.10412	0.00886
2161.13975	0.00888
2160.17539	0.00888
2159.21103	0.00889
2158.24666	0.00888
2157.2823	0.00886
2156.31793	0.00883
2155.35357	0.0088
2154.38921	0.00878
2153.42484	0.00876
2152.46048	0.00874
2151.49611	0.00873
2150.53175	0.00874
2149.56739	0.00875
2148.60302	0.00877
2147.63866	0.00881
2146.67429	0.00884
2145.70993	0.00889
2144.74557	0.00893
2143.7812	0.00898
2142.81684	0.00902
2141.85247	0.00907
2140.88811	0.00912
2139.92375	0.00916
2138.95938	0.0092
2137.99502	0.00922
2137.03065	0.00922
2136.06629	0.0092
2135.10193	0.00916
2134.13756	0.00909
2133.1732	0.00902
2132.20883	0.00894
2131.24447	0.00885
2130.28011	0.00877
2129.31574	0.00868
2128.35138	0.0086
2127.38701	0.00852
2126.42265	0.00845
2125.45829	0.00838
2124.49392	0.00832
2123.52956	0.00827
2122.56519	0.00822
2121.60083	0.00818
2120.63647	0.00815
2119.6721	0.00812
2118.70774	0.00811
2117.74337	0.0081
2116.77901	0.00809
2115.81465	0.00808
2114.85028	0.00806
2113.88592	0.00803
2112.92155	0.00799
2111.95719	0.00795
2110.99283	0.0079
2110.02846	0.00785
2109.0641	0.00779
2108.09973	0.00774
2107.13537	0.0077
2106.17101	0.00767
2105.20664	0.00766
2104.24228	0.00766
2103.27791	0.00767
2102.31355	0.00771
2101.34919	0.00777
2100.38482	0.00784
2099.42046	0.00794
2098.45609	0.00804
2097.49173	0.00817
2096.52737	0.0083
2095.563	0.00844
2094.59864	0.00858
2093.63427	0.00871
2092.66991	0.00884
2091.70555	0.00896
2090.74118	0.00907
2089.77682	0.00915
2088.81245	0.00921
2087.84809	0.00924
2086.88373	0.00923
2085.91936	0.00918
2084.955	0.0091
2083.99063	0.00901
2083.02627	0.00893
2082.06191	0.00885
2081.09754	0.00879
2080.13318	0.00875
2079.16881	0.00874
2078.20445	0.00876
2077.24009	0.00882
2076.27572	0.00891
2075.31136	0.00903
2074.34699	0.00918
2073.38263	0.00936
2072.41827	0.00955
2071.4539	0.00975
2070.48954	0.00996
2069.52517	0.01017
2068.56081	0.01036
2067.59645	0.01052
2066.63208	0.01064
2065.66772	0.0107
2064.70335	0.01067
2063.73899	0.01054
2062.77463	0.01033
2061.81026	0.01006
2060.8459	0.00975
2059.88153	0.00943
2058.91717	0.0091
2057.95281	0.00878
2056.98844	0.00849
2056.02408	0.00824
2055.05971	0.00803
2054.09535	0.00787
2053.13099	0.00777
2052.16662	0.00771
2051.20226	0.00771
2050.23789	0.00776
2049.27353	0.00784
2048.30917	0.00797
2047.3448	0.00812
2046.38044	0.00828
2045.41607	0.00843
2044.45171	0.00855
2043.48734	0.00862
2042.52298	0.00864
2041.55862	0.00857
2040.59425	0.00842
2039.62989	0.00819
2038.66552	0.00788
2037.70116	0.00751
2036.7368	0.00711
2035.77243	0.0067
2034.80807	0.00632
2033.8437	0.00599
2032.87934	0.00571
2031.91498	0.0055
2030.95061	0.00537
2029.98625	0.00532
2029.02188	0.00535
2028.05752	0.00545
2027.09316	0.00563
2026.12879	0.00588
2025.16443	0.00618
2024.20006	0.00652
2023.2357	0.00689
2022.27134	0.00726
2021.30697	0.00762
2020.34261	0.00793
2019.37824	0.00818
2018.41388	0.00832
2017.44952	0.00833
2016.48515	0.00821
2015.52079	0.00798
2014.55642	0.00763
2013.59206	0.00718
2012.6277	0.00666
2011.66333	0.00611
2010.69897	0.00555
2009.7346	0.00499
2008.77024	0.00446
2007.80588	0.00399
2006.84151	0.00362
2005.87715	0.00337
2004.91278	0.00326
2003.94842	0.0033
2002.98406	0.0035
2002.01969	0.00385
2001.05533	0.00435
2000.09096	0.00497
1999.1266	0.00569
1998.16224	0.00647
1997.19787	0.00727
1996.23351	0.00808
1995.26914	0.00884
1994.30478	0.00953
1993.34042	0.01011
1992.37605	0.01052
1991.41169	0.01072
1990.44732	0.01071
1989.48296	0.01052
1988.5186	0.01012
1987.55423	0.00954
1986.58987	0.00881
1985.6255	0.00803
1984.66114	0.00726
1983.69678	0.00654
1982.73241	0.00589
1981.76805	0.00536
1980.80368	0.00497
1979.83932	0.00473
1978.87496	0.00466
1977.91059	0.00475
1976.94623	0.00499
1975.98186	0.00536
1975.0175	0.00585
1974.05314	0.00644
1973.08877	0.00711
1972.12441	0.00783
1971.16004	0.00855
1970.19568	0.00923
1969.23132	0.00982
1968.26695	0.01028
1967.30259	0.01057
1966.33822	0.01066
1965.37386	0.01052
1964.4095	0.01018
1963.44513	0.0097
1962.48077	0.00914
1961.5164	0.00855
1960.55204	0.00797
1959.58768	0.00745
1958.62331	0.00702
1957.65895	0.00672
1956.69458	0.00657
1955.73022	0.00655
1954.76586	0.00665
1953.80149	0.00686
1952.83713	0.00719
1951.87276	0.00765
1950.9084	0.00823
1949.94404	0.00889
1948.97967	0.00961
1948.01531	0.01036
1947.05094	0.0111
1946.08658	0.01174
1945.12222	0.01215
1944.15785	0.01223
1943.19349	0.01199
1942.22912	0.01142
1941.26476	0.01055
1940.3004	0.00949
1939.33603	0.0083
1938.37167	0.00709
1937.4073	0.00594
1936.44294	0.00491
1935.47858	0.00408
1934.51421	0.00349
1933.54985	0.00317
1932.58548	0.00311
1931.62112	0.00329
1930.65676	0.0037
1929.69239	0.00435
1928.72803	0.00523
1927.76366	0.00632
1926.7993	0.0076
1925.83494	0.00904
1924.87057	0.01056
1923.90621	0.01206
1922.94184	0.01338
1921.97748	0.0144
1921.01312	0.01512
1920.04875	0.01563
1919.08439	0.01594
1918.12002	0.01603
1917.15566	0.01586
1916.1913	0.01547
1915.22693	0.01499
1914.26257	0.01449
1913.2982	0.01402
1912.33384	0.0136
1911.36948	0.01317
1910.40511	0.0127
1909.44075	0.01218
1908.47638	0.01164
1907.51202	0.01113
1906.54766	0.01072
1905.58329	0.01049
1904.61893	0.01045
1903.65456	0.01063
1902.6902	0.01101
1901.72583	0.01156
1900.76147	0.01224
1899.79711	0.01301
1898.83274	0.01388
1897.86838	0.01488
1896.90401	0.01598
1895.93965	0.01707
1894.97529	0.01806
1894.01092	0.01893
1893.04656	0.01975
1892.08219	0.02055
1891.11783	0.02118
1890.15347	0.02147
1889.1891	0.0213
1888.22474	0.02066
1887.26037	0.01973
1886.29601	0.01867
1885.33165	0.01763
1884.36728	0.01672
1883.40292	0.01603
1882.43855	0.01563
1881.47419	0.0156
1880.50983	0.01594
1879.54546	0.01667
1878.5811	0.01779
1877.61673	0.0193
1876.65237	0.02117
1875.68801	0.02335
1874.72364	0.02579
1873.75928	0.02839
1872.79491	0.03107
1871.83055	0.03373
1870.86619	0.03623
1869.90182	0.03838
1868.93746	0.03992
1867.97309	0.04066
1867.00873	0.04055
1866.04437	0.03966
1865.08	0.03821
1864.11564	0.03645
1863.15127	0.03456
1862.18691	0.0327
1861.22255	0.031
1860.25818	0.02957
1859.29382	0.02848
1858.32945	0.02781
1857.36509	0.02761
1856.40073	0.02795
1855.43636	0.0289
1854.472	0.03049
1853.50763	0.03273
1852.54327	0.03551
1851.57891	0.03862
1850.61454	0.04193
1849.65018	0.04538
1848.68581	0.04886
1847.72145	0.05214
1846.75709	0.05502
1845.79272	0.05742
1844.82836	0.05933
1843.86399	0.06075
1842.89963	0.06178
1841.93527	0.06265
1840.9709	0.06355
1840.00654	0.0646
1839.04217	0.06586
1838.07781	0.06735
1837.11345	0.06906
1836.14908	0.071
1835.18472	0.07323
1834.22035	0.07579
1833.25599	0.07862
1832.29163	0.08162
1831.32726	0.08472
1830.3629	0.08778
1829.39853	0.09056
1828.43417	0.09303
1827.46981	0.09546
1826.50544	0.09807
1825.54108	0.10097
1824.57671	0.10419
1823.61235	0.10788
1822.64799	0.11227
1821.68362	0.11753
1820.71926	0.12387
1819.75489	0.13155
1818.79053	0.14072
1817.82617	0.15135
1816.8618	0.16337
1815.89744	0.17669
1814.93307	0.19111
1813.96871	0.20631
1813.00435	0.22198
1812.03998	0.2378
1811.07562	0.25341
1810.11125	0.26844
1809.14689	0.28263
1808.18253	0.29573
1807.21816	0.30753
1806.2538	0.31789
1805.28943	0.32696
1804.32507	0.33495
1803.36071	0.34195
1802.39634	0.34794
1801.43198	0.35304
1800.46761	0.35748
1799.50325	0.36155
1798.53889	0.36547
1797.57452	0.36947
1796.61016	0.37371
1795.64579	0.37823
1794.68143	0.38292
1793.71707	0.38771
1792.7527	0.39256
1791.78834	0.39737
1790.82397	0.40209
1789.85961	0.40684
1788.89525	0.41185
1787.93088	0.41728
1786.96652	0.42326
1786.00215	0.42986
1785.03779	0.43701
1784.07343	0.44451
1783.10906	0.45226
1782.1447	0.46024
1781.18033	0.46837
1780.21597	0.4764
1779.25161	0.4841
1778.28724	0.49133
1777.32288	0.49803
1776.35851	0.50411
1775.39415	0.50934
1774.42979	0.51347
1773.46542	0.51614
1772.50106	0.51703
1771.53669	0.51581
1770.57233	0.51258
1769.60797	0.5078
1768.6436	0.502
1767.67924	0.49582
1766.71487	0.48993
1765.75051	0.4849
1764.78615	0.48112
1763.82178	0.47892
1762.85742	0.47839
1761.89305	0.47937
1760.92869	0.4817
1759.96432	0.48539
1758.99996	0.49039
1758.0356	0.49648
1757.07123	0.50316
1756.10687	0.50971
1755.1425	0.51563
1754.17814	0.52055
1753.21378	0.52398
1752.24941	0.52531
1751.28505	0.52401
1750.32068	0.51974
1749.35632	0.51249
1748.39196	0.50245
1747.42759	0.4902
1746.46323	0.47636
1745.49886	0.46147
1744.5345	0.44598
1743.57014	0.43029
1742.60577	0.41471
1741.64141	0.39965
1740.67704	0.38523
1739.71268	0.37125
1738.74832	0.35762
1737.78395	0.34449
1736.81959	0.33198
1735.85522	0.32011
1734.89086	0.30871
1733.9265	0.29747
1732.96213	0.28612
1731.99777	0.27501
1731.0334	0.26435
1730.06904	0.25419
1729.10468	0.24454
1728.14031	0.23557
1727.17595	0.22751
1726.21158	0.22066
1725.24722	0.21529
1724.28286	0.21169
1723.31849	0.21002
1722.35413	0.21017
1721.38976	0.212
1720.4254	0.21543
1719.46104	0.22038
1718.49667	0.22649
1717.53231	0.23313
1716.56794	0.23992
1715.60358	0.24703
1714.63922	0.25461
1713.67485	0.26276
1712.71049	0.27161
1711.74612	0.28122
1710.78176	0.2916
1709.8174	0.3029
1708.85303	0.3154
1707.88867	0.32923
1706.9243	0.34408
1705.95994	0.35954
1704.99558	0.37553
1704.03121	0.3921
1703.06685	0.40922
1702.10248	0.42676
1701.13812	0.44448
1700.17376	0.46199
1699.20939	0.47862
1698.24503	0.49401
1697.28066	0.50774
1696.3163	0.5193
1695.35194	0.52815
1694.38757	0.53411
1693.42321	0.53738
1692.45884	0.53814
1691.49448	0.53633
1690.53012	0.53198
1689.56575	0.52521
1688.60139	0.51625
1687.63702	0.50542
1686.67266	0.49316
1685.7083	0.4798
1684.74393	0.46536
1683.77957	0.44963
1682.8152	0.43308
1681.85084	0.41663
1680.88648	0.40087
1679.92211	0.38608
1678.95775	0.37245
1677.99338	0.36019
1677.02902	0.34936
1676.06466	0.33956
1675.10029	0.33037
1674.13593	0.32161
1673.17156	0.31337
1672.2072	0.30577
1671.24284	0.2989
1670.27847	0.29263
1669.31411	0.28657
1668.34974	0.28039
1667.38538	0.27428
1666.42102	0.2686
1665.45665	0.26367
1664.49229	0.25965
1663.52792	0.25655
1662.56356	0.25416
1661.5992	0.25234
1660.63483	0.25127
1659.67047	0.25133
1658.7061	0.25254
1657.74174	0.2545
1656.77738	0.25693
1655.81301	0.25968
1654.84865	0.2625
1653.88428	0.26492
1652.91992	0.26623
1651.95556	0.26635
1650.99119	0.26583
1650.02683	0.26488
1649.06246	0.26344
1648.0981	0.26136
1647.13374	0.25836
1646.16937	0.25423
1645.20501	0.24925
1644.24064	0.24402
1643.27628	0.23896
1642.31192	0.23428
1641.34755	0.23011
1640.38319	0.22652
1639.41882	0.22346
1638.45446	0.22083
1637.4901	0.21857
1636.52573	0.21648
1635.56137	0.2143
1634.597	0.21197
1633.63264	0.20977
1632.66828	0.20787
1631.70391	0.20624
1630.73955	0.20482
1629.77518	0.20362
1628.81082	0.20285
1627.84646	0.20257
1626.88209	0.20253
1625.91773	0.2026
1624.95336	0.20266
1623.989	0.20254
1623.02464	0.20216
1622.06027	0.20168
1621.09591	0.20138
1620.13154	0.20136
1619.16718	0.20159
1618.20281	0.20193
1617.23845	0.20214
1616.27409	0.20187
1615.30972	0.20101
1614.34536	0.19973
1613.38099	0.19816
1612.41663	0.19647
1611.45227	0.19486
1610.4879	0.19351
1609.52354	0.19233
1608.55917	0.19123
1607.59481	0.19014
1606.63045	0.18902
1605.66608	0.18784
1604.70172	0.18663
1603.73735	0.18539
1602.77299	0.18413
1601.80863	0.18282
1600.84426	0.18145
1599.8799	0.18009
1598.91553	0.17874
1597.95117	0.17739
1596.98681	0.176
1596.02244	0.17457
1595.05808	0.17311
1594.09371	0.17172
1593.12935	0.17057
1592.16499	0.16985
1591.20062	0.16962
1590.23626	0.16988
1589.27189	0.1707
1588.30753	0.17215
1587.34317	0.17423
1586.3788	0.17692
1585.41444	0.18027
1584.45007	0.18438
1583.48571	0.18934
1582.52135	0.1953
1581.55698	0.20186
1580.59262	0.20851
1579.62825	0.21521
1578.66389	0.22207
1577.69953	0.22915
1576.73516	0.2363
1575.7708	0.24335
1574.80643	0.25047
1573.84207	0.25807
1572.87771	0.2664
1571.91334	0.27547
1570.94898	0.28528
1569.98461	0.29574
1569.02025	0.30661
1568.05589	0.31775
1567.09152	0.32914
1566.12716	0.34064
1565.16279	0.35197
1564.19843	0.36279
1563.23407	0.37285
1562.2697	0.38181
1561.30534	0.38929
1560.34097	0.39511
1559.37661	0.39898
1558.41225	0.40018
1557.44788	0.399
1556.48352	0.39636
1555.51915	0.39262
1554.55479	0.38796
1553.59043	0.38265
1552.62606	0.37727
1551.6617	0.37252
1550.69733	0.36874
1549.73297	0.36588
1548.76861	0.36389
1547.80424	0.36288
1546.83988	0.36285
1545.87551	0.36373
1544.91115	0.36529
1543.94679	0.36699
1542.98242	0.36826
1542.01806	0.3688
1541.05369	0.36846
1540.08933	0.36707
1539.12497	0.36425
1538.1606	0.36017
1537.19624	0.35541
1536.23187	0.35032
1535.26751	0.34526
1534.30315	0.34086
1533.33878	0.33735
1532.37442	0.33468
1531.41005	0.33308
1530.44569	0.33285
1529.48133	0.3339
1528.51696	0.33585
1527.5526	0.33844
1526.58823	0.34163
1525.62387	0.34556
1524.65951	0.35031
1523.69514	0.35579
1522.73078	0.36181
1521.76641	0.36796
1520.80205	0.3737
1519.83769	0.37906
1518.87332	0.3843
1517.90896	0.38943
1516.94459	0.39434
1515.98023	0.399
1515.01587	0.40401
1514.0515	0.40989
1513.08714	0.41667
1512.12277	0.42412
1511.15841	0.432
1510.19405	0.4402
1509.22968	0.44861
1508.26532	0.45705
1507.30095	0.4651
1506.33659	0.47223
1505.37223	0.47851
1504.40786	0.48457
1503.4435	0.4907
1502.47913	0.497
1501.51477	0.50342
1500.55041	0.50985
1499.58604	0.5161
1498.62168	0.52182
1497.65731	0.5267
1496.69295	0.53073
1495.72859	0.53375
1494.76422	0.53534
1493.79986	0.53542
1492.83549	0.53425
1491.87113	0.53219
1490.90677	0.52939
1489.9424	0.52572
1488.97804	0.52113
1488.01367	0.51589
1487.04931	0.51017
1486.08495	0.50409
1485.12058	0.49787
1484.15622	0.49181
1483.19185	0.48628
1482.22749	0.48181
1481.26312	0.47859
1480.29876	0.47633
1479.3344	0.47479
1478.37003	0.47388
1477.40567	0.47358
1476.4413	0.47386
1475.47694	0.47461
1474.51258	0.47582
1473.54821	0.47744
1472.58385	0.47928
1471.61948	0.48124
1470.65512	0.48358
1469.69076	0.48645
1468.72639	0.48986
1467.76203	0.4937
1466.79766	0.49783
1465.8333	0.50215
1464.86894	0.50652
1463.90457	0.51064
1462.94021	0.51438
1461.97584	0.51768
1461.01148	0.52031
1460.04712	0.52194
1459.08275	0.522
1458.11839	0.51982
1457.15402	0.51496
1456.18966	0.50742
1455.2253	0.49767
1454.26093	0.48623
1453.29657	0.47359
1452.3322	0.46013
1451.36784	0.44617
1450.40348	0.43205
1449.43911	0.41815
1448.47475	0.40488
1447.51038	0.39263
1446.54602	0.38159
1445.58166	0.37192
1444.61729	0.36374
1443.65293	0.35717
1442.68856	0.35221
1441.7242	0.34875
1440.75984	0.3466
1439.79547	0.34564
1438.83111	0.34562
1437.86674	0.34622
1436.90238	0.34701
1435.93802	0.34756
1434.97365	0.34773
1434.00929	0.34769
1433.04492	0.34771
1432.08056	0.348
1431.1162	0.34862
1430.15183	0.34953
1429.18747	0.35065
1428.2231	0.35197
1427.25874	0.35347
1426.29438	0.35513
1425.33001	0.35688
1424.36565	0.35862
1423.40128	0.36027
1422.43692	0.36184
1421.47256	0.36332
1420.50819	0.36457
1419.54383	0.36535
1418.57946	0.36536
1417.6151	0.36445
1416.65074	0.36265
1415.68637	0.36014
1414.72201	0.35716
1413.75764	0.35397
1412.79328	0.35083
1411.82892	0.34805
1410.86455	0.34581
1409.90019	0.34417
1408.93582	0.34315
1407.97146	0.34286
1407.0071	0.34339
1406.04273	0.3448
1405.07837	0.34708
1404.114	0.35013
1403.14964	0.35393
1402.18528	0.3584
1401.22091	0.36338
1400.25655	0.36861
1399.29218	0.37383
1398.32782	0.37868
1397.36346	0.38278
1396.39909	0.38583
1395.43473	0.38765
1394.47036	0.3882
1393.506	0.38773
1392.54164	0.38658
1391.57727	0.38507
1390.61291	0.38334
1389.64854	0.38157
1388.68418	0.37993
1387.71982	0.37856
1386.75545	0.37758
1385.79109	0.37713
1384.82672	0.37741
1383.86236	0.37859
1382.898	0.38074
1381.93363	0.38392
1380.96927	0.38815
1380.0049	0.39343
1379.04054	0.3996
1378.07618	0.40638
1377.11181	0.41343
1376.14745	0.42043
1375.18308	0.427
1374.21872	0.43278
1373.25436	0.43749
1372.28999	0.44099
1371.32563	0.44331
1370.36126	0.44452
1369.3969	0.44463
1368.43254	0.44355
1367.46817	0.44129
1366.50381	0.43795
1365.53944	0.4337
1364.57508	0.42865
1363.61072	0.42292
1362.64635	0.41655
1361.68199	0.40961
1360.71762	0.40234
1359.75326	0.39503
1358.7889	0.38796
1357.82453	0.38136
1356.86017	0.37541
1355.8958	0.37023
1354.93144	0.36589
1353.96708	0.36242
1353.00271	0.35984
1352.03835	0.35813
1351.07398	0.35727
1350.10962	0.35727
1349.14526	0.35813
1348.18089	0.3598
1347.21653	0.36216
1346.25216	0.36509
1345.2878	0.3685
1344.32344	0.37228
1343.35907	0.37633
1342.39471	0.38048
1341.43034	0.38447
1340.46598	0.388
1339.50161	0.39076
1338.53725	0.39269
1337.57289	0.39397
1336.60852	0.39476
1335.64416	0.39516
1334.67979	0.39527
1333.71543	0.39519
1332.75107	0.39502
1331.7867	0.39487
1330.82234	0.39481
1329.85797	0.39491
1328.89361	0.39524
1327.92925	0.39582
1326.96488	0.39669
1326.00052	0.39785
1325.03615	0.39931
1324.07179	0.40105
1323.10743	0.40302
1322.14306	0.40515
1321.1787	0.40732
1320.21433	0.4094
1319.24997	0.4112
1318.28561	0.41255
1317.32124	0.41332
1316.35688	0.41351
1315.39251	0.41321
1314.42815	0.41252
1313.46379	0.41151
1312.49942	0.41019
1311.53506	0.40862
1310.57069	0.4069
1309.60633	0.40511
1308.64197	0.40332
1307.6776	0.40158
1306.71324	0.39997
1305.74887	0.39857
1304.78451	0.39747
1303.82015	0.39672
1302.85578	0.39636
1301.89142	0.3964
1300.92705	0.39684
1299.96269	0.39768
1298.99833	0.39886
1298.03396	0.40036
1297.0696	0.40207
1296.10523	0.40393
1295.14087	0.40587
1294.17651	0.40783
1293.21214	0.40974
1292.24778	0.41147
1291.28341	0.41294
1290.31905	0.41401
1289.35469	0.41461
1288.39032	0.41467
1287.42596	0.41411
1286.46159	0.4129
1285.49723	0.411
1284.53287	0.40844
1283.5685	0.40525
1282.60414	0.40144
1281.63977	0.39707
1280.67541	0.39219
1279.71105	0.38692
1278.74668	0.38137
1277.78232	0.37567
1276.81795	0.36997
1275.85359	0.3644
1274.88923	0.35912
1273.92486	0.35423
1272.9605	0.34987
1271.99613	0.34611
1271.03177	0.34305
1270.06741	0.34078
1269.10304	0.33938
1268.13868	0.33895
1267.17431	0.33954
1266.20995	0.34121
1265.24559	0.34397
1264.28122	0.34785
1263.31686	0.35283
1262.35249	0.35888
1261.38813	0.36593
1260.42377	0.37387
1259.4594	0.38256
1258.49504	0.39188
1257.53067	0.40167
1256.56631	0.41178
1255.60195	0.42199
1254.63758	0.43208
1253.67322	0.44181
1252.70885	0.45092
1251.74449	0.45918
1250.78013	0.46636
1249.81576	0.47227
1248.8514	0.47676
1247.88703	0.47975
1246.92267	0.48119
1245.95831	0.4811
1244.99394	0.47952
1244.02958	0.4765
1243.06521	0.47215
1242.10085	0.4666
1241.13649	0.45999
1240.17212	0.45251
1239.20776	0.44433
1238.24339	0.43568
1237.27903	0.42676
1236.31467	0.41779
1235.3503	0.40896
1234.38594	0.40044
1233.42157	0.39238
1232.45721	0.38488
1231.49285	0.37804
1230.52848	0.37195
1229.56412	0.36666
1228.59975	0.36224
1227.63539	0.35873
1226.67103	0.35619
1225.70666	0.35465
1224.7423	0.35409
1223.77793	0.35453
1222.81357	0.35595
1221.84921	0.35832
1220.88484	0.36162
1219.92048	0.36581
1218.95611	0.37089
1217.99175	0.37687
1217.02739	0.38373
1216.06302	0.39146
1215.09866	0.40002
1214.13429	0.40933
1213.16993	0.41928
1212.20557	0.42973
1211.2412	0.44051
1210.27684	0.45144
1209.31247	0.46232
1208.34811	0.47296
1207.38375	0.48316
1206.41938	0.49272
1205.45502	0.50148
1204.49065	0.50928
1203.52629	0.516
1202.56193	0.52153
1201.59756	0.52582
1200.6332	0.52885
1199.66883	0.53072
1198.70447	0.53155
1197.7401	0.53155
1196.77574	0.53097
1195.81138	0.53008
1194.84701	0.52915
1193.88265	0.52844
1192.91828	0.52816
1191.95392	0.52847
1190.98956	0.52949
1190.02519	0.53129
1189.06083	0.53391
1188.09646	0.53735
1187.1321	0.5416
1186.16774	0.54657
1185.20337	0.55221
1184.23901	0.55843
1183.27464	0.56513
1182.31028	0.57222
1181.34592	0.57962
1180.38155	0.58729
1179.41719	0.59522
1178.45282	0.60343
1177.48846	0.61198
1176.5241	0.62095
1175.55973	0.63044
1174.59537	0.64052
1173.631	0.65125
1172.66664	0.66265
1171.70228	0.6747
1170.73791	0.68735
1169.77355	0.70048
1168.80918	0.71396
1167.84482	0.72759
1166.88046	0.74116
1165.91609	0.75444
1164.95173	0.76717
1163.98736	0.77909
1163.023	0.78993
1162.05864	0.79944
1161.09427	0.8074
1160.12991	0.81362
1159.16554	0.81795
1158.20118	0.82031
1157.23682	0.82068
1156.27245	0.8191
1155.30809	0.81565
1154.34372	0.81047
1153.37936	0.80377
1152.415	0.79578
1151.45063	0.78681
1150.48627	0.77717
1149.5219	0.76722
1148.55754	0.75729
1147.59318	0.74773
1146.62881	0.73887
1145.66445	0.73101
1144.70008	0.7244
1143.73572	0.71927
1142.77136	0.71577
1141.80699	0.714
1140.84263	0.71401
1139.87826	0.71575
1138.9139	0.71911
1137.94954	0.72393
1136.98517	0.73
1136.02081	0.73712
1135.05644	0.74505
1134.09208	0.75362
1133.12772	0.76269
1132.16335	0.7722
1131.19899	0.78217
1130.23462	0.79265
1129.27026	0.8037
1128.3059	0.8154
1127.34153	0.82782
1126.37717	0.841
1125.4128	0.85493
1124.44844	0.86954
1123.48408	0.88475
1122.51971	0.90039
1121.55535	0.91622
1120.59098	0.93193
1119.62662	0.94713
1118.66226	0.96136
1117.69789	0.97411
1116.73353	0.98483
1115.76916	0.99301
1114.8048	0.99818
1113.84044	1
1112.87607	0.99827
1111.91171	0.99294
1110.94734	0.98415
1109.98298	0.97221
1109.01862	0.95753
1108.05425	0.94063
1107.08989	0.92209
1106.12552	0.90251
1105.16116	0.88248
1104.1968	0.86258
1103.23243	0.84336
1102.26807	0.82533
1101.3037	0.8089
1100.33934	0.79441
1099.37498	0.7821
1098.41061	0.77209
1097.44625	0.76438
1096.48188	0.75887
1095.51752	0.75534
1094.55316	0.75352
1093.58879	0.75308
1092.62443	0.75367
1091.66006	0.75495
1090.6957	0.75658
1089.73134	0.75827
1088.76697	0.75976
1087.80261	0.76085
1086.83824	0.76136
1085.87388	0.76119
1084.90952	0.76027
1083.94515	0.75858
1082.98079	0.75616
1082.01642	0.75309
1081.05206	0.74951
1080.0877	0.7456
1079.12333	0.74155
1078.15897	0.7376
1077.1946	0.73396
1076.23024	0.73085
1075.26588	0.72845
1074.30151	0.72692
1073.33715	0.72637
1072.37278	0.72684
1071.40842	0.72837
1070.44406	0.7309
1069.47969	0.73436
1068.51533	0.73864
1067.55096	0.74359
1066.5866	0.74906
1065.62224	0.75489
1064.65787	0.76094
1063.69351	0.76704
1062.72914	0.77308
1061.76478	0.77894
1060.80042	0.78455
1059.83605	0.78986
1058.87169	0.79484
1057.90732	0.79947
1056.94296	0.80377
1055.97859	0.80776
1055.01423	0.81145
1054.04987	0.81489
1053.0855	0.81811
1052.12114	0.82116
1051.15677	0.82407
1050.19241	0.82693
1049.22805	0.82978
1048.26368	0.83272
1047.29932	0.83581
1046.33495	0.83916
1045.37059	0.84286
1044.40623	0.847
1043.44186	0.85165
1042.4775	0.85692
1041.51313	0.86287
1040.54877	0.86956
1039.58441	0.87699
1038.62004	0.88514
1037.65568	0.89395
1036.69131	0.90327
1035.72695	0.91294
1034.76259	0.92271
1033.79822	0.93231
1032.83386	0.94141
1031.86949	0.94971
1030.90513	0.95689
1029.94077	0.96269
1028.9764	0.96687
1028.01204	0.96927
1027.04767	0.9698
1026.08331	0.96841
1025.11895	0.96515
1024.15458	0.96011
1023.19022	0.95348
1022.22585	0.94548
1021.26149	0.93639
1020.29713	0.92653
1019.33276	0.91623
1018.3684	0.90581
1017.40403	0.89555
1016.43967	0.88569
1015.47531	0.87641
1014.51094	0.86783
1013.54658	0.86001
1012.58221	0.85298
1011.61785	0.8467
1010.65349	0.84112
1009.68912	0.83617
1008.72476	0.83179
1007.76039	0.82796
1006.79603	0.82464
1005.83167	0.82181
1004.8673	0.81945
1003.90294	0.81755
1002.93857	0.81613
1001.97421	0.81522
1001.00985	0.81488
1000.04548	0.81517
999.08112	0.81619
998.11675	0.81802
997.15239	0.8207
996.18803	0.82421
995.22366	0.82848
994.2593	0.8334
993.29493	0.83878
992.33057	0.84437
991.36621	0.84991
990.40184	0.85507
989.43748	0.85958
988.47311	0.86313
987.50875	0.86545
986.54439	0.8663
985.58002	0.86545
984.61566	0.8627
983.65129	0.85787
982.68693	0.85079
981.72257	0.84132
980.7582	0.82942
979.79384	0.8151
978.82947	0.79847
977.86511	0.77971
976.90075	0.75906
975.93638	0.7368
974.97202	0.71324
974.00765	0.68866
973.04329	0.66335
972.07893	0.63759
971.11456	0.61163
970.1502	0.58574
969.18583	0.56017
968.22147	0.53518
967.25711	0.51102
966.29274	0.48797
965.32838	0.4663
964.36401	0.44622
963.39965	0.42793
962.43529	0.41158
961.47092	0.39726
960.50656	0.38501
959.54219	0.37483
958.57783	0.36666
957.61347	0.36045
956.6491	0.35609
955.68474	0.35342
954.72037	0.35227
953.75601	0.35238
952.79165	0.35348
951.82728	0.35526
950.86292	0.3574
949.89855	0.3596
948.93419	0.36157
947.96983	0.36308
947.00546	0.36394
946.0411	0.36403
945.07673	0.3633
944.11237	0.36175
943.14801	0.3594
942.18364	0.35634
941.21928	0.35268
940.25491	0.34856
939.29055	0.34413
938.32619	0.33953
937.36182	0.33492
936.39746	0.33042
935.43309	0.32613
934.46873	0.3221
933.50437	0.31836
932.54	0.31486
931.57564	0.31156
930.61127	0.30835
929.64691	0.30513
928.68255	0.30176
927.71818	0.29812
926.75382	0.29412
925.78945	0.28966
924.82509	0.28471
923.86073	0.27921
922.89636	0.27317
921.932	0.2666
920.96763	0.25953
920.00327	0.25201
919.03891	0.24412
918.07454	0.23593
917.11018	0.22754
916.14581	0.21903
915.18145	0.2105
914.21708	0.20201
913.25272	0.19363
912.28836	0.18542
911.32399	0.17742
910.35963	0.16965
909.39526	0.16214
908.4309	0.1549
907.46654	0.14795
906.50217	0.14128
905.53781	0.13489
904.57344	0.12879
903.60908	0.12297
902.64472	0.11745
901.68035	0.11221
900.71599	0.10726
899.75162	0.10256
898.78726	0.09809
897.8229	0.09383
896.85853	0.08974
895.89417	0.08577
894.9298	0.08187
893.96544	0.078
893.00108	0.07413
892.03671	0.07022
891.07235	0.06626
890.10798	0.06223
889.14362	0.05814
888.17926	0.05402
887.21489	0.04993
886.25053	0.04593
885.28616	0.04211
884.3218	0.0386
883.35744	0.03551
882.39307	0.033
881.42871	0.03118
880.46434	0.03015
879.49998	0.03002
878.53562	0.03085
877.57125	0.0327
876.60689	0.03558
875.64252	0.0395
874.67816	0.04442
873.7138	0.05032
872.74943	0.05711
871.78507	0.06468
870.8207	0.07291
869.85634	0.08163
868.89198	0.09067
867.92761	0.09986
866.96325	0.10897
865.99888	0.11783
865.03452	0.12627
864.07016	0.13415
863.10579	0.14136
862.14143	0.14785
861.17706	0.15357
860.2127	0.1585
859.24834	0.16264
858.28397	0.166
857.31961	0.16859
856.35524	0.17044
855.39088	0.1716
854.42652	0.17215
853.46215	0.17217
852.49779	0.17174
851.53342	0.17093
850.56906	0.1698
849.6047	0.16838
848.64033	0.16669
847.67597	0.16471
846.7116	0.16242
845.74724	0.15977
844.78288	0.15671
843.81851	0.1532
842.85415	0.14917
841.88978	0.14461
840.92542	0.13949
839.96106	0.13386
838.99669	0.12772
838.03233	0.12113
837.06796	0.11411
836.1036	0.10676
835.13924	0.09915
834.17487	0.09136
833.21051	0.08351
832.24614	0.07569
831.28178	0.06804
830.31742	0.06065
829.35305	0.05361
828.38869	0.04699
827.42432	0.04083
826.45996	0.03519
825.4956	0.03007
824.53123	0.02549
823.56687	0.02142
822.6025	0.01782
821.63814	0.01466
820.67378	0.01191
819.70941	0.00953
818.74505	0.00748
817.78068	0.00573
816.81632	0.00428
815.85196	0.0031
814.88759	0.00219
813.92323	0.00152
812.95886	0.00109
811.9945	8.71242E-4
811.03014	8.71602E-4
810.06577	0.00107
809.10141	0.00145
808.13704	0.00198
807.17268	0.00265
806.20832	0.00342
805.24395	0.00429
804.27959	0.00521
803.31522	0.00616
802.35086	0.00713
801.3865	0.00808
800.42213	0.00899
799.45777	0.00983
798.4934	0.01058
797.52904	0.01127
796.56468	0.0119
795.60031	0.0125
794.63595	0.01307
793.67158	0.01362
792.70722	0.01417
791.74286	0.01474
790.77849	0.01532
789.81413	0.01591
788.84976	0.01657
787.8854	0.01734
786.92104	0.01825
785.95667	0.01935
784.99231	0.02065
784.02794	0.02219
783.06358	0.02402
782.09922	0.02615
781.13485	0.02863
780.17049	0.03147
779.20612	0.03469
778.24176	0.03833
777.2774	0.04239
776.31303	0.04686
775.34867	0.05174
774.3843	0.05702
773.41994	0.06268
772.45557	0.06865
771.49121	0.07486
770.52685	0.0812
769.56248	0.08758
768.59812	0.09391
767.63375	0.10009
766.66939	0.10604
765.70503	0.11166
764.74066	0.11688
763.7763	0.1216
762.81193	0.12572
761.84757	0.12914
760.88321	0.1318
759.91884	0.13366
758.95448	0.1347
757.99011	0.13496
757.02575	0.13445
756.06139	0.13321
755.09702	0.13131
754.13266	0.12884
753.16829	0.1259
752.20393	0.12262
751.23957	0.11911
750.2752	0.11552
749.31084	0.11197
748.34647	0.10859
747.38211	0.10546
746.41775	0.10269
745.45338	0.10036
744.48902	0.09854
743.52465	0.09727
742.56029	0.09659
741.59593	0.09648
740.63156	0.09691
739.6672	0.09785
738.70283	0.09923
737.73847	0.10098
736.77411	0.10303
735.80974	0.1053
734.84538	0.10768
733.88101	0.1101
732.91665	0.11247
731.95229	0.11471
730.98792	0.11681
730.02356	0.11873
729.05919	0.12047
728.09483	0.12203
727.13047	0.12341
726.1661	0.12463
725.20174	0.12571
724.23737	0.12668
723.27301	0.12762
722.30865	0.1286
721.34428	0.12971
720.37992	0.13101
719.41555	0.13254
718.45119	0.13432
717.48683	0.13633
716.52246	0.13856
715.5581	0.14099
714.59373	0.14364
713.62937	0.14652
712.66501	0.14968
711.70064	0.15317
710.73628	0.15698
709.77191	0.1611
708.80755	0.16549
707.84319	0.17009
706.87882	0.17481
705.91446	0.17956
704.95009	0.18419
703.98573	0.18857
703.02137	0.19259
702.057	0.19612
701.09264	0.19905
700.12827	0.20127
699.16391	0.20267
698.19955	0.20312
697.23518	0.20251
696.27082	0.20073
695.30645	0.19773
694.34209	0.19352
693.37773	0.18819
692.41336	0.18196
691.449	0.17508
690.48463	0.16779
689.52027	0.16036
688.55591	0.15305
687.59154	0.14609
686.62718	0.13967
685.66281	0.13394
684.69845	0.12903
683.73409	0.12503
682.76972	0.12197
681.80536	0.11984
680.84099	0.1186
679.87663	0.11819
678.91227	0.11854
677.9479	0.11954
676.98354	0.12104
676.01917	0.1229
675.05481	0.12498
674.09045	0.12713
673.12608	0.12925
672.16172	0.13122
671.19735	0.13299
670.23299	0.13458
669.26863	0.13595
668.30426	0.13706
667.3399	0.13791
666.37553	0.13859
665.41117	0.13916
664.44681	0.13965
663.48244	0.14006
662.51808	0.14038
661.55371	0.14061
660.58935	0.14073
659.62499	0.14074
658.66062	0.1406
657.69626	0.1403
656.73189	0.13984
655.76753	0.13924
654.80317	0.13852
653.8388	0.13767
652.87444	0.13671
651.91007	0.13565
650.94571	0.1345
649.98135	0.13328
649.01698	0.132
648.05262	0.13067
647.08825	0.12929
646.12389	0.12788
645.15953	0.1265
644.19516	0.12521
643.2308	0.1241
642.26643	0.12319
641.30207	0.12249
640.33771	0.12201
639.37334	0.12174
638.40898	0.12165
637.44461	0.12175
636.48025	0.12207
635.51589	0.12261
634.55152	0.12338
633.58716	0.12439
632.62279	0.12569
631.65843	0.12729
630.69406	0.1292
629.7297	0.13142
628.76534	0.13394
627.80097	0.13676
626.83661	0.13989
625.87224	0.14326
624.90788	0.1468
623.94352	0.15048
622.97915	0.15429
622.01479	0.15819
621.05042	0.1621
620.08606	0.16595
619.1217	0.16968
618.15733	0.17323
617.19297	0.17653
616.2286	0.17948
615.26424	0.18205
614.29988	0.18423
613.33551	0.18602
612.37115	0.18744
611.40678	0.18849
610.44242	0.1892
609.47806	0.18962
608.51369	0.18984
607.54933	0.18991
606.58496	0.18989
605.6206	0.18983
604.65624	0.18982
603.69187	0.18993
602.72751	0.1902
601.76314	0.19066
600.79878	0.19136
599.83442	0.19235
598.87005	0.19363
597.90569	0.19524
596.94132	0.19716
595.97696	0.19941
595.0126	0.20197
594.04823	0.20485
593.08387	0.208
592.1195	0.21135
591.15514	0.21478
590.19078	0.21822
589.22641	0.22162
588.26205	0.22493
587.29768	0.22805
586.33332	0.23091
585.36896	0.23343
584.40459	0.23555
583.44023	0.23719
582.47586	0.23829
581.5115	0.23877
580.54714	0.23858
579.58277	0.23767
578.61841	0.23604
577.65404	0.2337
576.68968	0.23068
575.72532	0.22705
574.76095	0.22292
573.79659	0.21844
572.83222	0.21369
571.86786	0.20877
570.9035	0.20378
569.93913	0.1988
568.97477	0.19388
568.0104	0.18902
567.04604	0.18434
566.08168	0.17996
565.11731	0.17596
564.15295	0.17239
563.18858	0.16923
562.22422	0.16648
561.25986	0.16415
560.29549	0.16223
559.33113	0.16064
558.36676	0.15929
557.4024	0.15811
556.43804	0.15709
555.47367	0.15621
554.50931	0.15541
553.54494	0.15463
552.58058	0.15388
551.61622	0.15319
550.65185	0.15257
549.68749	0.15193
548.72312	0.15121
547.75876	0.15036
546.7944	0.14939
545.83003	0.1483
544.86567	0.14712
543.9013	0.14594
542.93694	0.14487
541.97258	0.14401
541.00821	0.14334
540.04385	0.14282
539.07948	0.14243
538.11512	0.14223
537.15076	0.14228
536.18639	0.14259
535.22203	0.14314
534.25766	0.14393
533.2933	0.14497
532.32894	0.14624
531.36457	0.14769
530.40021	0.14924
529.43584	0.15078
528.47148	0.15225
527.50712	0.15356
526.54275	0.15458
525.57839	0.15516
524.61402	0.15519
523.64966	0.1547
522.6853	0.15378
521.72093	0.15247
520.75657	0.1508
519.7922	0.14878
518.82784	0.1464
517.86348	0.1437
516.89911	0.14071
515.93475	0.13751
514.97038	0.13425
514.00602	0.13111
513.04166	0.12814
512.07729	0.12539
511.11293	0.12291
510.14856	0.12073
509.1842	0.11893
508.21984	0.11753
507.25547	0.11645
506.29111	0.11558
505.32674	0.11488
504.36238	0.11437
503.39802	0.11399
502.43365	0.11364
501.46929	0.11327
500.50492	0.11295
499.54056	0.11273
498.5762	0.11257
497.61183	0.11236
496.64747	0.11204
495.6831	0.11159
494.71874	0.11092
493.75437	0.10995
492.79001	0.10868
491.82565	0.10715
490.86128	0.10536
489.89692	0.10339
488.93255	0.10131
487.96819	0.09919
487.00383	0.09707
486.03946	0.09505
485.0751	0.09316
484.11073	0.09136
483.14637	0.08959
482.18201	0.08798
481.21764	0.08664
480.25328	0.08551
479.28891	0.08449
478.32455	0.08353
477.36019	0.08272
476.39582	0.08211
475.43146	0.08163
474.46709	0.08119
473.50273	0.08071
472.53837	0.08008
471.574	0.07923
470.60964	0.07826
469.64527	0.07722
468.68091	0.07606
467.71655	0.0748
466.75218	0.07356
465.78782	0.07239
464.82345	0.0712
463.85909	0.06993
462.89473	0.06863
461.93036	0.06733
460.966	0.06603
460.00163	0.0647
459.03727	0.06337
458.07291	0.06191
457.10854	0.06014
456.14418	0.05808
455.17981	0.0559
454.21545	0.05373
453.25109	0.05159
452.28672	0.04945
451.32236	0.04736
450.35799	0.04541
449.39363	0.04368
448.42927	0.04222
447.4649	0.04104
446.50054	0.04003
445.53617	0.03912
444.57181	0.03837
443.60745	0.03784
442.64308	0.03752
441.67872	0.03715
440.71435	0.03643
439.74999	0.0354
438.78563	0.03425
437.82126	0.03319
436.8569	0.03234
435.89253	0.03173
434.92817	0.03139
433.96381	0.03146
432.99944	0.03215
432.03508	0.03355
431.07071	0.03555
430.10635	0.03806
429.14199	0.04103
428.17762	0.04442
427.21326	0.0481
426.24889	0.05183
425.28453	0.0554
424.32017	0.05866
423.3558	0.06152
422.39144	0.06341
421.42707	0.06429
420.46271	0.06407
419.49835	0.06263
418.53398	0.05982
417.56962	0.05571
416.60525	0.05077
415.64089	0.0454
414.67653	0.03984
413.71216	0.03427
412.7478	0.02885
411.78343	0.0238
410.81907	0.02121
409.85471	0.01902
408.89034	0.01722
407.92598	0.01581
406.96161	0.0148
405.99725	0.01418
405.03289	0.01396
404.06852	0.01413
403.10416	0.01469
402.13979	0.01565
401.17543	0.017
400.21107	0.01875