401	0.09963
402	0.08771
403	0.06267
404	0.04004
405	0.02708
406	0.01966
407	0.02056
408	0.02409
409	0.01788
410	0.01521
411	0.02064
412	0.02406
413	0.02271
414	0.02199
415	0.02675
416	0.03698
417	0.04483
418	0.04257
419	0.03454
420	0.03184
421	0.031
422	0.02618
423	0.01981
424	0.01664
425	0.02057
426	0.02702
427	0.02748
428	0.02328
429	0.02174
430	0.02496
431	0.02851
432	0.03035
433	0.03245
434	0.03579
435	0.03962
436	0.04055
437	0.03859
438	0.03861
439	0.04262
440	0.047
441	0.04649
442	0.04209
443	0.04063
444	0.04389
445	0.04621
446	0.04622
447	0.04963
448	0.05755
449	0.06389
450	0.0649
451	0.06346
452	0.06513
453	0.06874
454	0.06663
455	0.05942
456	0.05361
457	0.05225
458	0.05449
459	0.0552
460	0.05283
461	0.05114
462	0.05396
463	0.05899
464	0.05912
465	0.05424
466	0.05176
467	0.05446
468	0.05814
469	0.05877
470	0.05658
471	0.05496
472	0.05591
473	0.05723
474	0.05752
475	0.05995
476	0.06609
477	0.07273
478	0.07522
479	0.07386
480	0.07384
481	0.07826
482	0.08305
483	0.08204
484	0.07679
485	0.07533
486	0.07985
487	0.08473
488	0.08376
489	0.07932
490	0.07868
491	0.08259
492	0.08521
493	0.08375
494	0.08211
495	0.08353
496	0.08643
497	0.08795
498	0.08783
499	0.08806
500	0.08985
501	0.09125
502	0.08985
503	0.08758
504	0.08731
505	0.08924
506	0.09175
507	0.09152
508	0.08878
509	0.08845
510	0.09226
511	0.09679
512	0.09824
513	0.09873
514	0.10245
515	0.10788
516	0.11013
517	0.10873
518	0.10829
519	0.11263
520	0.11912
521	0.12254
522	0.12243
523	0.12371
524	0.12911
525	0.13482
526	0.13536
527	0.13222
528	0.13166
529	0.13458
530	0.13685
531	0.13571
532	0.13338
533	0.13409
534	0.13762
535	0.13908
536	0.13532
537	0.12925
538	0.12667
539	0.12833
540	0.12788
541	0.122
542	0.11662
543	0.11656
544	0.11849
545	0.1175
546	0.11411
547	0.11316
548	0.11672
549	0.12117
550	0.12225
551	0.12043
552	0.11992
553	0.12272
554	0.12703
555	0.12982
556	0.13065
557	0.13248
558	0.13735
559	0.14276
560	0.14599
561	0.14877
562	0.1549
563	0.1653
564	0.17659
565	0.18514
566	0.19245
567	0.20325
568	0.21762
569	0.23035
570	0.2385
571	0.24275
572	0.24572
573	0.24786
574	0.2466
575	0.24141
576	0.23489
577	0.23033
578	0.22804
579	0.22468
580	0.21825
581	0.21048
582	0.20347
583	0.19662
584	0.18836
585	0.17942
586	0.17238
587	0.16839
588	0.16587
589	0.16258
590	0.15878
591	0.15607
592	0.1556
593	0.15633
594	0.15604
595	0.15516
596	0.15624
597	0.15894
598	0.16139
599	0.16287
600	0.16422
601	0.16689
602	0.17085
603	0.1739
604	0.1749
605	0.17558
606	0.17753
607	0.17954
608	0.17924
609	0.17632
610	0.17255
611	0.16913
612	0.16594
613	0.16264
614	0.1589
615	0.15438
616	0.14763
617	0.13893
618	0.13298
619	0.13202
620	0.13242
621	0.13119
622	0.12846
623	0.12548
624	0.12266
625	0.12033
626	0.11907
627	0.11768
628	0.11573
629	0.11444
630	0.11368
631	0.1125
632	0.11078
633	0.10921
634	0.10844
635	0.10835
636	0.10768
637	0.10584
638	0.10414
639	0.10364
640	0.10363
641	0.10281
642	0.10117
643	0.09982
644	0.09915
645	0.09818
646	0.09599
647	0.09253
648	0.08933
649	0.08909
650	0.09099
651	0.09126
652	0.09038
653	0.0906
654	0.09155
655	0.09135
656	0.0901
657	0.08946
658	0.09038
659	0.0922
660	0.09332
661	0.0928
662	0.09231
663	0.09431
664	0.09782
665	0.09864
666	0.0928
667	0.07261
668	0.03541
669	0.03443
670	0.06063
671	0.07944
672	0.08716
673	0.08944
674	0.08896
675	0.08621
676	0.08301
677	0.08253
678	0.08487
679	0.08616
680	0.08394
681	0.08088
682	0.08125
683	0.08439
684	0.0862
685	0.08536
686	0.08455
687	0.08608
688	0.08875
689	0.09015
690	0.09016
691	0.09072
692	0.09333
693	0.09684
694	0.09859
695	0.09836
696	0.09906
697	0.1027
698	0.10761
699	0.11062
700	0.11151
701	0.11346
702	0.11887
703	0.12527
704	0.12867
705	0.12937
706	0.13105
707	0.13513
708	0.13917
709	0.14045
710	0.13907
711	0.13776
712	0.13791
713	0.13703
714	0.13277
715	0.12685
716	0.12265
717	0.12043
718	0.11673
719	0.10892
720	0.1008
721	0.09917
722	0.10267
723	0.10407
724	0.10134
725	0.09775
726	0.09637
727	0.09662
728	0.09536
729	0.09111
730	0.0867
731	0.08584
732	0.08699
733	0.08559
734	0.08126
735	0.07794
736	0.07818
737	0.07982
738	0.07938
739	0.0769
740	0.07572
741	0.07805
742	0.08201
743	0.08403
744	0.08422
745	0.08634
746	0.09169
747	0.09697
748	0.0989
749	0.09848
750	0.09924
751	0.10192
752	0.10352
753	0.10185
754	0.09923
755	0.09957
756	0.10307
757	0.10639
758	0.10683
759	0.10591
760	0.10651
761	0.1083
762	0.10772
763	0.10273
764	0.09593
765	0.09139
766	0.08919
767	0.08617
768	0.08145
769	0.07773
770	0.07702
771	0.07776
772	0.07651
773	0.07236
774	0.0682
775	0.0665
776	0.06574
777	0.0628
778	0.05763
779	0.05365
780	0.05307
781	0.0536
782	0.05158
783	0.0472
784	0.04454
785	0.04538
786	0.04622
787	0.04387
788	0.04013
789	0.03883
790	0.04046
791	0.04195
792	0.0407
793	0.03843
794	0.0388
795	0.04185
796	0.04393
797	0.04318
798	0.04193
799	0.04294
800	0.04547
801	0.04625
802	0.04425
803	0.0426
804	0.04414
805	0.04703
806	0.04743
807	0.04461
808	0.04207
809	0.04271
810	0.04465
811	0.04399
812	0.04063
813	0.03893
814	0.04061
815	0.04221
816	0.03978
817	0.03418
818	0.03025
819	0.03034
820	0.03123
821	0.02869
822	0.02361
823	0.02063
824	0.02151
825	0.02253
826	0.02029
827	0.0166
828	0.0159
829	0.0189
830	0.02163
831	0.02086
832	0.01893
833	0.02026
834	0.02509
835	0.02902
836	0.02919
837	0.02848
838	0.03141
839	0.03755
840	0.04153
841	0.0409
842	0.03959
843	0.04184
844	0.04647
845	0.04843
846	0.04598
847	0.04327
848	0.04421
849	0.04706
850	0.04743
851	0.04499
852	0.04386
853	0.04691
854	0.05139
855	0.05232
856	0.04939
857	0.04726
858	0.04908
859	0.05238
860	0.05285
861	0.05039
862	0.0495
863	0.05297
864	0.05708
865	0.0562
866	0.05038
867	0.04537
868	0.0442
869	0.04317
870	0.03795
871	0.03035
872	0.02597
873	0.02642
874	0.02736
875	0.02481
876	0.02041
877	0.01871
878	0.02069
879	0.0221
880	0.01953
881	0.01519
882	0.01385
883	0.01631
884	0.01827
885	0.01644
886	0.01317
887	0.01311
888	0.01626
889	0.01792
890	0.01535
891	0.01181
892	0.0122
893	0.01592
894	0.01733
895	0.01466
896	0.01224
897	0.01414
898	0.01888
899	0.02154
900	0.0204
901	0.01892
902	0.02091
903	0.02491
904	0.02608
905	0.02326
906	0.02068
907	0.02162
908	0.02414
909	0.02448
910	0.02234
911	0.02136
912	0.02421
913	0.02877
914	0.03057
915	0.02939
916	0.02948
917	0.0335
918	0.03866
919	0.0405
920	0.03928
921	0.03966
922	0.04365
923	0.04804
924	0.0492
925	0.04795
926	0.04863
927	0.05283
928	0.05724
929	0.05897
930	0.05971
931	0.06336
932	0.0704
933	0.07744
934	0.08184
935	0.08515
936	0.09048
937	0.09764
938	0.10292
939	0.1039
940	0.10245
941	0.10191
942	0.10273
943	0.1024
944	0.09958
945	0.09743
946	0.10012
947	0.10751
948	0.11557
949	0.12168
950	0.12685
951	0.13215
952	0.13531
953	0.13231
954	0.12262
955	0.11067
956	0.10123
957	0.09481
958	0.08926
959	0.0841
960	0.08129
961	0.08217
962	0.08517
963	0.08741
964	0.08826
965	0.09025
966	0.09503
967	0.10068
968	0.10451
969	0.10702
970	0.11113
971	0.11818
972	0.12615
973	0.13281
974	0.13896
975	0.14742
976	0.15918
977	0.1721
978	0.18379
979	0.19451
980	0.20635
981	0.21967
982	0.23221
983	0.2417
984	0.2489
985	0.25623
986	0.26475
987	0.2735
988	0.28175
989	0.29091
990	0.30325
991	0.31902
992	0.33612
993	0.35301
994	0.37037
995	0.38925
996	0.40873
997	0.42627
998	0.43974
999	0.44885
1000	0.45427
1001	0.45622
1002	0.45457
1003	0.44983
1004	0.44453
1005	0.44179
1006	0.4423
1007	0.44478
1008	0.44867
1009	0.45456
1010	0.46283
1011	0.47293
1012	0.48413
1013	0.49721
1014	0.51432
1015	0.53716
1016	0.56513
1017	0.59619
1018	0.62916
1019	0.66425
1020	0.70147
1021	0.74031
1022	0.77999
1023	0.81977
1024	0.8591
1025	0.89605
1026	0.92736
1027	0.95039
1028	0.96583
1029	0.97733
1030	0.98772
1031	0.99605
1032	1
1033	0.99937
1034	0.99625
1035	0.99174
1036	0.98463
1037	0.97389
1038	0.96089
1039	0.9485
1040	0.93833
1041	0.92977
1042	0.9209
1043	0.91003
1044	0.89585
1045	0.87738
1046	0.85467
1047	0.83002
1048	0.80702
1049	0.78803
1050	0.77306
1051	0.76122
1052	0.75231
1053	0.7474
1054	0.74755
1055	0.75197
1056	0.75656
1057	0.75691
1058	0.75142
1059	0.73992
1060	0.72085
1061	0.69187
1062	0.65328
1063	0.60932
1064	0.56586
1065	0.52724
1066	0.4953
1067	0.47134
1068	0.45735
1069	0.45538
1070	0.46526
1071	0.48412
1072	0.50851
1073	0.53612
1074	0.56491
1075	0.59154
1076	0.61144
1077	0.62116
1078	0.62049
1079	0.61188
1080	0.59803
1081	0.58054
1082	0.56054
1083	0.54034
1084	0.52217
1085	0.50604
1086	0.49067
1087	0.47561
1088	0.46231
1089	0.45184
1090	0.4444
1091	0.43972
1092	0.4372
1093	0.43608
1094	0.43559
1095	0.43441
1096	0.43134
1097	0.42623
1098	0.41984
1099	0.41319
1100	0.40673
1101	0.3997
1102	0.39179
1103	0.38384
1104	0.37667
1105	0.37046
1106	0.36482
1107	0.35898
1108	0.35262
1109	0.34568
1110	0.33811
1111	0.32989
1112	0.32194
1113	0.31554
1114	0.31076
1115	0.30711
1116	0.30479
1117	0.30395
1118	0.30471
1119	0.30717
1120	0.31114
1121	0.31578
1122	0.32025
1123	0.32436
1124	0.32823
1125	0.33184
1126	0.33506
1127	0.33741
1128	0.33851
1129	0.33836
1130	0.33712
1131	0.33523
1132	0.33335
1133	0.33175
1134	0.33059
1135	0.3306
1136	0.33193
1137	0.33404
1138	0.33678
1139	0.34096
1140	0.34745
1141	0.35667
1142	0.36871
1143	0.38361
1144	0.40148
1145	0.42224
1146	0.44518
1147	0.4692
1148	0.49333
1149	0.51729
1150	0.5409
1151	0.56311
1152	0.58227
1153	0.59729
1154	0.60818
1155	0.61515
1156	0.61704
1157	0.6115
1158	0.59673
1159	0.57278
1160	0.54132
1161	0.50486
1162	0.46578
1163	0.42601
1164	0.3874
1165	0.35173
1166	0.31965
1167	0.29082
1168	0.26479
1169	0.24181
1170	0.22225
1171	0.20619
1172	0.19284
1173	0.18131
1174	0.17141
1175	0.16392
1176	0.15872
1177	0.15426
1178	0.1493
1179	0.14427
1180	0.14004
1181	0.13659
1182	0.1332
1183	0.1292
1184	0.12495
1185	0.12142
1186	0.11873
1187	0.11591
1188	0.11232
1189	0.10913
1190	0.1076
1191	0.10746
1192	0.10718
1193	0.10617
1194	0.10528
1195	0.10536
1196	0.10595
1197	0.10589
1198	0.10502
1199	0.10445
1200	0.10523
1201	0.10684
1202	0.10768
1203	0.10706
1204	0.10613
1205	0.10628
1206	0.10696
1207	0.107
1208	0.10663
1209	0.10723
1210	0.10944
1211	0.11229
1212	0.1145
1213	0.11587
1214	0.1175
1215	0.11993
1216	0.12217
1217	0.12294
1218	0.12264
1219	0.12289
1220	0.12403
1221	0.12459
1222	0.12334
1223	0.12084
1224	0.11851
1225	0.1169
1226	0.1151
1227	0.11232
1228	0.10927
1229	0.10724
1230	0.10647
1231	0.10578
1232	0.10428
1233	0.10278
1234	0.10268
1235	0.10422
1236	0.10612
1237	0.10739
1238	0.1083
1239	0.10985
1240	0.11166
1241	0.11202
1242	0.11038
1243	0.10817
1244	0.10703
1245	0.10681
1246	0.10573
1247	0.10302
1248	0.10023
1249	0.09869
1250	0.09795
1251	0.09656
1252	0.0941
1253	0.092
1254	0.09152
1255	0.09198
1256	0.09193
1257	0.09089
1258	0.09
1259	0.09039
1260	0.09136
1261	0.09129
1262	0.08993
1263	0.08872
1264	0.08874
1265	0.08908
1266	0.08842
1267	0.08695
1268	0.08636
1269	0.08755
1270	0.08927
1271	0.09002
1272	0.08998
1273	0.091
1274	0.09376
1275	0.09701
1276	0.09925
1277	0.1007
1278	0.10289
1279	0.10635
1280	0.1096
1281	0.11108
1282	0.11125
1283	0.11171
1284	0.11315
1285	0.11446
1286	0.1144
1287	0.1133
1288	0.11265
1289	0.11284
1290	0.11269
1291	0.11143
1292	0.11011
1293	0.11035
1294	0.11228
1295	0.11428
1296	0.11496
1297	0.115
1298	0.1161
1299	0.11854
1300	0.12079
1301	0.12184
1302	0.1226
1303	0.12406
1304	0.12571
1305	0.12581
1306	0.12422
1307	0.12269
1308	0.12275
1309	0.12389
1310	0.12445
1311	0.12378
1312	0.1232
1313	0.12398
1314	0.12555
1315	0.1263
1316	0.12595
1317	0.12587
1318	0.12709
1319	0.12914
1320	0.13061
1321	0.13138
1322	0.1326
1323	0.13488
1324	0.13729
1325	0.13825
1326	0.13796
1327	0.13804
1328	0.13921
1329	0.14037
1330	0.14017
1331	0.13881
1332	0.13787
1333	0.13808
1334	0.13815
1335	0.1366
1336	0.1339
1337	0.13191
1338	0.13166
1339	0.13207
1340	0.13183
1341	0.13124
1342	0.13121
1343	0.1317
1344	0.13155
1345	0.12986
1346	0.12746
1347	0.12617
1348	0.1263
1349	0.12632
1350	0.12525
1351	0.12397
1352	0.1242
1353	0.12613
1354	0.12798
1355	0.12875
1356	0.12987
1357	0.13326
1358	0.13893
1359	0.14522
1360	0.15107
1361	0.15753
1362	0.16564
1363	0.17521
1364	0.18353
1365	0.18795
1366	0.18979
1367	0.19115
1368	0.19211
1369	0.19159
1370	0.18944
1371	0.18699
1372	0.18524
1373	0.18367
1374	0.18078
1375	0.1772
1376	0.17515
1377	0.17501
1378	0.17541
1379	0.17485
1380	0.17349
1381	0.17341
1382	0.17575
1383	0.17885
1384	0.1798
1385	0.17757
1386	0.17356
1387	0.16918
1388	0.16486
1389	0.16062
1390	0.15638
1391	0.1534
1392	0.15299
1393	0.15413
1394	0.15485
1395	0.15533
1396	0.1571
1397	0.15979
1398	0.16167
1399	0.16159
1400	0.1609
1401	0.16148
1402	0.16309
1403	0.16402
1404	0.16237
1405	0.15861
1406	0.15645
1407	0.15678
1408	0.15692
1409	0.15522
1410	0.15235
1411	0.15008
1412	0.1488
1413	0.14695
1414	0.1433
1415	0.13882
1416	0.13534
1417	0.13331
1418	0.13109
1419	0.1263
1420	0.12115
1421	0.11965
1422	0.1199
1423	0.11854
1424	0.11457
1425	0.11068
1426	0.10901
1427	0.10839
1428	0.10694
1429	0.10363
1430	0.09974
1431	0.09817
1432	0.09838
1433	0.0979
1434	0.09603
1435	0.09409
1436	0.09277
1437	0.09315
1438	0.09394
1439	0.09313
1440	0.09188
1441	0.09192
1442	0.09297
1443	0.09313
1444	0.09189
1445	0.09098
1446	0.09182
1447	0.09365
1448	0.09483
1449	0.09512
1450	0.09548
1451	0.09618
1452	0.09645
1453	0.09553
1454	0.09374
1455	0.09208
1456	0.09171
1457	0.09321
1458	0.09437
1459	0.09448
1460	0.09518
1461	0.09641
1462	0.09663
1463	0.09436
1464	0.08932
1465	0.08211
1466	0.0771
1467	0.07411
1468	0.06942
1469	0.06308
1470	0.05732
1471	0.05294
1472	0.04827
1473	0.04273
1474	0.03865
1475	0.03711
1476	0.03751
1477	0.0391
1478	0.04054
1479	0.04155
1480	0.043
1481	0.04476
1482	0.04477
1483	0.04135
1484	0.03532
1485	0.02923
1486	0.02442
1487	0.01964
1488	0.01433
1489	0.00983
1490	0.00627
1491	0.00494
1492	0.00457
1493	0.00322
1494	0.00134
1495	6.09949E-5
1496	0
1497	6.70944E-4
1498	6.70944E-4
1499	1.58587E-4
1500	7.92934E-4
1501	0.00254
1502	0.00403
1503	0.00449
1504	0.00426
1505	0.00393
1506	0.00406
1507	0.00597
1508	0.00873
1509	0.01188
1510	0.01574
1511	0.01952
1512	0.02269
1513	0.02541
1514	0.02803
1515	0.03118
1516	0.03477
1517	0.03901
1518	0.04354
1519	0.04662
1520	0.04939
1521	0.05398
1522	0.06017
1523	0.0649
1524	0.0682
1525	0.07177
1526	0.07589
1527	0.07872
1528	0.0802
1529	0.08179
1530	0.08376
1531	0.08521
1532	0.0852
1533	0.08349
1534	0.08194
1535	0.08199
1536	0.08207
1537	0.08095
1538	0.07844
1539	0.07355
1540	0.06862
1541	0.06727
1542	0.065
1543	0.06211
1544	0.06047
1545	0.05891
1546	0.05723
1547	0.05529
1548	0.05269
1549	0.04976
1550	0.04715
1551	0.04506
1552	0.04294
1553	0.04018
1554	0.03711
1555	0.03494
1556	0.03389
1557	0.03219
1558	0.02776
1559	0.02297
1560	0.02314
1561	0.02504
1562	0.02557
1563	0.02528
1564	0.0252
1565	0.02575
1566	0.02603
1567	0.02535
1568	0.02376
1569	0.02186
1570	0.02112
1571	0.02128
1572	0.02042
1573	0.01886
1574	0.01775
1575	0.01696
1576	0.01535
1577	0.01359
1578	0.0135
1579	0.01416
1580	0.01481
1581	0.01487
1582	0.01433
1583	0.01408
1584	0.01483
1585	0.01604
1586	0.01672
1587	0.0168
1588	0.01737
1589	0.01909
1590	0.02136
1591	0.02325
1592	0.02478
1593	0.02679
1594	0.02985
1595	0.03363
1596	0.03713
1597	0.04044
1598	0.04418
1599	0.04888
1600	0.05392
1601	0.0586
1602	0.06304
1603	0.06812
1604	0.07415
1605	0.08024
1606	0.08589
1607	0.09143
1608	0.09736
1609	0.10392
1610	0.11096
1611	0.11761
1612	0.1238
1613	0.13041
1614	0.1374
1615	0.14377
1616	0.15007
1617	0.15901
1618	0.16787
1619	0.17531
1620	0.18262
1621	0.18956
1622	0.19571
1623	0.20293
1624	0.21314
1625	0.22164
1626	0.22782
1627	0.23321
1628	0.23942
1629	0.24587
1630	0.25092
1631	0.25457
1632	0.2575
1633	0.26024
1634	0.26225
1635	0.26244
1636	0.26153
1637	0.26196
1638	0.26314
1639	0.26374
1640	0.2633
1641	0.26173
1642	0.25945
1643	0.25714
1644	0.25503
1645	0.25192
1646	0.24603
1647	0.23894
1648	0.2344
1649	0.23222
1650	0.23098
1651	0.22952
1652	0.22702
1653	0.22101
1654	0.2175
1655	0.21972
1656	0.22045
1657	0.21968
1658	0.21793
1659	0.2154
1660	0.21199
1661	0.20776
1662	0.20249
1663	0.19656
1664	0.192
1665	0.18867
1666	0.18502
1667	0.1813
1668	0.17768
1669	0.17327
1670	0.16938
1671	0.1667
1672	0.16465
1673	0.16363
1674	0.1626
1675	0.15901
1676	0.15431
1677	0.15232
1678	0.15073
1679	0.14799
1680	0.14342
1681	0.13853
1682	0.13516
1683	0.13153
1684	0.12425
1685	0.11543
1686	0.11221
1687	0.10985
1688	0.1062
1689	0.10153
1690	0.09631
1691	0.09107
1692	0.08653
1693	0.08276
1694	0.07956
1695	0.07539
1696	0.06828
1697	0.06328
1698	0.06182
1699	0.06064
1700	0.05618
1701	0.05185
1702	0.05189
1703	0.05235
1704	0.05207
1705	0.05127
1706	0.05066
1707	0.05104
1708	0.05253
1709	0.0541
1710	0.05544
1711	0.05713
1712	0.05924
1713	0.06154
1714	0.06411
1715	0.06695
1716	0.06949
1717	0.07179
1718	0.07566
1719	0.08085
1720	0.08534
1721	0.08927
1722	0.09364
1723	0.09895
1724	0.10507
1725	0.11119
1726	0.11694
1727	0.12253
1728	0.12764
1729	0.13213
1730	0.13635
1731	0.14037
1732	0.14326
1733	0.14506
1734	0.14716
1735	0.15111
1736	0.15443
1737	0.15706
1738	0.15953
1739	0.16193
1740	0.16508
1741	0.1686
1742	0.17154
1743	0.17447
1744	0.17795
1745	0.18136
1746	0.18422
1747	0.18685
1748	0.18971
1749	0.19281
1750	0.19554
1751	0.19788
1752	0.20066
1753	0.20385
1754	0.2072
1755	0.2107
1756	0.21462
1757	0.22006
1758	0.22643
1759	0.23216
1760	0.23599
1761	0.23671
1762	0.23399
1763	0.23038
1764	0.22733
1765	0.22419
1766	0.22138
1767	0.21936
1768	0.21826
1769	0.21834
1770	0.21884
1771	0.21839
1772	0.21643
1773	0.21437
1774	0.21334
1775	0.2123
1776	0.21094
1777	0.21002
1778	0.2097
1779	0.20964
1780	0.20962
1781	0.20964
1782	0.20958
1783	0.20888
1784	0.20699
1785	0.20354
1786	0.19901
1787	0.19384
1788	0.18745
1789	0.18022
1790	0.17266
1791	0.16403
1792	0.15361
1793	0.14215
1794	0.13315
1795	0.12567
1796	0.11683
1797	0.10758
1798	0.09949
1799	0.09153
1800	0.08318
1801	0.07554
1802	0.06847
1803	0.06185
1804	0.05629
1805	0.05147
1806	0.04698
1807	0.04261
1808	0.03851
1809	0.03516
1810	0.03225
1811	0.02938
1812	0.02687
1813	0.02496
1814	0.0234
1815	0.02206
1816	0.02065
1817	0.01923
1818	0.01787
1819	0.01691
1820	0.0162
1821	0.01542
1822	0.01441
1823	0.01342
1824	0.01264
1825	0.01199
1826	0.01156
1827	0.01122
1828	0.0106
1829	0.00972
1830	0.00917
1831	0.00911
1832	0.00903
1833	0.00881
1834	0.00869
1835	0.00869
1836	0.00856
1837	0.00821
1838	0.00794
1839	0.00787
1840	0.00792
1841	0.0078
1842	0.00736
1843	0.00666
1844	0.00621
1845	0.0066
1846	0.0071
1847	0.00711
1848	0.007
1849	0.0071
1850	0.00734
1851	0.0075
1852	0.00749
1853	0.00749
1854	0.00765
1855	0.00789
1856	0.00804
1857	0.00805
1858	0.00806
1859	0.00817
1860	0.00839
1861	0.00858
1862	0.00871
1863	0.00881
1864	0.009
1865	0.00914
1866	0.00908
1867	0.0088
1868	0.00864
1869	0.00892
1870	0.00955
1871	0.01005
1872	0.01034
1873	0.01063
1874	0.01088
1875	0.01117
1876	0.01137
1877	0.01149
1878	0.01164
1879	0.01188
1880	0.01217
1881	0.01241
1882	0.01252
1883	0.01256
1884	0.01266
1885	0.01291
1886	0.0132
1887	0.01339
1888	0.01343
1889	0.01341
1890	0.01368
1891	0.01409
1892	0.01439
1893	0.01465
1894	0.01481
1895	0.01493
1896	0.01527
1897	0.0157
1898	0.01598
1899	0.01614
1900	0.01631
1901	0.01654
1902	0.01682
1903	0.01688
1904	0.01683
1905	0.01676
1906	0.01668
1907	0.01658
1908	0.01641
1909	0.01619
1910	0.01609
1911	0.01621
1912	0.01632
1913	0.01629
1914	0.01616
1915	0.01604
1916	0.01596
1917	0.0158
1918	0.01575
1919	0.01591
1920	0.01602
1921	0.01598
1922	0.01586
1923	0.01583
1924	0.01603
1925	0.01618
1926	0.01633
1927	0.01653
1928	0.01652
1929	0.01631
1930	0.01616
1931	0.01624
1932	0.01641
1933	0.01647
1934	0.01643
1935	0.01642
1936	0.01648
1937	0.01658
1938	0.0166
1939	0.01644
1940	0.01626
1941	0.01609
1942	0.01599
1943	0.01608
1944	0.01619
1945	0.01618
1946	0.01626
1947	0.01662
1948	0.01681
1949	0.01669
1950	0.01666
1951	0.01682
1952	0.01703
1953	0.01707
1954	0.01693
1955	0.01685
1956	0.01692
1957	0.01702
1958	0.01705
1959	0.01699
1960	0.01699
1961	0.01713
1962	0.01735
1963	0.01742
1964	0.01729
1965	0.01709
1966	0.01699
1967	0.01703
1968	0.01714
1969	0.01722
1970	0.01724
1971	0.01732
1972	0.01747
1973	0.01753
1974	0.01738
1975	0.01725
1976	0.0174
1977	0.01763
1978	0.0177
1979	0.01758
1980	0.01749
1981	0.01768
1982	0.01803
1983	0.01818
1984	0.01808
1985	0.01803
1986	0.01816
1987	0.01832
1988	0.01832
1989	0.01824
1990	0.01825
1991	0.01831
1992	0.01838
1993	0.01837
1994	0.01826
1995	0.01826
1996	0.01848
1997	0.0188
1998	0.01887
1999	0.0187
2000	0.01864
2001	0.01893
2002	0.01921
2003	0.01918
2004	0.01897
2005	0.01886
2006	0.01902
2007	0.01929
2008	0.01934
2009	0.0192
2010	0.01908
2011	0.01916
2012	0.0193
2013	0.01935
2014	0.0193
2015	0.01924
2016	0.01926
2017	0.01941
2018	0.01958
2019	0.01966
2020	0.01976
2021	0.01995
2022	0.02021
2023	0.0203
2024	0.02016
2025	0.0201
2026	0.02037
2027	0.0207
2028	0.02086
2029	0.0208
2030	0.02076
2031	0.02101
2032	0.02131
2033	0.0214
2034	0.02135
2035	0.0213
2036	0.0214
2037	0.0214
2038	0.0214
2039	0.0214
2040	0.0214
2041	0.0214
2042	0.0214
2043	0.0214
2044	0.0214
2045	0.0214
2046	0.0214
2047	0.0214
2048	0.0214
2049	0.0214
2050	0.0214
2051	0.0214
2052	0.0214
2053	0.0214
2054	0.0214
2055	0.0214
2056	0.0214
2057	0.0214
2058	0.0214
2059	0.0214
2060	0.0214
2061	0.0214
2062	0.0214
2063	0.0214
2064	0.0214
2065	0.0214
2066	0.0214
2067	0.0214
2068	0.0214
2069	0.0214
2070	0.0214
2071	0.0214
2072	0.0214
2073	0.0214
2074	0.0214
2075	0.0214
2076	0.0214
2077	0.0214
2078	0.0214
2079	0.0214
2080	0.0214
2081	0.0214
2082	0.0214
2083	0.0214
2084	0.0214
2085	0.0214
2086	0.0214
2087	0.0214
2088	0.0214
2089	0.0214
2090	0.0214
2091	0.0214
2092	0.0214
2093	0.0214
2094	0.0214
2095	0.0214
2096	0.0214
2097	0.0214
2098	0.0214
2099	0.0214
2100	0.0214
2101	0.0214
2102	0.0214
2103	0.0214
2104	0.0214
2105	0.0214
2106	0.0214
2107	0.0214
2108	0.0214
2109	0.0214
2110	0.0214
2111	0.0214
2112	0.0214
2113	0.0214
2114	0.0214
2115	0.0214
2116	0.0214
2117	0.0214
2118	0.0214
2119	0.0214
2120	0.0214
2121	0.0214
2122	0.0214
2123	0.0214
2124	0.0214
2125	0.0214
2126	0.0214
2127	0.0214
2128	0.0214
2129	0.0214
2130	0.0214
2131	0.0214
2132	0.0214
2133	0.0214
2134	0.0214
2135	0.0214
2136	0.0214
2137	0.0214
2138	0.0214
2139	0.0214
2140	0.0214
2141	0.0214
2142	0.0214
2143	0.0214
2144	0.0214
2145	0.0214
2146	0.0214
2147	0.0214
2148	0.0214
2149	0.0214
2150	0.0214
2151	0.0214
2152	0.0214
2153	0.0214
2154	0.0214
2155	0.0214
2156	0.0214
2157	0.0214
2158	0.0214
2159	0.0214
2160	0.0214
2161	0.0214
2162	0.0214
2163	0.0214
2164	0.0214
2165	0.0214
2166	0.0214
2167	0.0214
2168	0.0214
2169	0.0214
2170	0.0214
2171	0.0214
2172	0.0214
2173	0.0214
2174	0.0214
2175	0.0214
2176	0.0214
2177	0.0214
2178	0.0214
2179	0.0214
2180	0.0214
2181	0.0214
2182	0.0214
2183	0.0214
2184	0.0214
2185	0.0214
2186	0.0214
2187	0.0214
2188	0.0214
2189	0.0214
2190	0.0214
2191	0.0214
2192	0.0214
2193	0.0214
2194	0.0214
2195	0.0214
2196	0.0214
2197	0.0214
2198	0.0214
2199	0.0214
2200	0.0214
2201	0.0214
2202	0.0214
2203	0.0214
2204	0.0214
2205	0.0214
2206	0.0214
2207	0.0214
2208	0.0214
2209	0.0214
2210	0.0214
2211	0.0214
2212	0.0214
2213	0.0214
2214	0.0214
2215	0.0214
2216	0.0214
2217	0.0214
2218	0.0214
2219	0.0214
2220	0.0214
2221	0.0214
2222	0.0214
2223	0.0214
2224	0.0214
2225	0.0214
2226	0.0214
2227	0.0214
2228	0.0214
2229	0.0214
2230	0.0214
2231	0.0214
2232	0.0214
2233	0.0214
2234	0.0214
2235	0.0214
2236	0.0214
2237	0.0214
2238	0.0214
2239	0.0214
2240	0.0214
2241	0.0214
2242	0.0214
2243	0.0214
2244	0.0214
2245	0.0214
2246	0.0214
2247	0.0214
2248	0.0214
2249	0.0214
2250	0.0214
2251	0.0214
2252	0.0214
2253	0.0214
2254	0.0214
2255	0.0214
2256	0.0214
2257	0.0214
2258	0.0214
2259	0.0214
2260	0.0214
2261	0.0214
2262	0.0214
2263	0.0214
2264	0.0214
2265	0.0214
2266	0.0214
2267	0.0214
2268	0.0214
2269	0.0214
2270	0.0214
2271	0.0214
2272	0.0214
2273	0.0214
2274	0.0214
2275	0.0214
2276	0.0214
2277	0.0214
2278	0.0214
2279	0.0214
2280	0.0214
2281	0.0214
2282	0.0214
2283	0.0214
2284	0.0214
2285	0.0214
2286	0.0214
2287	0.0214
2288	0.0214
2289	0.0214
2290	0.0214
2291	0.0214
2292	0.0214
2293	0.0214
2294	0.0214
2295	0.0214
2296	0.0214
2297	0.0214
2298	0.0214
2299	0.0214
2300	0.0214
2301	0.0214
2302	0.0214
2303	0.0214
2304	0.0214
2305	0.0214
2306	0.0214
2307	0.0214
2308	0.0214
2309	0.0214
2310	0.0214
2311	0.0214
2312	0.0214
2313	0.0214
2314	0.0214
2315	0.0214
2316	0.0214
2317	0.0214
2318	0.0214
2319	0.0214
2320	0.0214
2321	0.0214
2322	0.0214
2323	0.0214
2324	0.0214
2325	0.0214
2326	0.0214
2327	0.0214
2328	0.0214
2329	0.0214
2330	0.0214
2331	0.0214
2332	0.0214
2333	0.0214
2334	0.0214
2335	0.0214
2336	0.0214
2337	0.0214
2338	0.0214
2339	0.0214
2340	0.0214
2341	0.0214
2342	0.0214
2343	0.0214
2344	0.0214
2345	0.0214
2346	0.0214
2347	0.0214
2348	0.0214
2349	0.0214
2350	0.0214
2351	0.0214
2352	0.0214
2353	0.0214
2354	0.0214
2355	0.0214
2356	0.0214
2357	0.0214
2358	0.0214
2359	0.0214
2360	0.0214
2361	0.0214
2362	0.0214
2363	0.0214
2364	0.0214
2365	0.0214
2366	0.0214
2367	0.0214
2368	0.0214
2369	0.0214
2370	0.0214
2371	0.0214
2372	0.0214
2373	0.0214
2374	0.0214
2375	0.0214
2376	0.0214
2377	0.0214
2378	0.0214
2379	0.0214
2380	0.0214
2381	0.0214
2382	0.0214
2383	0.0214
2384	0.0214
2385	0.0214
2386	0.0214
2387	0.0214
2388	0.0214
2389	0.0214
2390	0.0214
2391	0.0214
2392	0.0214
2393	0.0214
2394	0.0214
2395	0.0214
2396	0.0214
2397	0.0214
2398	0.0214
2399	0.0214
2400	0.0214
2401	0.0214
2402	0.0214
2403	0.0214
2404	0.0214
2405	0.0214
2406	0.0214
2407	0.0214
2408	0.0214
2409	0.0214
2410	0.0214
2411	0.0214
2412	0.0214
2413	0.0214
2414	0.0214
2415	0.0214
2416	0.0214
2417	0.0214
2418	0.0214
2419	0.0214
2420	0.0214
2421	0.0214
2422	0.0214
2423	0.0214
2424	0.0214
2425	0.0214
2426	0.0214
2427	0.0214
2428	0.0214
2429	0.0214
2430	0.0214
2431	0.0214
2432	0.0214
2433	0.0214
2434	0.0214
2435	0.0214
2436	0.0214
2437	0.0214
2438	0.0214
2439	0.0214
2440	0.0214
2441	0.0214
2442	0.0214
2443	0.0214
2444	0.0214
2445	0.0214
2446	0.0214
2447	0.0214
2448	0.0214
2449	0.0214
2450	0.0214
2451	0.0214
2452	0.0214
2453	0.0214
2454	0.0214
2455	0.0214
2456	0.0214
2457	0.0214
2458	0.0214
2459	0.0214
2460	0.0214
2461	0.0214
2462	0.0214
2463	0.0214
2464	0.0214
2465	0.0214
2466	0.0214
2467	0.0214
2468	0.0214
2469	0.0214
2470	0.0214
2471	0.0214
2472	0.0214
2473	0.0214
2474	0.0214
2475	0.0214
2476	0.0214
2477	0.0214
2478	0.0214
2479	0.0214
2480	0.0214
2481	0.0214
2482	0.0214
2483	0.0214
2484	0.0214
2485	0.0214
2486	0.0214
2487	0.0214
2488	0.0214
2489	0.0214
2490	0.0214
2491	0.0214
2492	0.0214
2493	0.0214
2494	0.0214
2495	0.0214
2496	0.0214
2497	0.0214
2498	0.0214
2499	0.0214
2500	0.0214
2501	0.0214
2502	0.0214
2503	0.0214
2504	0.0214
2505	0.0214
2506	0.0214
2507	0.0214
2508	0.0214
2509	0.0214
2510	0.0214
2511	0.0214
2512	0.0214
2513	0.0214
2514	0.0214
2515	0.0214
2516	0.0214
2517	0.0214
2518	0.0214
2519	0.0214
2520	0.0214
2521	0.0214
2522	0.0214
2523	0.0214
2524	0.0214
2525	0.0214
2526	0.0214
2527	0.0214
2528	0.0214
2529	0.0214
2530	0.0214
2531	0.0214
2532	0.0214
2533	0.0214
2534	0.0214
2535	0.0214
2536	0.0214
2537	0.0214
2538	0.02154
2539	0.02136
2540	0.02121
2541	0.02145
2542	0.02185
2543	0.02192
2544	0.02171
2545	0.0218
2546	0.02226
2547	0.02268
2548	0.02274
2549	0.02249
2550	0.02242
2551	0.02274
2552	0.02308
2553	0.02312
2554	0.02291
2555	0.02289
2556	0.02319
2557	0.02359
2558	0.02371
2559	0.02359
2560	0.02357
2561	0.02385
2562	0.02413
2563	0.02412
2564	0.02393
2565	0.02406
2566	0.02458
2567	0.02507
2568	0.02507
2569	0.02479
2570	0.02476
2571	0.02514
2572	0.02553
2573	0.02553
2574	0.02525
2575	0.02523
2576	0.02556
2577	0.02585
2578	0.02595
2579	0.02594
2580	0.02606
2581	0.02633
2582	0.02658
2583	0.02663
2584	0.02662
2585	0.02684
2586	0.02725
2587	0.02755
2588	0.0275
2589	0.02735
2590	0.02745
2591	0.0278
2592	0.02812
2593	0.02812
2594	0.02807
2595	0.02827
2596	0.02859
2597	0.02875
2598	0.02863
2599	0.02861
2600	0.0288
2601	0.02912
2602	0.02925
2603	0.02928
2604	0.02941
2605	0.02968
2606	0.0299
2607	0.03002
2608	0.03006
2609	0.03014
2610	0.03044
2611	0.03078
2612	0.03088
2613	0.03084
2614	0.03091
2615	0.03113
2616	0.03139
2617	0.03163
2618	0.0319
2619	0.03225
2620	0.03255
2621	0.03266
2622	0.0326
2623	0.03272
2624	0.03316
2625	0.03363
2626	0.0339
2627	0.03396
2628	0.03408
2629	0.03438
2630	0.03474
2631	0.03502
2632	0.03516
2633	0.03545
2634	0.03591
2635	0.03638
2636	0.0366
2637	0.03673
2638	0.03693
2639	0.03728
2640	0.0376
2641	0.03776
2642	0.03788
2643	0.03812
2644	0.03846
2645	0.0388
2646	0.03898
2647	0.03907
2648	0.03928
2649	0.03963
2650	0.03998
2651	0.04017
2652	0.04028
2653	0.04053
2654	0.04098
2655	0.04128
2656	0.04133
2657	0.04128
2658	0.04155
2659	0.04212
2660	0.04262
2661	0.04278
2662	0.04277
2663	0.04298
2664	0.04342
2665	0.04376
2666	0.04383
2667	0.04384
2668	0.04406
2669	0.04448
2670	0.04479
2671	0.04484
2672	0.04492
2673	0.04525
2674	0.04566
2675	0.0458
2676	0.04565
2677	0.0456
2678	0.04599
2679	0.04671
2680	0.04711
2681	0.04698
2682	0.04671
2683	0.04687
2684	0.04736
2685	0.04767
2686	0.04778
2687	0.04795
2688	0.04839
2689	0.04887
2690	0.04905
2691	0.049
2692	0.04905
2693	0.04944
2694	0.04997
2695	0.05024
2696	0.0502
2697	0.05028
2698	0.05081
2699	0.05149
2700	0.05185
2701	0.0517
2702	0.05159
2703	0.05202
2704	0.05268
2705	0.05292
2706	0.05272
2707	0.0527
2708	0.05322
2709	0.05398
2710	0.0544
2711	0.05455
2712	0.05477
2713	0.05532
2714	0.05588
2715	0.05612
2716	0.0561
2717	0.05636
2718	0.05699
2719	0.05765
2720	0.05793
2721	0.05797
2722	0.05821
2723	0.05885
2724	0.05946
2725	0.05967
2726	0.05967
2727	0.05979
2728	0.06026
2729	0.06082
2730	0.06099
2731	0.06093
2732	0.06102
2733	0.06151
2734	0.06214
2735	0.06236
2736	0.0623
2737	0.06241
2738	0.06287
2739	0.06322
2740	0.06315
2741	0.06297
2742	0.06309
2743	0.06348
2744	0.06383
2745	0.06406
2746	0.06429
2747	0.06464
2748	0.06501
2749	0.0652
2750	0.06512
2751	0.06496
2752	0.06508
2753	0.06548
2754	0.06585
2755	0.06596
2756	0.06602
2757	0.06616
2758	0.06647
2759	0.0668
2760	0.06681
2761	0.06679
2762	0.067
2763	0.06745
2764	0.06775
2765	0.06788
2766	0.0679
2767	0.06805
2768	0.06829
2769	0.06853
2770	0.06867
2771	0.06881
2772	0.06912
2773	0.06945
2774	0.06969
2775	0.06989
2776	0.07011
2777	0.07045
2778	0.07084
2779	0.0711
2780	0.07119
2781	0.07141
2782	0.07191
2783	0.07239
2784	0.07271
2785	0.07291
2786	0.07319
2787	0.07355
2788	0.07393
2789	0.07421
2790	0.07451
2791	0.075
2792	0.07555
2793	0.0758
2794	0.07591
2795	0.07616
2796	0.07682
2797	0.07765
2798	0.07823
2799	0.07845
2800	0.07861
2801	0.07916
2802	0.08
2803	0.0807
2804	0.08115
2805	0.08161
2806	0.08231
2807	0.08312
2808	0.08382
2809	0.08443
2810	0.08514
2811	0.08604
2812	0.08704
2813	0.08792
2814	0.08866
2815	0.08955
2816	0.0906
2817	0.09168
2818	0.09248
2819	0.09309
2820	0.09387
2821	0.09499
2822	0.09607
2823	0.09664
2824	0.09682
2825	0.09721
2826	0.09799
2827	0.09876
2828	0.09909
2829	0.09924
2830	0.09971
2831	0.10054
2832	0.10126
2833	0.10162
2834	0.10192
2835	0.10262
2836	0.1037
2837	0.10476
2838	0.10557
2839	0.1063
2840	0.10736
2841	0.10881
2842	0.11032
2843	0.11166
2844	0.11328
2845	0.11549
2846	0.1182
2847	0.12092
2848	0.12336
2849	0.12572
2850	0.12819
2851	0.13047
2852	0.13208
2853	0.13299
2854	0.13373
2855	0.13464
2856	0.13549
2857	0.13596
2858	0.13617
2859	0.13646
2860	0.13701
2861	0.13778
2862	0.13847
2863	0.13902
2864	0.13968
2865	0.14075
2866	0.14222
2867	0.14369
2868	0.14502
2869	0.14645
2870	0.14839
2871	0.15071
2872	0.15273
2873	0.15424
2874	0.15559
2875	0.15718
2876	0.15876
2877	0.15988
2878	0.16076
2879	0.1618
2880	0.1632
2881	0.16459
2882	0.16567
2883	0.16667
2884	0.16803
2885	0.16979
2886	0.17155
2887	0.17295
2888	0.17415
2889	0.17558
2890	0.17734
2891	0.1792
2892	0.18087
2893	0.18257
2894	0.18473
2895	0.18725
2896	0.18949
2897	0.19089
2898	0.19199
2899	0.19374
2900	0.19621
2901	0.19889
2902	0.20122
2903	0.20333
2904	0.20571
2905	0.20846
2906	0.2112
2907	0.21354
2908	0.21576
2909	0.2185
2910	0.22174
2911	0.22506
2912	0.22832
2913	0.23176
2914	0.2359
2915	0.241
2916	0.24669
2917	0.25226
2918	0.25737
2919	0.26223
2920	0.26726
2921	0.27237
2922	0.27712
2923	0.2815
2924	0.28574
2925	0.28981
2926	0.29334
2927	0.29585
2928	0.29714
2929	0.29692
2930	0.29502
2931	0.2917
2932	0.28764
2933	0.28357
2934	0.28
2935	0.27687
2936	0.27379
2937	0.27073
2938	0.26799
2939	0.26545
2940	0.26244
2941	0.25833
2942	0.25326
2943	0.24798
2944	0.24303
2945	0.23854
2946	0.23417
2947	0.22999
2948	0.22656
2949	0.22396
2950	0.22179
2951	0.21944
2952	0.21696
2953	0.2148
2954	0.21318
2955	0.21214
2956	0.21126
2957	0.21024
2958	0.20894
2959	0.20741
2960	0.20542
2961	0.20294
2962	0.20027
2963	0.19786
2964	0.19594
2965	0.19444
2966	0.19309
2967	0.19182
2968	0.19093
2969	0.19052
2970	0.19035
2971	0.18999
2972	0.18951
2973	0.1891
2974	0.18883
2975	0.18856
2976	0.18813
2977	0.18768
2978	0.18729
2979	0.18699
2980	0.18669
2981	0.18608
2982	0.18503
2983	0.18403
2984	0.1833
2985	0.18251
2986	0.1813
2987	0.17994
2988	0.17885
2989	0.17793
2990	0.17686
2991	0.17562
2992	0.17436
2993	0.17325
2994	0.17229
2995	0.17126
2996	0.17008
2997	0.16907
2998	0.16839
2999	0.16789
3000	0.16717
3001	0.16635
3002	0.16565
3003	0.16536
3004	0.16509
3005	0.16474
3006	0.16437
3007	0.16432
3008	0.16458
3009	0.16493
3010	0.16513
3011	0.16521
3012	0.16547
3013	0.16609
3014	0.16693
3015	0.16761
3016	0.16804
3017	0.16844
3018	0.16902
3019	0.16974
3020	0.1704
3021	0.17103
3022	0.17185
3023	0.1728
3024	0.17364
3025	0.17432
3026	0.17501
3027	0.1758
3028	0.17671
3029	0.17759
3030	0.17822
3031	0.17881
3032	0.17965
3033	0.1807
3034	0.18168
3035	0.18241
3036	0.18309
3037	0.18397
3038	0.18499
3039	0.18574
3040	0.18616
3041	0.18661
3042	0.18743
3043	0.18855
3044	0.18951
3045	0.19016
3046	0.19087
3047	0.19177
3048	0.19273
3049	0.19367
3050	0.19446
3051	0.19534
3052	0.19643
3053	0.1975
3054	0.19818
3055	0.19871
3056	0.19955
3057	0.20081
3058	0.20209
3059	0.203
3060	0.20366
3061	0.20448
3062	0.20566
3063	0.20698
3064	0.20802
3065	0.2088
3066	0.2097
3067	0.21101
3068	0.21243
3069	0.21353
3070	0.21435
3071	0.21525
3072	0.21642
3073	0.21767
3074	0.21875
3075	0.21976
3076	0.2209
3077	0.22218
3078	0.22345
3079	0.22451
3080	0.22549
3081	0.22663
3082	0.22813
3083	0.22971
3084	0.231
3085	0.23202
3086	0.23328
3087	0.23489
3088	0.2365
3089	0.23784
3090	0.23901
3091	0.24044
3092	0.2422
3093	0.24394
3094	0.24532
3095	0.24652
3096	0.24812
3097	0.25008
3098	0.2519
3099	0.25329
3100	0.25456
3101	0.2562
3102	0.25826
3103	0.26023
3104	0.26175
3105	0.26318
3106	0.26493
3107	0.26694
3108	0.26884
3109	0.2704
3110	0.27179
3111	0.27334
3112	0.27503
3113	0.27666
3114	0.27812
3115	0.27956
3116	0.28116
3117	0.28299
3118	0.28475
3119	0.28616
3120	0.28755
3121	0.28931
3122	0.29136
3123	0.29332
3124	0.29498
3125	0.29661
3126	0.29841
3127	0.30038
3128	0.30223
3129	0.30389
3130	0.30563
3131	0.30768
3132	0.30979
3133	0.31173
3134	0.31347
3135	0.3152
3136	0.31725
3137	0.31964
3138	0.32192
3139	0.32386
3140	0.32582
3141	0.32808
3142	0.33045
3143	0.33265
3144	0.33467
3145	0.3368
3146	0.33928
3147	0.34189
3148	0.34426
3149	0.34624
3150	0.34827
3151	0.35066
3152	0.35332
3153	0.35593
3154	0.35835
3155	0.36091
3156	0.36379
3157	0.36668
3158	0.36926
3159	0.37163
3160	0.37417
3161	0.37702
3162	0.37988
3163	0.3825
3164	0.38502
3165	0.38762
3166	0.3904
3167	0.39327
3168	0.39619
3169	0.39887
3170	0.40153
3171	0.40431
3172	0.40708
3173	0.40976
3174	0.41244
3175	0.41518
3176	0.41811
3177	0.4211
3178	0.42399
3179	0.42673
3180	0.42951
3181	0.43247
3182	0.43543
3183	0.43829
3184	0.44112
3185	0.44401
3186	0.44706
3187	0.45006
3188	0.45278
3189	0.45533
3190	0.45783
3191	0.4605
3192	0.46328
3193	0.4662
3194	0.46903
3195	0.47163
3196	0.47415
3197	0.47694
3198	0.47975
3199	0.48237
3200	0.48495
3201	0.48762
3202	0.4903
3203	0.49288
3204	0.49536
3205	0.49795
3206	0.50066
3207	0.50327
3208	0.5057
3209	0.50811
3210	0.51071
3211	0.51332
3212	0.51582
3213	0.51829
3214	0.52073
3215	0.5232
3216	0.52575
3217	0.5284
3218	0.53096
3219	0.53352
3220	0.53612
3221	0.53868
3222	0.54124
3223	0.54409
3224	0.54699
3225	0.54969
3226	0.55219
3227	0.55464
3228	0.55724
3229	0.56002
3230	0.56284
3231	0.56542
3232	0.56779
3233	0.57019
3234	0.57286
3235	0.57565
3236	0.57838
3237	0.58105
3238	0.58378
3239	0.58678
3240	0.58982
3241	0.5926
3242	0.59512
3243	0.59765
3244	0.60045
3245	0.60326
3246	0.6059
3247	0.6085
3248	0.61128
3249	0.61415
3250	0.61688
3251	0.61946
3252	0.622
3253	0.62444
3254	0.62698
3255	0.62953
3256	0.63188
3257	0.6341
3258	0.63646
3259	0.63895
3260	0.6415
3261	0.64411
3262	0.64656
3263	0.64879
3264	0.65099
3265	0.65337
3266	0.65587
3267	0.65814
3268	0.66008
3269	0.66192
3270	0.66378
3271	0.66588
3272	0.66827
3273	0.67069
3274	0.67299
3275	0.67526
3276	0.67726
3277	0.67923
3278	0.68151
3279	0.68374
3280	0.68574
3281	0.68772
3282	0.68989
3283	0.69215
3284	0.69437
3285	0.69642
3286	0.69851
3287	0.70091
3288	0.70332
3289	0.70553
3290	0.70766
3291	0.70997
3292	0.71248
3293	0.71495
3294	0.71718
3295	0.71926
3296	0.72156
3297	0.72416
3298	0.72675
3299	0.72929
3300	0.73163
3301	0.73393
3302	0.73648
3303	0.73911
3304	0.74163
3305	0.74408
3306	0.74641
3307	0.74883
3308	0.75152
3309	0.75406
3310	0.75647
3311	0.75911
3312	0.76199
3313	0.76475
3314	0.76732
3315	0.76983
3316	0.77237
3317	0.77499
3318	0.77777
3319	0.78049
3320	0.7831
3321	0.7858
3322	0.78863
3323	0.79147
3324	0.79424
3325	0.7967
3326	0.79912
3327	0.802
3328	0.80544
3329	0.8089
3330	0.81194
3331	0.81454
3332	0.81711
3333	0.81985
3334	0.82257
3335	0.82515
3336	0.82768
3337	0.83032
3338	0.83308
3339	0.83586
3340	0.83867
3341	0.8415
3342	0.84444
3343	0.84756
3344	0.85071
3345	0.8537
3346	0.85659
3347	0.85947
3348	0.86229
3349	0.86503
3350	0.86767
3351	0.87028
3352	0.87307
3353	0.87636
3354	0.87967
3355	0.88252
3356	0.88539
3357	0.88835
3358	0.89116
3359	0.8937
3360	0.8961
3361	0.89875
3362	0.90181
3363	0.90496
3364	0.90773
3365	0.91001
3366	0.91219
3367	0.91459
3368	0.91707
3369	0.9194
3370	0.92162
3371	0.92389
3372	0.92631
3373	0.92884
3374	0.93136
3375	0.93332
3376	0.93483
3377	0.93692
3378	0.93955
3379	0.94162
3380	0.94302
3381	0.94473
3382	0.94693
3383	0.94918
3384	0.95125
3385	0.9529
3386	0.95403
3387	0.95514
3388	0.95656
3389	0.95808
3390	0.9594
3391	0.96041
3392	0.96146
3393	0.963
3394	0.96498
3395	0.96692
3396	0.96879
3397	0.9705
3398	0.97152
3399	0.97191
3400	0.97226
3401	0.97309
3402	0.97477
3403	0.97703
3404	0.97907
3405	0.98041
3406	0.98123
3407	0.98181
3408	0.98196
3409	0.98163
3410	0.98141
3411	0.98197
3412	0.98257
3413	0.98248
3414	0.98213
3415	0.98232
3416	0.98262
3417	0.9823
3418	0.98148
3419	0.98049
3420	0.97948
3421	0.97898
3422	0.9793
3423	0.97941
3424	0.97838
3425	0.97672
3426	0.9751
3427	0.9733
3428	0.97147
3429	0.97005
3430	0.96855
3431	0.96681
3432	0.96515
3433	0.96333
3434	0.9612
3435	0.95947
3436	0.9581
3437	0.95649
3438	0.95516
3439	0.95438
3440	0.95272
3441	0.95014
3442	0.94793
3443	0.94607
3444	0.94371
3445	0.94113
3446	0.93874
3447	0.93637
3448	0.934
3449	0.93181
3450	0.92916
3451	0.92573
3452	0.922
3453	0.91839
3454	0.91513
3455	0.91212
3456	0.90914
3457	0.90604
3458	0.90255
3459	0.89868
3460	0.89503
3461	0.89192
3462	0.88879
3463	0.88512
3464	0.88093
3465	0.87692
3466	0.87291
3467	0.86863
3468	0.86462
3469	0.86108
3470	0.85795
3471	0.85486
3472	0.85109
3473	0.84691
3474	0.84307
3475	0.83964
3476	0.83631
3477	0.83262
3478	0.82845
3479	0.82438
3480	0.82087
3481	0.81775
3482	0.81456
3483	0.81103
3484	0.80755
3485	0.80429
3486	0.80075
3487	0.79694
3488	0.79347
3489	0.79057
3490	0.78766
3491	0.78429
3492	0.78048
3493	0.77666
3494	0.77284
3495	0.76885
3496	0.76455
3497	0.76005
3498	0.75556
3499	0.75123
3500	0.74688
3501	0.74248
3502	0.73804
3503	0.7335
3504	0.72894
3505	0.72451
3506	0.72008
3507	0.71564
3508	0.71138
3509	0.70694
3510	0.70219
3511	0.6976
3512	0.6931
3513	0.68846
3514	0.68412
3515	0.68006
3516	0.67591
3517	0.67181
3518	0.66809
3519	0.66445
3520	0.66042
3521	0.65634
3522	0.65229
3523	0.64792
3524	0.64377
3525	0.64054
3526	0.63758
3527	0.63407
3528	0.63018
3529	0.62632
3530	0.62273
3531	0.61949
3532	0.61648
3533	0.61354
3534	0.61067
3535	0.60774
3536	0.6044
3537	0.60065
3538	0.59709
3539	0.59382
3540	0.59043
3541	0.5868
3542	0.58266
3543	0.57815
3544	0.57371
3545	0.56939
3546	0.56526
3547	0.56119
3548	0.55666
3549	0.55182
3550	0.54703
3551	0.54222
3552	0.53708
3553	0.53135
3554	0.52584
3555	0.52107
3556	0.51671
3557	0.51204
3558	0.5069
3559	0.50189
3560	0.49676
3561	0.49131
3562	0.48606
3563	0.4809
3564	0.47566
3565	0.47072
3566	0.46575
3567	0.46017
3568	0.45461
3569	0.4493
3570	0.44448
3571	0.43971
3572	0.43465
3573	0.42951
3574	0.42432
3575	0.41925
3576	0.41445
3577	0.40958
3578	0.40447
3579	0.39933
3580	0.39391
3581	0.38835
3582	0.38321
3583	0.37807
3584	0.37273
3585	0.36784
3586	0.36325
3587	0.35794
3588	0.35211
3589	0.34655
3590	0.34138
3591	0.33634
3592	0.33114
3593	0.32565
3594	0.32027
3595	0.31564
3596	0.31129
3597	0.30694
3598	0.30243
3599	0.29772
3600	0.293
3601	0.28835
3602	0.28392
3603	0.27974
3604	0.27538
3605	0.27088
3606	0.2668
3607	0.26303
3608	0.25961
3609	0.25654
3610	0.2531
3611	0.24958
3612	0.24641
3613	0.24248
3614	0.23769
3615	0.23271
3616	0.22782
3617	0.22346
3618	0.21968
3619	0.21629
3620	0.2118
3621	0.20602
3622	0.20069
3623	0.19635
3624	0.19254
3625	0.18857
3626	0.18424
3627	0.18041
3628	0.17802
3629	0.17603
3630	0.17201
3631	0.16793
3632	0.16493
3633	0.16258
3634	0.16006
3635	0.15704
3636	0.15396
3637	0.15117
3638	0.14861
3639	0.14613
3640	0.14353
3641	0.14069
3642	0.1378
3643	0.13487
3644	0.13176
3645	0.1285
3646	0.12569
3647	0.12347
3648	0.12094
3649	0.11827
3650	0.11624
3651	0.11443
3652	0.11174
3653	0.10872
3654	0.10579
3655	0.10326
3656	0.10172
3657	0.09993
3658	0.09708
3659	0.09455
3660	0.0925
3661	0.09048
3662	0.08844
3663	0.08647
3664	0.08448
3665	0.08239
3666	0.08016
3667	0.07787
3668	0.07572
3669	0.07397
3670	0.07322
3671	0.0724
3672	0.06986
3673	0.06662
3674	0.064
3675	0.06357
3676	0.06423
3677	0.06209
3678	0.05975
3679	0.05876
3680	0.05813
3681	0.05664
3682	0.0549
3683	0.05341
3684	0.05221
3685	0.05083
3686	0.04882
3687	0.04721
3688	0.04764
3689	0.04806
3690	0.0459
3691	0.04398
3692	0.04312
3693	0.04225
3694	0.04139
3695	0.04056
3696	0.03979
3697	0.03912
3698	0.03839
3699	0.03724
3700	0.03622
3701	0.03654
3702	0.03719
3703	0.03623
3704	0.03493
3705	0.03425
3706	0.03383
3707	0.03308
3708	0.03189
3709	0.03113
3710	0.03118
3711	0.03197
3712	0.03485
3713	0.03782
3714	0.03813
3715	0.03739
3716	0.03606
3717	0.0341
3718	0.03228
3719	0.03091
3720	0.02923
3721	0.02713
3722	0.02574
3723	0.02511
3724	0.02397
3725	0.0223
3726	0.0212
3727	0.02142
3728	0.02214
3729	0.02218
3730	0.02146
3731	0.02159
3732	0.02352
3733	0.0233
3734	0.02126
3735	0.02173
3736	0.02411
3737	0.0257
3738	0.0262
3739	0.02597
3740	0.02614
3741	0.02697
3742	0.02681
3743	0.02612
3744	0.02851
3745	0.03245
3746	0.03129
3747	0.02792
3748	0.02623
3749	0.02707
3750	0.02858
3751	0.02922
3752	0.03114
3753	0.03211
3754	0.0303
3755	0.02858
3756	0.02827
3757	0.02809
3758	0.02739
3759	0.02789
3760	0.02945
3761	0.02908
3762	0.02779
3763	0.02691
3764	0.02635
3765	0.02662
3766	0.02755
3767	0.02726
3768	0.02589
3769	0.02543
3770	0.02674
3771	0.02757
3772	0.0269
3773	0.02626
3774	0.02598
3775	0.02554
3776	0.02487
3777	0.02418
3778	0.0238
3779	0.02451
3780	0.02557
3781	0.02534
3782	0.02434
3783	0.02357
3784	0.02348
3785	0.02387
3786	0.02423
3787	0.02426
3788	0.0242
3789	0.02402
3790	0.0239
3791	0.02373
3792	0.02348
3793	0.02292
3794	0.02202
3795	0.0214
3796	0.02196
3797	0.02287
3798	0.02228
3799	0.02053
3800	0.01941
3801	0.02085
3802	0.0237
3803	0.02401
3804	0.02218
3805	0.02041
3806	0.02026
3807	0.02232
3808	0.02328
3809	0.02231
3810	0.02147
3811	0.02123
3812	0.02103
3813	0.02034
3814	0.01908
3815	0.01871
3816	0.02082
3817	0.02167
3818	0.0197
3819	0.01774
3820	0.01759
3821	0.02071
3822	0.02335
3823	0.02188
3824	0.02025
3825	0.01963
3826	0.0199
3827	0.02053
3828	0.02047
3829	0.01962
3830	0.01884
3831	0.01916
3832	0.01982
3833	0.01907
3834	0.01824
3835	0.01831
3836	0.01755
3837	0.01697
3838	0.01809
3839	0.0184
3840	0.01853
3841	0.01921
3842	0.01841
3843	0.01766
3844	0.01875
3845	0.01949
3846	0.01905
3847	0.01832
3848	0.01762
3849	0.01712
3850	0.01643
3851	0.01564
3852	0.01564
3853	0.01775
3854	0.02136
3855	0.02175
3856	0.01943
3857	0.0186
3858	0.01853
3859	0.01787
3860	0.01702
3861	0.01688
3862	0.0171
3863	0.01652
3864	0.01669
3865	0.01875
3866	0.01923
3867	0.01715
3868	0.0152
3869	0.01543
3870	0.01875
3871	0.01936
3872	0.01727
3873	0.01641
3874	0.01755
3875	0.01865
3876	0.01794
3877	0.01682
3878	0.01575
3879	0.01531
3880	0.01644
3881	0.01773
3882	0.01725
3883	0.01604
3884	0.0151
3885	0.01561
3886	0.0177
3887	0.01834
3888	0.01724
3889	0.01605
3890	0.01572
3891	0.01697
3892	0.01793
3893	0.01721
3894	0.01672
3895	0.0169
3896	0.01658
3897	0.01561
3898	0.01509
3899	0.01599
3900	0.01636
3901	0.01577
3902	0.01591
3903	0.01614
3904	0.0163
3905	0.01668
3906	0.01663
3907	0.01618
3908	0.01588
3909	0.01596
3910	0.01615
3911	0.01605
3912	0.01575
3913	0.01552
3914	0.01526
3915	0.01487
3916	0.01476
3917	0.01521
3918	0.01531
3919	0.01522
3920	0.01582
3921	0.01621
3922	0.01575
3923	0.01522
3924	0.01536
3925	0.01598
3926	0.01604
3927	0.01563
3928	0.0155
3929	0.01571
3930	0.01563
3931	0.01533
3932	0.0156
3933	0.01593
3934	0.01555
3935	0.01522
3936	0.01544
3937	0.0158
3938	0.01596
3939	0.01572
3940	0.015
3941	0.01433
3942	0.01453
3943	0.01521
3944	0.01535
3945	0.01494
3946	0.01466
3947	0.01486
3948	0.01507
3949	0.01498
3950	0.01502
3951	0.01494
3952	0.01474
3953	0.0146
3954	0.01444
3955	0.01441
3956	0.01465
3957	0.01485
3958	0.01464
3959	0.01421
3960	0.01389
3961	0.01391
3962	0.01436
3963	0.01476
3964	0.01482
3965	0.01464
3966	0.01431
3967	0.01408
3968	0.01418
3969	0.01436
3970	0.01429
3971	0.01405
3972	0.01386
3973	0.01372
3974	0.0137
3975	0.01391
3976	0.01411
3977	0.01409
3978	0.01402
3979	0.01407
3980	0.01402
3981	0.01376
3982	0.01354
3983	0.01355
3984	0.01359
3985	0.01354
3986	0.01338
3987	0.0132
3988	0.01321
3989	0.01359
3990	0.01394
3991	0.01386
3992	0.0135
3993	0.01339
3994	0.01368
3995	0.01399
3996	0.01393
3997	0.01357