4000.18193	0.02171
3999.21756	0.02179
3998.2532	0.02184
3997.28884	0.02185
3996.32447	0.02184
3995.36011	0.02177
3994.39574	0.02173
3993.43138	0.02183
3992.46702	0.02197
3991.50265	0.02195
3990.53829	0.02182
3989.57392	0.02183
3988.60956	0.02207
3987.6452	0.02233
3986.68083	0.02248
3985.71647	0.02256
3984.7521	0.02259
3983.78774	0.02254
3982.82338	0.02239
3981.85901	0.02225
3980.89465	0.02229
3979.93028	0.02244
3978.96592	0.02258
3978.00156	0.0227
3977.03719	0.02266
3976.07283	0.02242
3975.10846	0.02228
3974.1441	0.02234
3973.17974	0.02237
3972.21537	0.02235
3971.25101	0.02251
3970.28664	0.02271
3969.32228	0.02265
3968.35792	0.02259
3967.39355	0.02279
3966.42919	0.02301
3965.46482	0.02307
3964.50046	0.02309
3963.5361	0.02314
3962.57173	0.02291
3961.60737	0.0225
3960.643	0.0225
3959.67864	0.02282
3958.71428	0.02302
3957.74991	0.02304
3956.78555	0.02304
3955.82118	0.0232
3954.85682	0.02345
3953.89246	0.02349
3952.92809	0.02336
3951.96373	0.02348
3950.99936	0.02351
3950.035	0.023
3949.07064	0.02268
3948.10627	0.0227
3947.14191	0.02272
3946.17754	0.02317
3945.21318	0.02389
3944.24882	0.02419
3943.28445	0.02355
3942.32009	0.02258
3941.35572	0.02288
3940.39136	0.02387
3939.427	0.02439
3938.46263	0.02444
3937.49827	0.02447
3936.5339	0.02468
3935.56954	0.02487
3934.60518	0.02498
3933.64081	0.02489
3932.67645	0.02396
3931.71208	0.02289
3930.74772	0.02295
3929.78336	0.02339
3928.81899	0.02369
3927.85463	0.02431
3926.89026	0.02504
3925.9259	0.02506
3924.96154	0.02379
3923.99717	0.02286
3923.03281	0.0235
3922.06844	0.02476
3921.10408	0.02532
3920.13972	0.02457
3919.17535	0.02426
3918.21099	0.02482
3917.24662	0.02415
3916.28226	0.02315
3915.3179	0.02388
3914.35353	0.02508
3913.38917	0.02563
3912.4248	0.02581
3911.46044	0.02594
3910.49608	0.02602
3909.53171	0.02607
3908.56735	0.02619
3907.60298	0.0264
3906.63862	0.02623
3905.67426	0.02539
3904.70989	0.02385
3903.74553	0.02285
3902.78116	0.02298
3901.8168	0.02299
3900.85244	0.02363
3899.88807	0.02423
3898.92371	0.02313
3897.95934	0.02324
3896.99498	0.02496
3896.03062	0.02629
3895.06625	0.02662
3894.10189	0.02644
3893.13752	0.02663
3892.17316	0.02625
3891.2088	0.02418
3890.24443	0.02392
3889.28007	0.02561
3888.3157	0.02728
3887.35134	0.02856
3886.38698	0.02789
3885.42261	0.02462
3884.45825	0.02407
3883.49388	0.02549
3882.52952	0.02681
3881.56516	0.02745
3880.60079	0.02555
3879.63643	0.02394
3878.67206	0.0255
3877.7077	0.02742
3876.74333	0.0285
3875.77897	0.02917
3874.81461	0.02814
3873.85024	0.0254
3872.88588	0.02558
3871.92151	0.02781
3870.95715	0.02865
3869.99279	0.02505
3869.02842	0.02288
3868.06406	0.0252
3867.09969	0.0281
3866.13533	0.02937
3865.17097	0.02705
3864.2066	0.02476
3863.24224	0.02599
3862.27787	0.02716
3861.31351	0.02705
3860.34915	0.02785
3859.38478	0.02931
3858.42042	0.02989
3857.45605	0.02899
3856.49169	0.02873
3855.52733	0.03065
3854.56296	0.03075
3853.5986	0.0237
3852.63423	0.02078
3851.66987	0.0229
3850.70551	0.02564
3849.74114	0.02781
3848.77678	0.02914
3847.81241	0.03022
3846.84805	0.03103
3845.88369	0.03155
3844.91932	0.0316
3843.95496	0.03019
3842.99059	0.02928
3842.02623	0.03019
3841.06187	0.02995
3840.0975	0.02832
3839.13314	0.02847
3838.16877	0.02791
3837.20441	0.02695
3836.24005	0.02852
3835.27568	0.02947
3834.31132	0.02937
3833.34695	0.03075
3832.38259	0.03166
3831.41823	0.03039
3830.45386	0.03041
3829.4895	0.03198
3828.52513	0.03302
3827.56077	0.03263
3826.59641	0.03129
3825.63204	0.0311
3824.66768	0.03217
3823.70331	0.03346
3822.73895	0.03451
3821.77459	0.0327
3820.81022	0.02739
3819.84586	0.02746
3818.88149	0.03047
3817.91713	0.03335
3816.95277	0.03432
3815.9884	0.03113
3815.02404	0.03005
3814.05967	0.03233
3813.09531	0.03428
3812.13095	0.03506
3811.16658	0.03535
3810.20222	0.03558
3809.23785	0.03627
3808.27349	0.03696
3807.30913	0.03495
3806.34476	0.03207
3805.3804	0.03318
3804.41603	0.03543
3803.45167	0.03666
3802.48731	0.03588
3801.52294	0.03168
3800.55858	0.03025
3799.59421	0.03286
3798.62985	0.03551
3797.66549	0.03649
3796.70112	0.03543
3795.73676	0.03486
3794.77239	0.03615
3793.80803	0.03761
3792.84367	0.0383
3791.8793	0.0386
3790.91494	0.03884
3789.95057	0.03899
3788.98621	0.03911
3788.02185	0.03926
3787.05748	0.03945
3786.09312	0.03937
3785.12875	0.03872
3784.16439	0.03835
3783.20003	0.03904
3782.23566	0.04006
3781.2713	0.0409
3780.30693	0.04073
3779.34257	0.03892
3778.37821	0.03845
3777.41384	0.0398
3776.44948	0.04102
3775.48511	0.04158
3774.52075	0.04181
3773.55639	0.04198
3772.59202	0.04229
3771.62766	0.0428
3770.66329	0.04225
3769.69893	0.04002
3768.73457	0.03984
3767.7702	0.04174
3766.80584	0.04289
3765.84147	0.04183
3764.87711	0.04106
3763.91275	0.04209
3762.94838	0.04326
3761.98402	0.04411
3761.01965	0.04466
3760.05529	0.04319
3759.09093	0.0411
3758.12656	0.042
3757.1622	0.04317
3756.19783	0.04301
3755.23347	0.04354
3754.26911	0.04513
3753.30474	0.04586
3752.34038	0.04244
3751.37601	0.03918
3750.41165	0.04023
3749.44729	0.04026
3748.48292	0.04023
3747.51856	0.04255
3746.55419	0.04563
3745.58983	0.04774
3744.62547	0.04349
3743.6611	0.04083
3742.69674	0.04385
3741.73237	0.04616
3740.76801	0.04672
3739.80365	0.04756
3738.83928	0.04865
3737.87492	0.04893
3736.91055	0.04849
3735.94619	0.04643
3734.98182	0.0437
3734.01746	0.04495
3733.0531	0.04747
3732.08873	0.04781
3731.12437	0.04814
3730.16	0.05015
3729.19564	0.05202
3728.23128	0.053
3727.26691	0.05275
3726.30255	0.05146
3725.33818	0.05101
3724.37382	0.052
3723.40946	0.05298
3722.44509	0.05242
3721.48073	0.05223
3720.51636	0.05371
3719.552	0.05455
3718.58764	0.05431
3717.62327	0.05483
3716.65891	0.05589
3715.69454	0.05636
3714.73018	0.05658
3713.76582	0.05737
3712.80145	0.05688
3711.83709	0.05356
3710.87272	0.05327
3709.90836	0.05502
3708.944	0.05591
3707.97963	0.05741
3707.01527	0.05927
3706.0509	0.06031
3705.08654	0.0609
3704.12218	0.06176
3703.15781	0.06245
3702.19345	0.0615
3701.22908	0.06039
3700.26472	0.06156
3699.30036	0.06332
3698.33599	0.06441
3697.37163	0.06492
3696.40726	0.0652
3695.4429	0.0656
3694.47854	0.06619
3693.51417	0.06699
3692.54981	0.06785
3691.58544	0.06707
3690.62108	0.06547
3689.65672	0.06624
3688.69235	0.06651
3687.72799	0.06628
3686.76362	0.06854
3685.79926	0.07114
3684.8349	0.07268
3683.87053	0.0737
3682.90617	0.07478
3681.9418	0.07578
3680.97744	0.07634
3680.01308	0.07598
3679.04871	0.07536
3678.08435	0.07614
3677.11998	0.07762
3676.15562	0.07646
3675.19126	0.07189
3674.22689	0.07385
3673.26253	0.07812
3672.29816	0.08148
3671.3338	0.08233
3670.36944	0.0801
3669.40507	0.07972
3668.44071	0.08208
3667.47634	0.08495
3666.51198	0.08752
3665.54762	0.08935
3664.58325	0.09068
3663.61889	0.09191
3662.65452	0.09311
3661.69016	0.0943
3660.7258	0.09538
3659.76143	0.09648
3658.79707	0.09787
3657.8327	0.09939
3656.86834	0.09969
3655.90398	0.09918
3654.93961	0.10088
3653.97525	0.10356
3653.01088	0.10579
3652.04652	0.10697
3651.08216	0.10603
3650.11779	0.10392
3649.15343	0.10454
3648.18906	0.10648
3647.2247	0.10829
3646.26034	0.11122
3645.29597	0.11486
3644.33161	0.11791
3643.36724	0.11982
3642.40288	0.12115
3641.43852	0.12275
3640.47415	0.12467
3639.50979	0.1264
3638.54542	0.12777
3637.58106	0.12924
3636.6167	0.13114
3635.65233	0.13308
3634.68797	0.13432
3633.7236	0.13498
3632.75924	0.13645
3631.79488	0.13867
3630.83051	0.1405
3629.86615	0.14033
3628.90178	0.13814
3627.93742	0.13991
3626.97306	0.14363
3626.00869	0.14678
3625.04433	0.14925
3624.07996	0.15127
3623.1156	0.15289
3622.15124	0.15429
3621.18687	0.15533
3620.22251	0.15563
3619.25814	0.15577
3618.29378	0.15696
3617.32942	0.15927
3616.36505	0.1617
3615.40069	0.16332
3614.43632	0.16421
3613.47196	0.16526
3612.5076	0.16671
3611.54323	0.1691
3610.57887	0.17184
3609.6145	0.17326
3608.65014	0.17381
3607.68578	0.17519
3606.72141	0.17727
3605.75705	0.17988
3604.79268	0.18251
3603.82832	0.18454
3602.86396	0.18609
3601.89959	0.18741
3600.93523	0.18857
3599.97086	0.19008
3599.0065	0.19203
3598.04214	0.19409
3597.07777	0.19615
3596.11341	0.19778
3595.14904	0.19918
3594.18468	0.2011
3593.22031	0.20342
3592.25595	0.20595
3591.29159	0.20853
3590.32722	0.21076
3589.36286	0.21207
3588.39849	0.21242
3587.43413	0.21326
3586.46977	0.21593
3585.5054	0.21957
3584.54104	0.22281
3583.57667	0.22537
3582.61231	0.22777
3581.64795	0.23012
3580.68358	0.23205
3579.71922	0.23397
3578.75485	0.23629
3577.79049	0.23864
3576.82613	0.24083
3575.86176	0.24303
3574.8974	0.24528
3573.93303	0.24762
3572.96867	0.25018
3572.00431	0.25267
3571.03994	0.25496
3570.07558	0.25711
3569.11121	0.25867
3568.14685	0.25912
3567.18249	0.2594
3566.21812	0.26155
3565.25376	0.26548
3564.28939	0.26944
3563.32503	0.27275
3562.36067	0.27577
3561.3963	0.27857
3560.43194	0.28096
3559.46757	0.28345
3558.50321	0.28617
3557.53885	0.28874
3556.57448	0.29124
3555.61012	0.29381
3554.64575	0.29625
3553.68139	0.29835
3552.71703	0.30044
3551.75266	0.30293
3550.7883	0.30579
3549.82393	0.30846
3548.85957	0.31072
3547.89521	0.31268
3546.93084	0.31456
3545.96648	0.31653
3545.00211	0.3185
3544.03775	0.32062
3543.07339	0.32279
3542.10902	0.32462
3541.14466	0.32603
3540.18029	0.32709
3539.21593	0.32795
3538.25157	0.32864
3537.2872	0.32902
3536.32284	0.32914
3535.35847	0.32954
3534.39411	0.33026
3533.42975	0.33089
3532.46538	0.33135
3531.50102	0.33176
3530.53665	0.33229
3529.57229	0.33289
3528.60793	0.33354
3527.64356	0.33458
3526.6792	0.33613
3525.71483	0.33801
3524.75047	0.33985
3523.78611	0.3414
3522.82174	0.34294
3521.85738	0.345
3520.89301	0.34726
3519.92865	0.34927
3518.96429	0.35121
3517.99992	0.35331
3517.03556	0.35558
3516.07119	0.35796
3515.10683	0.3604
3514.14247	0.36275
3513.1781	0.36485
3512.21374	0.36685
3511.24937	0.36886
3510.28501	0.37081
3509.32065	0.37296
3508.35628	0.37575
3507.39192	0.37876
3506.42755	0.38145
3505.46319	0.38378
3504.49883	0.38595
3503.53446	0.38812
3502.5701	0.39063
3501.60573	0.39341
3500.64137	0.39617
3499.67701	0.39883
3498.71264	0.40131
3497.74828	0.40343
3496.78391	0.40522
3495.81955	0.40704
3494.85519	0.40894
3493.89082	0.41069
3492.92646	0.4121
3491.96209	0.41324
3490.99773	0.41426
3490.03337	0.41522
3489.069	0.41603
3488.10464	0.41681
3487.14027	0.41783
3486.17591	0.41893
3485.21155	0.41993
3484.24718	0.42096
3483.28282	0.42196
3482.31845	0.42295
3481.35409	0.42437
3480.38973	0.42635
3479.42536	0.4284
3478.461	0.43031
3477.49663	0.43211
3476.53227	0.43381
3475.56791	0.43552
3474.60354	0.4373
3473.63918	0.43919
3472.67481	0.44124
3471.71045	0.44346
3470.74609	0.44577
3469.78172	0.44811
3468.81736	0.45039
3467.85299	0.45249
3466.88863	0.45453
3465.92427	0.45663
3464.9599	0.45883
3463.99554	0.46097
3463.03117	0.463
3462.06681	0.46518
3461.10245	0.4676
3460.13808	0.47002
3459.17372	0.47222
3458.20935	0.4743
3457.24499	0.47646
3456.28062	0.47876
3455.31626	0.48096
3454.3519	0.48296
3453.38753	0.48498
3452.42317	0.48718
3451.4588	0.48937
3450.49444	0.49134
3449.53008	0.4931
3448.56571	0.49459
3447.60135	0.4958
3446.63698	0.49737
3445.67262	0.49954
3444.70826	0.50165
3443.74389	0.50341
3442.77953	0.50511
3441.81516	0.50698
3440.8508	0.50891
3439.88644	0.51069
3438.92207	0.51227
3437.95771	0.51379
3436.99334	0.51537
3436.02898	0.51692
3435.06462	0.51851
3434.10025	0.52014
3433.13589	0.52169
3432.17152	0.52311
3431.20716	0.52461
3430.2428	0.52624
3429.27843	0.52781
3428.31407	0.52925
3427.3497	0.53078
3426.38534	0.53249
3425.42098	0.53412
3424.45661	0.53552
3423.49225	0.53679
3422.52788	0.53804
3421.56352	0.53919
3420.59916	0.54022
3419.63479	0.54148
3418.67043	0.54301
3417.70606	0.54449
3416.7417	0.54572
3415.77734	0.54668
3414.81297	0.54747
3413.84861	0.54821
3412.88424	0.54902
3411.91988	0.54987
3410.95552	0.55057
3409.99115	0.55108
3409.02679	0.55163
3408.06242	0.55223
3407.09806	0.55271
3406.1337	0.553
3405.16933	0.55306
3404.20497	0.5529
3403.2406	0.55266
3402.27624	0.55251
3401.31188	0.5524
3400.34751	0.55229
3399.38315	0.55234
3398.41878	0.55245
3397.45442	0.55242
3396.49006	0.55232
3395.52569	0.55217
3394.56133	0.5519
3393.59696	0.55144
3392.6326	0.55105
3391.66824	0.5511
3390.70387	0.55142
3389.73951	0.55158
3388.77514	0.55155
3387.81078	0.55143
3386.84642	0.55126
3385.88205	0.55102
3384.91769	0.55079
3383.95332	0.55064
3382.98896	0.55051
3382.0246	0.5503
3381.06023	0.5501
3380.09587	0.55001
3379.1315	0.5499
3378.16714	0.54956
3377.20278	0.54911
3376.23841	0.54883
3375.27405	0.54877
3374.30968	0.54863
3373.34532	0.54824
3372.38096	0.54772
3371.41659	0.54727
3370.45223	0.54683
3369.48786	0.54634
3368.5235	0.5459
3367.55914	0.54549
3366.59477	0.54506
3365.63041	0.54462
3364.66604	0.54424
3363.70168	0.54387
3362.73732	0.54333
3361.77295	0.54261
3360.80859	0.54188
3359.84422	0.54119
3358.87986	0.54055
3357.9155	0.53992
3356.95113	0.53935
3355.98677	0.53877
3355.0224	0.53811
3354.05804	0.5375
3353.09368	0.53697
3352.12931	0.53635
3351.16495	0.53564
3350.20058	0.535
3349.23622	0.53445
3348.27186	0.53387
3347.30749	0.53317
3346.34313	0.53243
3345.37876	0.53182
3344.4144	0.53128
3343.45004	0.5307
3342.48567	0.5301
3341.52131	0.52941
3340.55694	0.52873
3339.59258	0.52824
3338.62822	0.52776
3337.66385	0.52702
3336.69949	0.52617
3335.73512	0.52554
3334.77076	0.52505
3333.8064	0.5245
3332.84203	0.52388
3331.87767	0.52323
3330.9133	0.52257
3329.94894	0.52191
3328.98458	0.52131
3328.02021	0.52074
3327.05585	0.5201
3326.09148	0.51941
3325.12712	0.51868
3324.16276	0.51789
3323.19839	0.51721
3322.23403	0.51672
3321.26966	0.51621
3320.3053	0.51554
3319.34094	0.51473
3318.37657	0.51386
3317.41221	0.51309
3316.44784	0.51254
3315.48348	0.51203
3314.51911	0.51135
3313.55475	0.51056
3312.59039	0.50994
3311.62602	0.5095
3310.66166	0.50901
3309.69729	0.5084
3308.73293	0.50778
3307.76857	0.50717
3306.8042	0.50651
3305.83984	0.50583
3304.87547	0.50516
3303.91111	0.50456
3302.94675	0.50403
3301.98238	0.50344
3301.01802	0.50272
3300.05365	0.50203
3299.08929	0.50149
3298.12493	0.50094
3297.16056	0.50037
3296.1962	0.49989
3295.23183	0.49948
3294.26747	0.49906
3293.30311	0.49854
3292.33874	0.4979
3291.37438	0.49727
3290.41001	0.49684
3289.44565	0.49652
3288.48129	0.49614
3287.51692	0.49574
3286.55256	0.49541
3285.58819	0.49512
3284.62383	0.49489
3283.65947	0.49462
3282.6951	0.49432
3281.73074	0.49411
3280.76637	0.49402
3279.80201	0.49402
3278.83765	0.49403
3277.87328	0.49402
3276.90892	0.49397
3275.94455	0.49397
3274.98019	0.49404
3274.01583	0.49418
3273.05146	0.49457
3272.0871	0.49509
3271.12273	0.49542
3270.15837	0.49563
3269.19401	0.49589
3268.22964	0.49618
3267.26528	0.49647
3266.30091	0.49686
3265.33655	0.49742
3264.37219	0.49805
3263.40782	0.49859
3262.44346	0.49908
3261.47909	0.49955
3260.51473	0.50001
3259.55037	0.50054
3258.586	0.50123
3257.62164	0.50204
3256.65727	0.50279
3255.69291	0.50336
3254.72855	0.5038
3253.76418	0.50441
3252.79982	0.50522
3251.83545	0.50597
3250.87109	0.5067
3249.90673	0.50756
3248.94236	0.50838
3247.978	0.50909
3247.01363	0.50971
3246.04927	0.51003
3245.08491	0.50993
3244.12054	0.50979
3243.15618	0.50972
3242.19181	0.50943
3241.22745	0.50876
3240.26309	0.50774
3239.29872	0.50644
3238.33436	0.50473
3237.36999	0.50265
3236.40563	0.50049
3235.44127	0.49843
3234.4769	0.49624
3233.51254	0.49383
3232.54817	0.49125
3231.58381	0.48859
3230.61945	0.48582
3229.65508	0.48309
3228.69072	0.48051
3227.72635	0.47802
3226.76199	0.47554
3225.79763	0.47306
3224.83326	0.47052
3223.8689	0.46792
3222.90453	0.46539
3221.94017	0.46301
3220.97581	0.46067
3220.01144	0.45828
3219.04708	0.45606
3218.08271	0.45417
3217.11835	0.45238
3216.15399	0.45051
3215.18962	0.44862
3214.22526	0.44683
3213.26089	0.44537
3212.29653	0.44419
3211.33217	0.44292
3210.3678	0.44152
3209.40344	0.44014
3208.43907	0.43884
3207.47471	0.43763
3206.51035	0.43646
3205.54598	0.43513
3204.58162	0.4336
3203.61725	0.43192
3202.65289	0.43013
3201.68853	0.42824
3200.72416	0.42629
3199.7598	0.42424
3198.79543	0.42199
3197.83107	0.41953
3196.86671	0.41706
3195.90234	0.41468
3194.93798	0.41224
3193.97361	0.40968
3193.00925	0.40704
3192.04489	0.40444
3191.08052	0.40187
3190.11616	0.39925
3189.15179	0.39659
3188.18743	0.39393
3187.22307	0.39129
3186.2587	0.38871
3185.29434	0.38617
3184.32997	0.3837
3183.36561	0.38127
3182.40125	0.37881
3181.43688	0.37632
3180.47252	0.37391
3179.50815	0.37155
3178.54379	0.36912
3177.57943	0.3667
3176.61506	0.36446
3175.6507	0.3623
3174.68633	0.36011
3173.72197	0.3579
3172.7576	0.35571
3171.79324	0.35358
3170.82888	0.35151
3169.86451	0.34945
3168.90015	0.34742
3167.93578	0.34543
3166.97142	0.34345
3166.00706	0.34146
3165.04269	0.33948
3164.07833	0.33752
3163.11396	0.33556
3162.1496	0.33365
3161.18524	0.33186
3160.22087	0.33015
3159.25651	0.32844
3158.29214	0.32673
3157.32778	0.32511
3156.36342	0.32357
3155.39905	0.32208
3154.43469	0.32068
3153.47032	0.31938
3152.50596	0.31817
3151.5416	0.31702
3150.57723	0.31599
3149.61287	0.31513
3148.6485	0.31441
3147.68414	0.31386
3146.71978	0.31358
3145.75541	0.31366
3144.79105	0.31407
3143.82668	0.31466
3142.86232	0.3152
3141.89796	0.31542
3140.93359	0.31498
3139.96923	0.31367
3139.00486	0.31152
3138.0405	0.30883
3137.07614	0.30591
3136.11177	0.30308
3135.14741	0.30052
3134.18304	0.29824
3133.21868	0.2962
3132.25432	0.29451
3131.28995	0.2931
3130.32559	0.29171
3129.36122	0.29024
3128.39686	0.28872
3127.4325	0.2872
3126.46813	0.28576
3125.50377	0.28438
3124.5394	0.28298
3123.57504	0.28153
3122.61068	0.28009
3121.64631	0.27878
3120.68195	0.27752
3119.71758	0.27614
3118.75322	0.27479
3117.78886	0.27356
3116.82449	0.2723
3115.86013	0.27098
3114.89576	0.26979
3113.9314	0.26866
3112.96704	0.26747
3112.00267	0.2663
3111.03831	0.26522
3110.07394	0.26425
3109.10958	0.26332
3108.14522	0.26232
3107.18085	0.26133
3106.21649	0.26045
3105.25212	0.25965
3104.28776	0.25888
3103.3234	0.2581
3102.35903	0.25739
3101.39467	0.25675
3100.4303	0.25617
3099.46594	0.2556
3098.50158	0.25504
3097.53721	0.25445
3096.57285	0.25388
3095.60848	0.25349
3094.64412	0.25331
3093.67976	0.25321
3092.71539	0.25314
3091.75103	0.25309
3090.78666	0.25302
3089.8223	0.25288
3088.85794	0.25267
3087.89357	0.25245
3086.92921	0.25221
3085.96484	0.25197
3085.00048	0.25173
3084.03612	0.2515
3083.07175	0.25129
3082.10739	0.25116
3081.14302	0.25119
3080.17866	0.25134
3079.2143	0.25158
3078.24993	0.25197
3077.28557	0.25251
3076.3212	0.25318
3075.35684	0.25395
3074.39248	0.25479
3073.42811	0.25573
3072.46375	0.25683
3071.49938	0.25806
3070.53502	0.25935
3069.57066	0.26064
3068.60629	0.26192
3067.64193	0.26314
3066.67756	0.26427
3065.7132	0.26527
3064.74884	0.2661
3063.78447	0.26678
3062.82011	0.26729
3061.85574	0.2675
3060.89138	0.26738
3059.92702	0.26696
3058.96265	0.26624
3057.99829	0.26521
3057.03392	0.26381
3056.06956	0.26214
3055.1052	0.26035
3054.14083	0.25839
3053.17647	0.25624
3052.2121	0.254
3051.24774	0.25168
3050.28338	0.24925
3049.31901	0.24673
3048.35465	0.2443
3047.39028	0.24201
3046.42592	0.23974
3045.46156	0.23746
3044.49719	0.23526
3043.53283	0.23321
3042.56846	0.2313
3041.6041	0.22947
3040.63974	0.22767
3039.67537	0.22591
3038.71101	0.22418
3037.74664	0.22247
3036.78228	0.22081
3035.81792	0.21917
3034.85355	0.21756
3033.88919	0.216
3032.92482	0.21444
3031.96046	0.21284
3030.99609	0.21138
3030.03173	0.2102
3029.06737	0.20906
3028.103	0.20783
3027.13864	0.20661
3026.17427	0.20544
3025.20991	0.20433
3024.24555	0.20323
3023.28118	0.20202
3022.31682	0.20077
3021.35245	0.19959
3020.38809	0.1985
3019.42373	0.19746
3018.45936	0.19642
3017.495	0.1954
3016.53063	0.19442
3015.56627	0.19355
3014.60191	0.19279
3013.63754	0.19203
3012.67318	0.19132
3011.70881	0.19081
3010.74445	0.19047
3009.78009	0.19027
3008.81572	0.19027
3007.85136	0.19043
3006.88699	0.1907
3005.92263	0.19111
3004.95827	0.19169
3003.9939	0.19242
3003.02954	0.1933
3002.06517	0.19436
3001.10081	0.19562
3000.13645	0.19704
2999.17208	0.1985
2998.20772	0.19992
2997.24335	0.20133
2996.27899	0.20286
2995.31463	0.20464
2994.35026	0.20671
2993.3859	0.20896
2992.42153	0.21118
2991.45717	0.21326
2990.49281	0.21512
2989.52844	0.21665
2988.56408	0.21779
2987.59971	0.2186
2986.63535	0.21913
2985.67099	0.2194
2984.70662	0.21955
2983.74226	0.21973
2982.77789	0.22004
2981.81353	0.22044
2980.84917	0.22089
2979.8848	0.2214
2978.92044	0.22194
2977.95607	0.22249
2976.99171	0.22302
2976.02735	0.22341
2975.06298	0.22353
2974.09862	0.22334
2973.13425	0.22285
2972.16989	0.22209
2971.20553	0.2211
2970.24116	0.21993
2969.2768	0.21868
2968.31243	0.21746
2967.34807	0.21624
2966.38371	0.21505
2965.41934	0.21397
2964.45498	0.21321
2963.49061	0.21305
2962.52625	0.21368
2961.56189	0.21511
2960.59752	0.21711
2959.63316	0.21917
2958.66879	0.22057
2957.70443	0.22085
2956.74007	0.22007
2955.7757	0.21884
2954.81134	0.21805
2953.84697	0.21836
2952.88261	0.21984
2951.91825	0.22214
2950.95388	0.22495
2949.98952	0.22813
2949.02515	0.23173
2948.06079	0.23583
2947.09643	0.24043
2946.13206	0.24553
2945.1677	0.25097
2944.20333	0.25632
2943.23897	0.26107
2942.27461	0.26488
2941.31024	0.26741
2940.34588	0.26827
2939.38151	0.26736
2938.41715	0.26522
2937.45279	0.26283
2936.48842	0.2611
2935.52406	0.26049
2934.55969	0.26099
2933.59533	0.26234
2932.63097	0.26435
2931.6666	0.26711
2930.70224	0.27055
2929.73787	0.27371
2928.77351	0.27498
2927.80915	0.2736
2926.84478	0.27038
2925.88042	0.26677
2924.91605	0.26356
2923.95169	0.26076
2922.98733	0.25809
2922.02296	0.25538
2921.0586	0.25269
2920.09423	0.25018
2919.12987	0.24762
2918.16551	0.24427
2917.20114	0.2398
2916.23678	0.23466
2915.27241	0.22963
2914.30805	0.22511
2913.34369	0.22111
2912.37932	0.21752
2911.41496	0.21435
2910.45059	0.21168
2909.48623	0.20947
2908.52187	0.2076
2907.5575	0.20597
2906.59314	0.20456
2905.62877	0.20344
2904.66441	0.20263
2903.70005	0.20189
2902.73568	0.20094
2901.77132	0.19957
2900.80695	0.19782
2899.84259	0.19594
2898.87823	0.19434
2897.91386	0.19329
2896.9495	0.19258
2895.98513	0.19162
2895.02077	0.18994
2894.05641	0.18768
2893.09204	0.18532
2892.12768	0.18321
2891.16331	0.18148
2890.19895	0.18007
2889.23458	0.17881
2888.27022	0.17752
2887.30586	0.1761
2886.34149	0.17456
2885.37713	0.17294
2884.41276	0.17134
2883.4484	0.16986
2882.48404	0.16856
2881.51967	0.16741
2880.55531	0.16637
2879.59094	0.16541
2878.62658	0.16443
2877.66222	0.16337
2876.69785	0.16223
2875.73349	0.16097
2874.76912	0.15954
2873.80476	0.15787
2872.8404	0.15594
2871.87603	0.1538
2870.91167	0.15149
2869.9473	0.14912
2868.98294	0.14682
2868.01858	0.1446
2867.05421	0.14246
2866.08985	0.14041
2865.12548	0.13853
2864.16112	0.13677
2863.19676	0.13507
2862.23239	0.13348
2861.26803	0.13207
2860.30366	0.13075
2859.3393	0.1294
2858.37494	0.12802
2857.41057	0.12673
2856.44621	0.12549
2855.48184	0.12425
2854.51748	0.12301
2853.55312	0.12182
2852.58875	0.12068
2851.62439	0.11958
2850.66002	0.11858
2849.69566	0.11771
2848.7313	0.11692
2847.76693	0.11609
2846.80257	0.11524
2845.8382	0.11441
2844.87384	0.11362
2843.90948	0.11282
2842.94511	0.112
2841.98075	0.11124
2841.01638	0.11059
2840.05202	0.10999
2839.08766	0.10938
2838.12329	0.10872
2837.15893	0.10805
2836.19456	0.10748
2835.2302	0.10699
2834.26584	0.10645
2833.30147	0.10591
2832.33711	0.10547
2831.37274	0.10504
2830.40838	0.10462
2829.44402	0.10422
2828.47965	0.10384
2827.51529	0.10348
2826.55092	0.10312
2825.58656	0.10274
2824.6222	0.10234
2823.65783	0.10189
2822.69347	0.10142
2821.7291	0.10094
2820.76474	0.10048
2819.80038	0.10001
2818.83601	0.09957
2817.87165	0.09924
2816.90728	0.09899
2815.94292	0.09878
2814.97856	0.09856
2814.01419	0.09833
2813.04983	0.09803
2812.08546	0.09763
2811.1211	0.09702
2810.15674	0.09612
2809.19237	0.09496
2808.22801	0.09375
2807.26364	0.0926
2806.29928	0.09153
2805.33492	0.09055
2804.37055	0.08963
2803.40619	0.08879
2802.44182	0.08799
2801.47746	0.08724
2800.5131	0.08652
2799.54873	0.0859
2798.58437	0.0853
2797.62	0.08462
2796.65564	0.08389
2795.69128	0.08317
2794.72691	0.08248
2793.76255	0.08185
2792.79818	0.08133
2791.83382	0.08085
2790.86946	0.08036
2789.90509	0.07988
2788.94073	0.07942
2787.97636	0.07891
2787.012	0.07837
2786.04764	0.07786
2785.08327	0.0774
2784.11891	0.077
2783.15454	0.07662
2782.19018	0.07621
2781.22582	0.07578
2780.26145	0.07537
2779.29709	0.075
2778.33272	0.07464
2777.36836	0.0743
2776.404	0.074
2775.43963	0.07371
2774.47527	0.07339
2773.5109	0.07304
2772.54654	0.07265
2771.58218	0.07228
2770.61781	0.07198
2769.65345	0.07174
2768.68908	0.07152
2767.72472	0.07131
2766.76036	0.07112
2765.79599	0.07095
2764.83163	0.07079
2763.86726	0.07063
2762.9029	0.07045
2761.93854	0.07029
2760.97417	0.07019
2760.00981	0.0701
2759.04544	0.07002
2758.08108	0.06994
2757.11672	0.06986
2756.15235	0.06979
2755.18799	0.06969
2754.22362	0.06954
2753.25926	0.06936
2752.2949	0.06921
2751.33053	0.0691
2750.36617	0.06895
2749.4018	0.06872
2748.43744	0.06851
2747.47307	0.06831
2746.50871	0.06808
2745.54435	0.06785
2744.57998	0.06767
2743.61562	0.06751
2742.65125	0.06734
2741.68689	0.0672
2740.72253	0.06707
2739.75816	0.06694
2738.7938	0.06682
2737.82943	0.06674
2736.86507	0.06662
2735.90071	0.06641
2734.93634	0.06617
2733.97198	0.06597
2733.00761	0.06582
2732.04325	0.06564
2731.07889	0.06541
2730.11452	0.06516
2729.15016	0.06493
2728.18579	0.06478
2727.22143	0.06465
2726.25707	0.06446
2725.2927	0.06416
2724.32834	0.06384
2723.36397	0.06358
2722.39961	0.06333
2721.43525	0.06299
2720.47088	0.06261
2719.50652	0.06225
2718.54215	0.06192
2717.57779	0.06153
2716.61343	0.06109
2715.64906	0.06063
2714.6847	0.06016
2713.72033	0.05968
2712.75597	0.05914
2711.79161	0.05857
2710.82724	0.05802
2709.86288	0.05751
2708.89851	0.05699
2707.93415	0.05643
2706.96979	0.05584
2706.00542	0.05527
2705.04106	0.05478
2704.07669	0.05433
2703.11233	0.05385
2702.14797	0.05336
2701.1836	0.05288
2700.21924	0.05246
2699.25487	0.05202
2698.29051	0.05151
2697.32615	0.05089
2696.36178	0.05031
2695.39742	0.04982
2694.43305	0.04936
2693.46869	0.04884
2692.50433	0.04829
2691.53996	0.04778
2690.5756	0.04733
2689.61123	0.04689
2688.64687	0.04641
2687.68251	0.04592
2686.71814	0.04545
2685.75378	0.04504
2684.78941	0.04465
2683.82505	0.04422
2682.86069	0.0438
2681.89632	0.04349
2680.93196	0.04324
2679.96759	0.04296
2679.00323	0.0426
2678.03887	0.04224
2677.0745	0.04194
2676.11014	0.0417
2675.14577	0.04146
2674.18141	0.04121
2673.21705	0.0409
2672.25268	0.04057
2671.28832	0.04027
2670.32395	0.04003
2669.35959	0.03975
2668.39523	0.03942
2667.43086	0.0391
2666.4665	0.03883
2665.50213	0.03859
2664.53777	0.0383
2663.57341	0.03798
2662.60904	0.03767
2661.64468	0.03738
2660.68031	0.03707
2659.71595	0.03674
2658.75159	0.03641
2657.78722	0.0361
2656.82286	0.03581
2655.85849	0.03549
2654.89413	0.03515
2653.92977	0.0348
2652.9654	0.03447
2652.00104	0.03417
2651.03667	0.03384
2650.07231	0.03347
2649.10795	0.03314
2648.14358	0.03285
2647.17922	0.03255
2646.21485	0.03221
2645.25049	0.03187
2644.28613	0.03156
2643.32176	0.03133
2642.3574	0.03109
2641.39303	0.03079
2640.42867	0.03048
2639.46431	0.0302
2638.49994	0.02997
2637.53558	0.02966
2636.57121	0.02924
2635.60685	0.0288
2634.64249	0.0284
2633.67812	0.02801
2632.71376	0.02758
2631.74939	0.02709
2630.78503	0.02661
2629.82067	0.02621
2628.8563	0.02588
2627.89194	0.02553
2626.92757	0.02511
2625.96321	0.02467
2624.99885	0.02427
2624.03448	0.02392
2623.07012	0.02357
2622.10575	0.02322
2621.14139	0.02289
2620.17703	0.02261
2619.21266	0.02239
2618.2483	0.02215
2617.28393	0.02189
2616.31957	0.02165
2615.35521	0.02145
2614.39084	0.02127
2613.42648	0.02105
2612.46211	0.0208
2611.49775	0.02063
2610.53339	0.02053
2609.56902	0.02046
2608.60466	0.02034
2607.64029	0.0202
2606.67593	0.02011
2605.71156	0.02009
2604.7472	0.02005
2603.78284	0.01994
2602.81847	0.01981
2601.85411	0.01974
2600.88974	0.01971
2599.92538	0.01968
2598.96102	0.0196
2597.99665	0.01951
2597.03229	0.01947
2596.06792	0.0195
2595.10356	0.01947
2594.1392	0.01934
2593.17483	0.01919
2592.21047	0.0191
2591.2461	0.01905
2590.28174	0.01893
2589.31738	0.01871
2588.35301	0.01847
2587.38865	0.01829
2586.42428	0.01816
2585.45992	0.01798
2584.49556	0.01774
2583.53119	0.01749
2582.56683	0.01733
2581.60246	0.01721
2580.6381	0.01705
2579.67374	0.01683
2578.70937	0.01664
2577.74501	0.01654
2576.78064	0.01646
2575.81628	0.01633
2574.85192	0.01615
2573.88755	0.016
2572.92319	0.01593
2571.95882	0.0159
2570.99446	0.01579
2570.0301	0.01564
2569.06573	0.01551
2568.10137	0.01545
2567.137	0.01537
2566.17264	0.01522
2565.20828	0.015
2564.24391	0.0148
2563.27955	0.01471
2562.31518	0.01465
2561.35082	0.01451
2560.38646	0.0143
2559.42209	0.01417
2558.45773	0.01415
2557.49336	0.01414
2556.529	0.01403
2555.56464	0.01389
2554.60027	0.0138
2553.63591	0.01378
2552.67154	0.01374
2551.70718	0.01361
2550.74282	0.01344
2549.77845	0.01333
2548.81409	0.01329
2547.84972	0.01321
2546.88536	0.01303
2545.921	0.01283
2544.95663	0.01268
2543.99227	0.01259
2543.0279	0.01246
2542.06354	0.01225
2541.09918	0.01205
2540.13481	0.01196
2539.17045	0.01191
2538.20608	0.0118
2537.24172	0.01161
2536.27736	0.01139
2535.31299	0.01124
2534.34863	0.01113
2533.38426	0.01098
2532.4199	0.01076
2531.45554	0.01055
2530.49117	0.01041
2529.52681	0.01029
2528.56244	0.01012
2527.59808	0.0099
2526.63372	0.00971
2525.66935	0.0096
2524.70499	0.00953
2523.74062	0.00938
2522.77626	0.0092
2521.8119	0.00908
2520.84753	0.00902
2519.88317	0.00895
2518.9188	0.00876
2517.95444	0.00854
2516.99008	0.00839
2516.02571	0.00831
2515.06135	0.00823
2514.09698	0.00809
2513.13262	0.00794
2512.16826	0.00784
2511.20389	0.00781
2510.23953	0.00774
2509.27516	0.0076
2508.3108	0.00746
2507.34644	0.00741
2506.38207	0.00741
2505.41771	0.00737
2504.45334	0.00724
2503.48898	0.00713
2502.52462	0.00713
2501.56025	0.00717
2500.59589	0.00716
2499.63152	0.00708
2498.66716	0.00702
2497.7028	0.00704
2496.73843	0.00708
2495.77407	0.00704
2494.8097	0.00692
2493.84534	0.00685
2492.88098	0.00688
2491.91661	0.00694
2490.95225	0.0069
2489.98788	0.00678
2489.02352	0.00669
2488.05916	0.00671
2487.09479	0.00671
2486.13043	0.00662
2485.16606	0.00646
2484.2017	0.00636
2483.23734	0.00636
2482.27297	0.00637
2481.30861	0.0063
2480.34424	0.00615
2479.37988	0.00605
2478.41552	0.00604
2477.45115	0.006
2476.48679	0.00587
2475.52242	0.00571
2474.55806	0.00563
2473.5937	0.00565
2472.62933	0.00563
2471.66497	0.00549
2470.7006	0.00533
2469.73624	0.00527
2468.77187	0.00528
2467.80751	0.00523
2466.84315	0.00508
2465.87878	0.00493
2464.91442	0.0049
2463.95005	0.00495
2462.98569	0.00493
2462.02133	0.00482
2461.05696	0.0047
2460.0926	0.00465
2459.12823	0.00465
2458.16387	0.00461
2457.19951	0.00446
2456.23514	0.00432
2455.27078	0.00429
2454.30641	0.00432
2453.34205	0.00428
2452.37769	0.00415
2451.41332	0.00405
2450.44896	0.00407
2449.48459	0.00414
2448.52023	0.0041
2447.55587	0.00398
2446.5915	0.0039
2445.62714	0.00391
2444.66277	0.00393
2443.69841	0.00384
2442.73405	0.00366
2441.76968	0.00353
2440.80532	0.0035
2439.84095	0.00347
2438.87659	0.00333
2437.91223	0.00314
2436.94786	0.00302
2435.9835	0.00299
2435.01913	0.00295
2434.05477	0.0028
2433.09041	0.0026
2432.12604	0.00247
2431.16168	0.00243
2430.19731	0.00239
2429.23295	0.00225
2428.26859	0.00205
2427.30422	0.00191
2426.33986	0.00186
2425.37549	0.00177
2424.41113	0.00159
2423.44677	0.0014
2422.4824	0.00129
2421.51804	0.00125
2420.55367	0.00117
2419.58931	9.92037E-4
2418.62495	8.22707E-4
2417.66058	7.47114E-4
2416.69622	7.21993E-4
2415.73185	6.53609E-4
2414.76749	4.9149E-4
2413.80313	3.36582E-4
2412.83876	2.9704E-4
2411.8744	3.29602E-4
2410.91003	3.11692E-4
2409.94567	2.21677E-4
2408.98131	1.46083E-4
2408.01694	1.57014E-4
2407.05258	2.03997E-4
2406.08821	1.86086E-4
2405.12385	1.03282E-4
2404.15949	5.65294E-5
2403.19512	1.10723E-4
2402.23076	1.86548E-4
2401.26639	1.68637E-4
2400.30203	6.42016E-5
2399.33767	3.02826E-6
2398.3733	3.55908E-5
2397.40894	9.69945E-5
2396.44457	7.90841E-5
2395.48021	1.07004E-5
2394.51585	0
2393.55148	8.30354E-5
2392.58712	1.6607E-4
2391.62275	1.62581E-4
2390.65839	1.08618E-4
2389.69403	1.4839E-4
2388.72966	2.81899E-4
2387.7653	3.86565E-4
2386.80093	4.19127E-4
2385.83657	4.80531E-4
2384.87221	6.78933E-4
2383.90784	0.00102
2382.94348	0.00141
2381.97911	0.00176
2381.01475	0.0021
2380.05039	0.00252
2379.08602	0.00302
2378.12166	0.00347
2377.15729	0.00387
2376.19293	0.00432
2375.22857	0.00493
2374.2642	0.00562
2373.29984	0.00625
2372.33547	0.00682
2371.37111	0.00742
2370.40675	0.00808
2369.44238	0.00879
2368.47802	0.00935
2367.51365	0.00974
2366.54929	0.01022
2365.58493	0.01079
2364.62056	0.01127
2363.6562	0.01153
2362.69183	0.01158
2361.72747	0.01166
2360.76311	0.01191
2359.79874	0.01205
2358.83438	0.01184
2357.87001	0.01146
2356.90565	0.01097
2355.94129	0.01028
2354.97692	0.00955
2354.01256	0.00892
2353.04819	0.00826
2352.08383	0.00747
2351.11947	0.00664
2350.1551	0.00586
2349.19074	0.00544
2348.22637	0.00567
2347.26201	0.00638
2346.29765	0.00722
2345.33328	0.00785
2344.36892	0.0082
2343.40455	0.00842
2342.44019	0.00862
2341.47583	0.00873
2340.51146	0.00867
2339.5471	0.00848
2338.58273	0.00834
2337.61837	0.00834
2336.65401	0.0083
2335.68964	0.00816
2334.72528	0.00806
2333.76091	0.00801
2332.79655	0.00797
2331.83219	0.0079
2330.86782	0.00775
2329.90346	0.00755
2328.93909	0.00733
2327.97473	0.00721
2327.01036	0.00718
2326.046	0.00701
2325.08164	0.00671
2324.11727	0.00641
2323.15291	0.00625
2322.18854	0.00611
2321.22418	0.00583
2320.25982	0.00545
2319.29545	0.00507
2318.33109	0.00479
2317.36672	0.0046
2316.40236	0.00441
2315.438	0.00418
2314.47363	0.00404
2313.50927	0.00399
2312.5449	0.00398
2311.58054	0.00388
2310.61618	0.00371
2309.65181	0.00357
2308.68745	0.00353
2307.72308	0.00346
2306.75872	0.00329
2305.79436	0.00305
2304.82999	0.00289
2303.86563	0.00288
2302.90126	0.00292
2301.9369	0.0029
2300.97254	0.00282
2300.00817	0.00277
2299.04381	0.00277
2298.07944	0.00278
2297.11508	0.00271
2296.15072	0.00261
2295.18635	0.00258
2294.22199	0.00261
2293.25762	0.0026
2292.29326	0.00249
2291.3289	0.00237
2290.36453	0.00234
2289.40017	0.00239
2288.4358	0.00236
2287.47144	0.00227
2286.50708	0.0022
2285.54271	0.00224
2284.57835	0.00233
2283.61398	0.00236
2282.64962	0.00236
2281.68526	0.0024
2280.72089	0.00255
2279.75653	0.00273
2278.79216	0.00283
2277.8278	0.00287
2276.86344	0.00293
2275.89907	0.00307
2274.93471	0.00322
2273.97034	0.00328
2273.00598	0.00327
2272.04162	0.0033
2271.07725	0.00344
2270.11289	0.00361
2269.14852	0.00367
2268.18416	0.00367
2267.2198	0.00373
2266.25543	0.00388
2265.29107	0.00405
2264.3267	0.00411
2263.36234	0.00413
2262.39798	0.00422
2261.43361	0.0044
2260.46925	0.00455
2259.50488	0.00462
2258.54052	0.00463
2257.57616	0.00471
2256.61179	0.00487
2255.64743	0.00502
2254.68306	0.00507
2253.7187	0.00509
2252.75434	0.0052
2251.78997	0.00539
2250.82561	0.00552
2249.86124	0.00555
2248.89688	0.00559
2247.93252	0.00573
2246.96815	0.00594
2246.00379	0.00607
2245.03942	0.00609
2244.07506	0.00613
2243.1107	0.00629
2242.14633	0.00652
2241.18197	0.00667
2240.2176	0.00671
2239.25324	0.00676
2238.28888	0.00692
2237.32451	0.00713
2236.36015	0.00725
2235.39578	0.00728
2234.43142	0.00734
2233.46706	0.0075
2232.50269	0.0077
2231.53833	0.00781
2230.57396	0.00784
2229.6096	0.00791
2228.64524	0.00811
2227.68087	0.00832
2226.71651	0.00843
2225.75214	0.00847
2224.78778	0.00858
2223.82342	0.0088
2222.85905	0.00903
2221.89469	0.00917
2220.93032	0.00922
2219.96596	0.0093
2219.0016	0.00945
2218.03723	0.00958
2217.07287	0.00962
2216.1085	0.00961
2215.14414	0.00966
2214.17978	0.0098
2213.21541	0.00992
2212.25105	0.00993
2211.28668	0.0099
2210.32232	0.00997
2209.35796	0.01015
2208.39359	0.01031
2207.42923	0.01037
2206.46486	0.01039
2205.5005	0.01051
2204.53614	0.01072
2203.57177	0.01091
2202.60741	0.011
2201.64304	0.01106
2200.67868	0.0112
2199.71432	0.01142
2198.74995	0.01161
2197.78559	0.01169
2196.82122	0.01174
2195.85686	0.01191
2194.8925	0.01213
2193.92813	0.01229
2192.96377	0.01234
2191.9994	0.0124
2191.03504	0.01253
2190.07068	0.01273
2189.10631	0.01288
2188.14195	0.01295
2187.17758	0.01301
2186.21322	0.01315
2185.24885	0.0133
2184.28449	0.01342
2183.32013	0.01347
2182.35576	0.01353
2181.3914	0.01366
2180.42703	0.01383
2179.46267	0.01396
2178.49831	0.01401
2177.53394	0.01406
2176.56958	0.01417
2175.60521	0.01431
2174.64085	0.0144
2173.67649	0.01446
2172.71212	0.01453
2171.74776	0.01467
2170.78339	0.01482
2169.81903	0.01491
2168.85467	0.01497
2167.8903	0.01508
2166.92594	0.01523
2165.96157	0.01538
2164.99721	0.01547
2164.03285	0.01553
2163.06848	0.01559
2162.10412	0.01573
2161.13975	0.01585
2160.17539	0.01591
2159.21103	0.01595
2158.24666	0.01602
2157.2823	0.01611
2156.31793	0.01619
2155.35357	0.01621
2154.38921	0.01621
2153.42484	0.01626
2152.46048	0.01634
2151.49611	0.01641
2150.53175	0.01645
2149.56739	0.01648
2148.60302	0.01656
2147.63866	0.01665
2146.67429	0.01672
2145.70993	0.01675
2144.74557	0.01682
2143.7812	0.01695
2142.81684	0.01707
2141.85247	0.01715
2140.88811	0.01719
2139.92375	0.01728
2138.95938	0.01742
2137.99502	0.01754
2137.03065	0.01758
2136.06629	0.01762
2135.10193	0.01769
2134.13756	0.0178
2133.1732	0.01787
2132.20883	0.01787
2131.24447	0.01784
2130.28011	0.01783
2129.31574	0.01786
2128.35138	0.01786
2127.38701	0.01782
2126.42265	0.01779
2125.45829	0.0178
2124.49392	0.01784
2123.52956	0.01786
2122.56519	0.01786
2121.60083	0.01786
2120.63647	0.01791
2119.6721	0.01798
2118.70774	0.01802
2117.74337	0.01802
2116.77901	0.01802
2115.81465	0.01804
2114.85028	0.01809
2113.88592	0.01813
2112.92155	0.01815
2111.95719	0.0182
2110.99283	0.01828
2110.02846	0.01837
2109.0641	0.01841
2108.09973	0.01843
2107.13537	0.01848
2106.17101	0.01856
2105.20664	0.01866
2104.24228	0.0187
2103.27791	0.01871
2102.31355	0.01874
2101.34919	0.01883
2100.38482	0.01891
2099.42046	0.01897
2098.45609	0.01905
2097.49173	0.01916
2096.52737	0.0193
2095.563	0.01942
2094.59864	0.01951
2093.63427	0.01958
2092.66991	0.0197
2091.70555	0.01979
2090.74118	0.01982
2089.77682	0.01986
2088.81245	0.02
2087.84809	0.02015
2086.88373	0.02028
2085.91936	0.02036
2084.955	0.02042
2083.99063	0.02048
2083.02627	0.02057
2082.06191	0.02064
2081.09754	0.02071
2080.13318	0.02075
2079.16881	0.02082
2078.20445	0.02093
2077.24009	0.02105
2076.27572	0.02111
2075.31136	0.02115
2074.34699	0.02122
2073.38263	0.02136
2072.41827	0.0215
2071.4539	0.02164
2070.48954	0.02174
2069.52517	0.02185
2068.56081	0.02195
2067.59645	0.02203
2066.63208	0.022
2065.66772	0.02192
2064.70335	0.02198
2063.73899	0.02225
2062.77463	0.0225
2061.81026	0.0226
2060.8459	0.02266
2059.88153	0.02276
2058.91717	0.02289
2057.95281	0.02296
2056.98844	0.02298
2056.02408	0.02299
2055.05971	0.02303
2054.09535	0.02306
2053.13099	0.02305
2052.16662	0.02302
2051.20226	0.02303
2050.23789	0.02307
2049.27353	0.0231
2048.30917	0.02308
2047.3448	0.02303
2046.38044	0.023
2045.41607	0.023
2044.45171	0.02296
2043.48734	0.02288
2042.52298	0.02275
2041.55862	0.02262
2040.59425	0.02264
2039.62989	0.02273
2038.66552	0.02271
2037.70116	0.02264
2036.7368	0.02262
2035.77243	0.02261
2034.80807	0.02255
2033.8437	0.02247
2032.87934	0.0224
2031.91498	0.02237
2030.95061	0.02232
2029.98625	0.02223
2029.02188	0.02211
2028.05752	0.022
2027.09316	0.02192
2026.12879	0.02188
2025.16443	0.02181
2024.20006	0.0217
2023.2357	0.02161
2022.27134	0.02163
2021.30697	0.02165
2020.34261	0.02159
2019.37824	0.02144
2018.41388	0.02128
2017.44952	0.02118
2016.48515	0.02129
2015.52079	0.02161
2014.55642	0.02185
2013.59206	0.02198
2012.6277	0.02211
2011.66333	0.02222
2010.69897	0.02228
2009.7346	0.0223
2008.77024	0.02236
2007.80588	0.02244
2006.84151	0.02249
2005.87715	0.02252
2004.91278	0.02256
2003.94842	0.02262
2002.98406	0.02261
2002.01969	0.02258
2001.05533	0.0225
2000.09096	0.02242
1999.1266	0.02238
1998.16224	0.02242
1997.19787	0.02245
1996.23351	0.02241
1995.26914	0.02232
1994.30478	0.02217
1993.34042	0.02179
1992.37605	0.02134
1991.41169	0.02136
1990.44732	0.02171
1989.48296	0.02177
1988.5186	0.02163
1987.55423	0.02163
1986.58987	0.02171
1985.6255	0.0217
1984.66114	0.02165
1983.69678	0.02161
1982.73241	0.02153
1981.76805	0.02144
1980.80368	0.02138
1979.83932	0.02135
1978.87496	0.02131
1977.91059	0.02125
1976.94623	0.02116
1975.98186	0.02111
1975.0175	0.02112
1974.05314	0.02112
1973.08877	0.02109
1972.12441	0.02105
1971.16004	0.02105
1970.19568	0.02105
1969.23132	0.02092
1968.26695	0.02051
1967.30259	0.02012
1966.33822	0.02023
1965.37386	0.0206
1964.4095	0.02079
1963.44513	0.02075
1962.48077	0.02064
1961.5164	0.02054
1960.55204	0.0205
1959.58768	0.02046
1958.62331	0.02037
1957.65895	0.02029
1956.69458	0.02022
1955.73022	0.02009
1954.76586	0.01998
1953.80149	0.01996
1952.83713	0.01998
1951.87276	0.01998
1950.9084	0.01996
1949.94404	0.01987
1948.97967	0.01975
1948.01531	0.01963
1947.05094	0.01943
1946.08658	0.01921
1945.12222	0.01913
1944.15785	0.01893
1943.19349	0.01835
1942.22912	0.0181
1941.26476	0.01866
1940.3004	0.01913
1939.33603	0.01923
1938.37167	0.01924
1937.4073	0.01927
1936.44294	0.01929
1935.47858	0.01924
1934.51421	0.01916
1933.54985	0.01913
1932.58548	0.01921
1931.62112	0.01928
1930.65676	0.01928
1929.69239	0.01926
1928.72803	0.01932
1927.76366	0.01941
1926.7993	0.01942
1925.83494	0.01933
1924.87057	0.01907
1923.90621	0.01849
1922.94184	0.01798
1921.97748	0.01826
1921.01312	0.01881
1920.04875	0.01894
1919.08439	0.01857
1918.12002	0.01813
1917.15566	0.01834
1916.1913	0.0188
1915.22693	0.019
1914.26257	0.01909
1913.2982	0.0192
1912.33384	0.01917
1911.36948	0.01886
1910.40511	0.01845
1909.44075	0.01835
1908.47638	0.01856
1907.51202	0.01879
1906.54766	0.019
1905.58329	0.01913
1904.61893	0.0192
1903.65456	0.01928
1902.6902	0.01931
1901.72583	0.01927
1900.76147	0.01933
1899.79711	0.01946
1898.83274	0.01952
1897.86838	0.01947
1896.90401	0.01927
1895.93965	0.01897
1894.97529	0.01895
1894.01092	0.01934
1893.04656	0.01969
1892.08219	0.01976
1891.11783	0.01958
1890.15347	0.01915
1889.1891	0.01913
1888.22474	0.01971
1887.26037	0.02015
1886.29601	0.02024
1885.33165	0.0202
1884.36728	0.02019
1883.40292	0.02023
1882.43855	0.02024
1881.47419	0.02024
1880.50983	0.02021
1879.54546	0.02015
1878.5811	0.02009
1877.61673	0.02006
1876.65237	0.02009
1875.68801	0.02016
1874.72364	0.02017
1873.75928	0.02013
1872.79491	0.02008
1871.83055	0.01995
1870.86619	0.01952
1869.90182	0.0186
1868.93746	0.01775
1867.97309	0.01797
1867.00873	0.01888
1866.04437	0.01979
1865.08	0.02041
1864.11564	0.02067
1863.15127	0.02072
1862.18691	0.02073
1861.22255	0.02075
1860.25818	0.02075
1859.29382	0.02071
1858.32945	0.02075
1857.36509	0.02098
1856.40073	0.02119
1855.43636	0.02128
1854.472	0.02134
1853.50763	0.02149
1852.54327	0.02173
1851.57891	0.02196
1850.61454	0.02209
1849.65018	0.02203
1848.68581	0.0218
1847.72145	0.0218
1846.75709	0.02212
1845.79272	0.02206
1844.82836	0.02143
1843.86399	0.02162
1842.89963	0.02291
1841.93527	0.02396
1840.9709	0.0246
1840.00654	0.02503
1839.04217	0.02527
1838.07781	0.02534
1837.11345	0.02551
1836.14908	0.02606
1835.18472	0.02672
1834.22035	0.02724
1833.25599	0.02778
1832.29163	0.02821
1831.32726	0.02811
1830.3629	0.02749
1829.39853	0.02807
1828.43417	0.03009
1827.46981	0.03153
1826.50544	0.03198
1825.54108	0.03216
1824.57671	0.0333
1823.61235	0.03479
1822.64799	0.03589
1821.68362	0.03688
1820.71926	0.03795
1819.75489	0.0391
1818.79053	0.04013
1817.82617	0.04115
1816.8618	0.0425
1815.89744	0.0442
1814.93307	0.04606
1813.96871	0.04785
1813.00435	0.04956
1812.03998	0.05133
1811.07562	0.05393
1810.11125	0.05774
1809.14689	0.06163
1808.18253	0.06549
1807.21816	0.07001
1806.2538	0.07522
1805.28943	0.08081
1804.32507	0.08663
1803.36071	0.0925
1802.39634	0.09944
1801.43198	0.10748
1800.46761	0.11591
1799.50325	0.12609
1798.53889	0.13652
1797.57452	0.14539
1796.61016	0.15473
1795.64579	0.16599
1794.68143	0.17627
1793.71707	0.18485
1792.7527	0.19611
1791.78834	0.21103
1790.82397	0.22528
1789.85961	0.23854
1788.89525	0.25157
1787.93088	0.26582
1786.96652	0.28114
1786.00215	0.29778
1785.03779	0.31907
1784.07343	0.34416
1783.10906	0.36845
1782.1447	0.39364
1781.18033	0.42658
1780.21597	0.47062
1779.25161	0.51757
1778.28724	0.56484
1777.32288	0.61339
1776.35851	0.66327
1775.39415	0.71188
1774.42979	0.74356
1773.46542	0.75038
1772.50106	0.72264
1771.53669	0.66363
1770.57233	0.61368
1769.60797	0.57303
1768.6436	0.52318
1767.67924	0.46831
1766.71487	0.43187
1765.75051	0.40686
1764.78615	0.38533
1763.82178	0.36862
1762.85742	0.35534
1761.89305	0.34187
1760.92869	0.33228
1759.96432	0.32777
1758.99996	0.32434
1758.0356	0.32136
1757.07123	0.31963
1756.10687	0.32059
1755.1425	0.32384
1754.17814	0.32898
1753.21378	0.3361
1752.24941	0.34692
1751.28505	0.36729
1750.32068	0.38672
1749.35632	0.39024
1748.39196	0.38027
1747.42759	0.36654
1746.46323	0.35793
1745.49886	0.3544
1744.5345	0.3508
1743.57014	0.34145
1742.60577	0.32993
1741.64141	0.32337
1740.67704	0.32196
1739.71268	0.32847
1738.74832	0.34022
1737.78395	0.34963
1736.81959	0.35549
1735.85522	0.35633
1734.89086	0.34666
1733.9265	0.31402
1732.96213	0.28726
1731.99777	0.27309
1731.0334	0.25748
1730.06904	0.23643
1729.10468	0.21795
1728.14031	0.20552
1727.17595	0.19439
1726.21158	0.18381
1725.24722	0.17475
1724.28286	0.16635
1723.31849	0.15819
1722.35413	0.15143
1721.38976	0.14585
1720.4254	0.14076
1719.46104	0.13543
1718.49667	0.12737
1717.53231	0.11793
1716.56794	0.11414
1715.60358	0.11138
1714.63922	0.10757
1713.67485	0.10499
1712.71049	0.10339
1711.74612	0.10146
1710.78176	0.09904
1709.8174	0.09684
1708.85303	0.09544
1707.88867	0.09401
1706.9243	0.09225
1705.95994	0.09131
1704.99558	0.09169
1704.03121	0.09283
1703.06685	0.09392
1702.10248	0.09433
1701.13812	0.09379
1700.17376	0.09506
1699.20939	0.09895
1698.24503	0.10097
1697.28066	0.10218
1696.3163	0.10457
1695.35194	0.11099
1694.38757	0.11611
1693.42321	0.11993
1692.45884	0.12378
1691.49448	0.12741
1690.53012	0.13101
1689.56575	0.13509
1688.60139	0.13998
1687.63702	0.14518
1686.67266	0.14901
1685.7083	0.15089
1684.74393	0.15351
1683.77957	0.16736
1682.8152	0.17916
1681.85084	0.18646
1680.88648	0.19414
1679.92211	0.20294
1678.95775	0.20761
1677.99338	0.20645
1677.02902	0.20239
1676.06466	0.19678
1675.10029	0.19127
1674.13593	0.19021
1673.17156	0.19076
1672.2072	0.1912
1671.24284	0.19218
1670.27847	0.19416
1669.31411	0.1991
1668.34974	0.2082
1667.38538	0.21708
1666.42102	0.22682
1665.45665	0.23941
1664.49229	0.25438
1663.52792	0.27693
1662.56356	0.31979
1661.5992	0.37097
1660.63483	0.41945
1659.67047	0.4739
1658.7061	0.53013
1657.74174	0.57544
1656.77738	0.5975
1655.81301	0.5961
1654.84865	0.57839
1653.88428	0.52994
1652.91992	0.40734
1651.95556	0.36019
1650.99119	0.34465
1650.02683	0.32991
1649.06246	0.31435
1648.0981	0.29788
1647.13374	0.28384
1646.16937	0.27889
1645.20501	0.28038
1644.24064	0.28319
1643.27628	0.28628
1642.31192	0.28998
1641.34755	0.29425
1640.38319	0.29871
1639.41882	0.30279
1638.45446	0.30606
1637.4901	0.30921
1636.52573	0.31306
1635.56137	0.32342
1634.597	0.33842
1633.63264	0.34856
1632.66828	0.35975
1631.70391	0.3752
1630.73955	0.3952
1629.77518	0.41761
1628.81082	0.44269
1627.84646	0.47428
1626.88209	0.50122
1625.91773	0.5121
1624.95336	0.5089
1623.989	0.48271
1623.02464	0.42843
1622.06027	0.38242
1621.09591	0.34553
1620.13154	0.30937
1619.16718	0.27844
1618.20281	0.25456
1617.23845	0.228
1616.27409	0.19649
1615.30972	0.18113
1614.34536	0.17171
1613.38099	0.16167
1612.41663	0.15208
1611.45227	0.14389
1610.4879	0.13661
1609.52354	0.12972
1608.55917	0.12427
1607.59481	0.12016
1606.63045	0.11676
1605.66608	0.11395
1604.70172	0.11118
1603.73735	0.10832
1602.77299	0.10603
1601.80863	0.10463
1600.84426	0.10361
1599.8799	0.10286
1598.91553	0.10247
1597.95117	0.10254
1596.98681	0.10305
1596.02244	0.10405
1595.05808	0.10597
1594.09371	0.10933
1593.12935	0.11393
1592.16499	0.11912
1591.20062	0.12428
1590.23626	0.12817
1589.27189	0.12939
1588.30753	0.12726
1587.34317	0.12238
1586.3788	0.11645
1585.41444	0.11121
1584.45007	0.10768
1583.48571	0.106
1582.52135	0.10589
1581.55698	0.10694
1580.59262	0.10897
1579.62825	0.11184
1578.66389	0.11499
1577.69953	0.11786
1576.73516	0.12313
1575.7708	0.13631
1574.80643	0.148
1573.84207	0.15758
1572.87771	0.16852
1571.91334	0.17951
1570.94898	0.18904
1569.98461	0.20148
1569.02025	0.21989
1568.05589	0.23116
1567.09152	0.23607
1566.12716	0.23788
1565.16279	0.23688
1564.19843	0.23447
1563.23407	0.23159
1562.2697	0.22792
1561.30534	0.22332
1560.34097	0.21615
1559.37661	0.20029
1558.41225	0.18515
1557.44788	0.18342
1556.48352	0.1826
1555.51915	0.18034
1554.55479	0.17604
1553.59043	0.17314
1552.62606	0.17315
1551.6617	0.1738
1550.69733	0.17552
1549.73297	0.18025
1548.76861	0.18464
1547.80424	0.18518
1546.83988	0.18245
1545.87551	0.17643
1544.91115	0.1674
1543.94679	0.16039
1542.98242	0.15538
1542.01806	0.14944
1541.05369	0.14424
1540.08933	0.13917
1539.12497	0.13563
1538.1606	0.13672
1537.19624	0.13727
1536.23187	0.13643
1535.26751	0.13459
1534.30315	0.13161
1533.33878	0.12842
1532.37442	0.12777
1531.41005	0.128
1530.44569	0.12763
1529.48133	0.1261
1528.51696	0.12331
1527.5526	0.12056
1526.58823	0.11862
1525.62387	0.11632
1524.65951	0.1142
1523.69514	0.11253
1522.73078	0.10956
1521.76641	0.10471
1520.80205	0.1019
1519.83769	0.10206
1518.87332	0.10167
1517.90896	0.09904
1516.94459	0.09458
1515.98023	0.09287
1515.01587	0.09265
1514.0515	0.09186
1513.08714	0.09014
1512.12277	0.08776
1511.15841	0.08563
1510.19405	0.08333
1509.22968	0.08003
1508.26532	0.07618
1507.30095	0.07184
1506.33659	0.07055
1505.37223	0.07401
1504.40786	0.07599
1503.4435	0.07655
1502.47913	0.07619
1501.51477	0.0756
1500.55041	0.07511
1499.58604	0.07433
1498.62168	0.0737
1497.65731	0.07366
1496.69295	0.07381
1495.72859	0.07505
1494.76422	0.07706
1493.79986	0.07871
1492.83549	0.07986
1491.87113	0.08031
1490.90677	0.08023
1489.9424	0.08239
1488.97804	0.08726
1488.01367	0.09248
1487.04931	0.09955
1486.08495	0.10805
1485.12058	0.1166
1484.15622	0.12544
1483.19185	0.13364
1482.22749	0.13965
1481.26312	0.14279
1480.29876	0.14292
1479.3344	0.14054
1478.37003	0.13677
1477.40567	0.13228
1476.4413	0.12713
1475.47694	0.12349
1474.51258	0.12183
1473.54821	0.12033
1472.58385	0.1213
1471.61948	0.12741
1470.65512	0.13367
1469.69076	0.13931
1468.72639	0.14522
1467.76203	0.15117
1466.79766	0.15634
1465.8333	0.16142
1464.86894	0.16999
1463.90457	0.18
1462.94021	0.18697
1461.97584	0.19223
1461.01148	0.19561
1460.04712	0.19646
1459.08275	0.19461
1458.11839	0.19085
1457.15402	0.18668
1456.18966	0.18486
1455.2253	0.18555
1454.26093	0.18695
1453.29657	0.18859
1452.3322	0.19069
1451.36784	0.19308
1450.40348	0.19408
1449.43911	0.19295
1448.47475	0.19013
1447.51038	0.18762
1446.54602	0.18708
1445.58166	0.18719
1444.61729	0.18736
1443.65293	0.18763
1442.68856	0.18801
1441.7242	0.18839
1440.75984	0.18841
1439.79547	0.18781
1438.83111	0.18648
1437.86674	0.18429
1436.90238	0.18057
1435.93802	0.17785
1434.97365	0.17688
1434.00929	0.17525
1433.04492	0.17306
1432.08056	0.17123
1431.1162	0.16973
1430.15183	0.16837
1429.18747	0.16807
1428.2231	0.16874
1427.25874	0.16963
1426.29438	0.17046
1425.33001	0.17085
1424.36565	0.17126
1423.40128	0.17317
1422.43692	0.17586
1421.47256	0.17774
1420.50819	0.17879
1419.54383	0.18097
1418.57946	0.18622
1417.6151	0.19137
1416.65074	0.19574
1415.68637	0.19946
1414.72201	0.20273
1413.75764	0.20612
1412.79328	0.20946
1411.82892	0.21216
1410.86455	0.21348
1409.90019	0.21304
1408.93582	0.21135
1407.97146	0.2094
1407.0071	0.20784
1406.04273	0.20696
1405.07837	0.20762
1404.114	0.21037
1403.14964	0.21367
1402.18528	0.21687
1401.22091	0.21986
1400.25655	0.22247
1399.29218	0.22537
1398.32782	0.22839
1397.36346	0.22996
1396.39909	0.23006
1395.43473	0.23001
1394.47036	0.23209
1393.506	0.23561
1392.54164	0.23825
1391.57727	0.23981
1390.61291	0.24059
1389.64854	0.2409
1388.68418	0.24083
1387.71982	0.24081
1386.75545	0.24178
1385.79109	0.24283
1384.82672	0.24258
1383.86236	0.24088
1382.898	0.23847
1381.93363	0.23661
1380.96927	0.23627
1380.0049	0.23768
1379.04054	0.24009
1378.07618	0.24228
1377.11181	0.24316
1376.14745	0.24248
1375.18308	0.24103
1374.21872	0.24092
1373.25436	0.24357
1372.28999	0.24756
1371.32563	0.25132
1370.36126	0.25353
1369.3969	0.25344
1368.43254	0.25206
1367.46817	0.25086
1366.50381	0.24959
1365.53944	0.24706
1364.57508	0.24215
1363.61072	0.23299
1362.64635	0.22046
1361.68199	0.2094
1360.71762	0.19984
1359.75326	0.19132
1358.7889	0.18402
1357.82453	0.17777
1356.86017	0.17313
1355.8958	0.16994
1354.93144	0.16783
1353.96708	0.16676
1353.00271	0.16637
1352.03835	0.1664
1351.07398	0.16688
1350.10962	0.16788
1349.14526	0.16946
1348.18089	0.17162
1347.21653	0.17417
1346.25216	0.17697
1345.2878	0.1798
1344.32344	0.18229
1343.35907	0.18416
1342.39471	0.18512
1341.43034	0.18473
1340.46598	0.18306
1339.50161	0.1814
1338.53725	0.18092
1337.57289	0.18139
1336.60852	0.18259
1335.64416	0.18438
1334.67979	0.18615
1333.71543	0.18757
1332.75107	0.18879
1331.7867	0.19006
1330.82234	0.19154
1329.85797	0.19343
1328.89361	0.19589
1327.92925	0.19904
1326.96488	0.20274
1326.00052	0.20675
1325.03615	0.21115
1324.07179	0.21648
1323.10743	0.22301
1322.14306	0.22993
1321.1787	0.23577
1320.21433	0.23942
1319.24997	0.24023
1318.28561	0.23793
1317.32124	0.2324
1316.35688	0.2241
1315.39251	0.21435
1314.42815	0.20431
1313.46379	0.19503
1312.49942	0.18733
1311.53506	0.18145
1310.57069	0.17692
1309.60633	0.17321
1308.64197	0.17026
1307.6776	0.1682
1306.71324	0.16704
1305.74887	0.16649
1304.78451	0.16599
1303.82015	0.16479
1302.85578	0.16229
1301.89142	0.15868
1300.92705	0.15482
1299.96269	0.1516
1298.99833	0.14938
1298.03396	0.14777
1297.0696	0.14614
1296.10523	0.14433
1295.14087	0.14272
1294.17651	0.14166
1293.21214	0.14125
1292.24778	0.14148
1291.28341	0.14245
1290.31905	0.14419
1289.35469	0.1464
1288.39032	0.14852
1287.42596	0.15022
1286.46159	0.15151
1285.49723	0.1528
1284.53287	0.15454
1283.5685	0.15692
1282.60414	0.15983
1281.63977	0.16318
1280.67541	0.16667
1279.71105	0.16948
1278.74668	0.17053
1277.78232	0.16932
1276.81795	0.16627
1275.85359	0.16223
1274.88923	0.15786
1273.92486	0.15339
1272.9605	0.14908
1271.99613	0.14552
1271.03177	0.1435
1270.06741	0.14325
1269.10304	0.14451
1268.13868	0.14721
1267.17431	0.1514
1266.20995	0.15694
1265.24559	0.16299
1264.28122	0.16833
1263.31686	0.17213
1262.35249	0.17425
1261.38813	0.17471
1260.42377	0.17353
1259.4594	0.17089
1258.49504	0.16736
1257.53067	0.16375
1256.56631	0.16075
1255.60195	0.15844
1254.63758	0.15663
1253.67322	0.15531
1252.70885	0.1547
1251.74449	0.15479
1250.78013	0.15511
1249.81576	0.15505
1248.8514	0.15448
1247.88703	0.15375
1246.92267	0.15311
1245.95831	0.1524
1244.99394	0.15141
1244.02958	0.15034
1243.06521	0.14959
1242.10085	0.14899
1241.13649	0.14797
1240.17212	0.14616
1239.20776	0.14396
1238.24339	0.14218
1237.27903	0.14127
1236.31467	0.1411
1235.3503	0.14153
1234.38594	0.14279
1233.42157	0.14527
1232.45721	0.14906
1231.49285	0.1539
1230.52848	0.15979
1229.56412	0.16719
1228.59975	0.17656
1227.63539	0.18756
1226.67103	0.19908
1225.70666	0.20973
1224.7423	0.21808
1223.77793	0.22266
1222.81357	0.22242
1221.84921	0.21736
1220.88484	0.2088
1219.92048	0.19891
1218.95611	0.18938
1217.99175	0.18075
1217.02739	0.1729
1216.06302	0.16582
1215.09866	0.15973
1214.13429	0.15478
1213.16993	0.15063
1212.20557	0.14685
1211.2412	0.14354
1210.27684	0.14127
1209.31247	0.14032
1208.34811	0.14031
1207.38375	0.14062
1206.41938	0.14109
1205.45502	0.14201
1204.49065	0.14342
1203.52629	0.14473
1202.56193	0.14522
1201.59756	0.14489
1200.6332	0.14442
1199.66883	0.1444
1198.70447	0.14495
1197.7401	0.14609
1196.77574	0.1481
1195.81138	0.15133
1194.84701	0.15568
1193.88265	0.1604
1192.91828	0.16477
1191.95392	0.16889
1190.98956	0.17344
1190.02519	0.17874
1189.06083	0.18464
1188.09646	0.19098
1187.1321	0.19788
1186.16774	0.20541
1185.20337	0.21346
1184.23901	0.22186
1183.27464	0.23037
1182.31028	0.23831
1181.34592	0.24474
1180.38155	0.24905
1179.41719	0.25143
1178.45282	0.25281
1177.48846	0.25413
1176.5241	0.25574
1175.55973	0.25765
1174.59537	0.26015
1173.631	0.26425
1172.66664	0.27111
1171.70228	0.28136
1170.73791	0.29492
1169.77355	0.31159
1168.80918	0.33151
1167.84482	0.35465
1166.88046	0.38027
1165.91609	0.40672
1164.95173	0.43229
1163.98736	0.45647
1163.023	0.48028
1162.05864	0.50504
1161.09427	0.53074
1160.12991	0.556
1159.16554	0.57882
1158.20118	0.59703
1157.23682	0.60875
1156.27245	0.61284
1155.30809	0.60925
1154.34372	0.59982
1153.37936	0.58794
1152.415	0.57643
1151.45063	0.566
1150.48627	0.55444
1149.5219	0.53738
1148.55754	0.51197
1147.59318	0.48009
1146.62881	0.44698
1145.66445	0.41714
1144.70008	0.39247
1143.73572	0.37302
1142.77136	0.35844
1141.80699	0.3485
1140.84263	0.3431
1139.87826	0.34216
1138.9139	0.34521
1137.94954	0.35153
1136.98517	0.36082
1136.02081	0.37378
1135.05644	0.39145
1134.09208	0.41385
1133.12772	0.43948
1132.16335	0.46525
1131.19899	0.48694
1130.23462	0.50007
1129.27026	0.50162
1128.3059	0.49152
1127.34153	0.4726
1126.37717	0.44934
1125.4128	0.42587
1124.44844	0.40462
1123.48408	0.38617
1122.51971	0.37046
1121.55535	0.35765
1120.59098	0.34834
1119.62662	0.34277
1118.66226	0.34063
1117.69789	0.34146
1116.73353	0.34531
1115.76916	0.35224
1114.8048	0.36141
1113.84044	0.37086
1112.87607	0.3784
1111.91171	0.38274
1110.94734	0.38422
1109.98298	0.38374
1109.01862	0.3816
1108.05425	0.37778
1107.08989	0.37311
1106.12552	0.36929
1105.16116	0.36769
1104.1968	0.36871
1103.23243	0.37202
1102.26807	0.37701
1101.3037	0.38291
1100.33934	0.38887
1099.37498	0.39448
1098.41061	0.39958
1097.44625	0.40396
1096.48188	0.40723
1095.51752	0.4087
1094.55316	0.40766
1093.58879	0.40405
1092.62443	0.39914
1091.66006	0.39515
1090.6957	0.39399
1089.73134	0.39634
1088.76697	0.40183
1087.80261	0.40959
1086.83824	0.41869
1085.87388	0.42828
1084.90952	0.43801
1083.94515	0.44808
1082.98079	0.45909
1082.01642	0.47143
1081.05206	0.48439
1080.0877	0.49658
1079.12333	0.50667
1078.15897	0.51323
1077.1946	0.5142
1076.23024	0.50757
1075.26588	0.49334
1074.30151	0.47418
1073.33715	0.4534
1072.37278	0.43307
1071.40842	0.41478
1070.44406	0.40061
1069.47969	0.39287
1068.51533	0.39326
1067.55096	0.40226
1066.5866	0.4195
1065.62224	0.44422
1064.65787	0.47536
1063.69351	0.51129
1062.72914	0.54942
1061.76478	0.58614
1060.80042	0.61756
1059.83605	0.64085
1058.87169	0.65512
1057.90732	0.66134
1056.94296	0.66105
1055.97859	0.65631
1055.01423	0.65047
1054.04987	0.64765
1053.0855	0.65116
1052.12114	0.6623
1051.15677	0.68118
1050.19241	0.70726
1049.22805	0.73902
1048.26368	0.77471
1047.29932	0.81214
1046.33495	0.84719
1045.37059	0.87505
1044.40623	0.89401
1043.44186	0.90588
1042.4775	0.91497
1041.51313	0.92623
1040.54877	0.94303
1039.58441	0.96425
1038.62004	0.98392
1037.65568	0.99659
1036.69131	1
1035.72695	0.99486
1034.76259	0.98433
1033.79822	0.97175
1032.83386	0.95777
1031.86949	0.94096
1030.90513	0.92062
1029.94077	0.89833
1028.9764	0.87693
1028.01204	0.8572
1027.04767	0.83764
1026.08331	0.81583
1025.11895	0.78982
1024.15458	0.7596
1023.19022	0.72658
1022.22585	0.6931
1021.26149	0.6615
1020.29713	0.63267
1019.33276	0.60569
1018.3684	0.57971
1017.40403	0.55523
1016.43967	0.53348
1015.47531	0.51564
1014.51094	0.50193
1013.54658	0.49175
1012.58221	0.48422
1011.61785	0.47843
1010.65349	0.473
1009.68912	0.4663
1008.72476	0.45768
1007.76039	0.4483
1006.79603	0.44038
1005.83167	0.43556
1004.8673	0.43433
1003.90294	0.43649
1002.93857	0.44154
1001.97421	0.44889
1001.00985	0.45715
1000.04548	0.46387
999.08112	0.46679
998.11675	0.46529
997.15239	0.46068
996.18803	0.45511
995.22366	0.45041
994.2593	0.44805
993.29493	0.44924
992.33057	0.45433
991.36621	0.46182
990.40184	0.46856
989.43748	0.47115
988.47311	0.46714
987.50875	0.45535
986.54439	0.43618
985.58002	0.41155
984.61566	0.38415
983.65129	0.35648
982.68693	0.33006
981.72257	0.30537
980.7582	0.28229
979.79384	0.26088
978.82947	0.24154
977.86511	0.22447
976.90075	0.20933
975.93638	0.19554
974.97202	0.18308
974.00765	0.17243
973.04329	0.16365
972.07893	0.15608
971.11456	0.14926
970.1502	0.14351
969.18583	0.13953
968.22147	0.13754
967.25711	0.13715
966.29274	0.13781
965.32838	0.13888
964.36401	0.13912
963.39965	0.13695
962.43529	0.13193
961.47092	0.12547
960.50656	0.12001
959.54219	0.11744
958.57783	0.11829
957.61347	0.1223
956.6491	0.12931
955.68474	0.13914
954.72037	0.15051
953.75601	0.16048
952.79165	0.16582
951.82728	0.16523
950.86292	0.15992
949.89855	0.15212
948.93419	0.14353
947.96983	0.13535
947.00546	0.12897
946.0411	0.1256
945.07673	0.1252
944.11237	0.12632
943.14801	0.1273
942.18364	0.12756
941.21928	0.12723
940.25491	0.12604
939.29055	0.12308
938.32619	0.11779
937.36182	0.11074
936.39746	0.10315
935.43309	0.09564
934.46873	0.08803
933.50437	0.08045
932.54	0.07379
931.57564	0.06903
930.61127	0.06614
929.64691	0.06426
928.68255	0.06292
927.71818	0.0622
926.75382	0.0618
925.78945	0.06053
924.82509	0.05744
923.86073	0.05303
922.89636	0.04899
921.932	0.04633
920.96763	0.04433
920.00327	0.04159
919.03891	0.03798
918.07454	0.03468
917.11018	0.03243
916.14581	0.03069
915.18145	0.0287
914.21708	0.02665
913.25272	0.02536
912.28836	0.02487
911.32399	0.02412
910.35963	0.02242
909.39526	0.02055
908.4309	0.01988
907.46654	0.02065
906.50217	0.02179
905.53781	0.02239
904.57344	0.02266
903.60908	0.02318
902.64472	0.02354
901.68035	0.02261
900.71599	0.01993
899.75162	0.01678
898.78726	0.01453
897.8229	0.01318
896.85853	0.01169
895.89417	0.00979
894.9298	0.00838
893.96544	0.00828
893.00108	0.00894
892.03671	0.00922
891.07235	0.00892
890.10798	0.00901
889.14362	0.01004
888.17926	0.01128
887.21489	0.01178
886.25053	0.01179
885.28616	0.01259
884.3218	0.0148
883.35744	0.01763
882.39307	0.02006
881.42871	0.02201
880.46434	0.0237
879.49998	0.02473
878.53562	0.02436
877.57125	0.02255
876.60689	0.02054
875.64252	0.01979
874.67816	0.02057
873.7138	0.02191
872.74943	0.02316
871.78507	0.02508
870.8207	0.02884
869.85634	0.03446
868.89198	0.04071
867.92761	0.04658
866.96325	0.05183
865.99888	0.05644
865.03452	0.06008
864.07016	0.0626
863.10579	0.06502
862.14143	0.06917
861.17706	0.076
860.2127	0.0843
859.24834	0.09114
858.28397	0.0939
857.31961	0.09202
856.35524	0.08701
855.39088	0.08062
854.42652	0.07373
853.46215	0.06699
852.49779	0.06153
851.53342	0.05813
850.56906	0.05648
849.6047	0.05579
848.64033	0.05604
847.67597	0.05768
846.7116	0.06041
845.74724	0.06291
844.78288	0.06404
843.81851	0.06386
842.85415	0.06302
841.88978	0.06167
840.92542	0.05933
839.96106	0.05592
838.99669	0.05234
838.03233	0.04958
837.06796	0.0476
836.1036	0.04556
835.13924	0.04305
834.17487	0.04075
833.21051	0.03948
832.24614	0.03895
831.28178	0.03822
830.31742	0.03717
829.35305	0.03668
828.38869	0.0373
827.42432	0.03848
826.45996	0.03938
825.4956	0.04
824.53123	0.04113
823.56687	0.0431
822.6025	0.04532
821.63814	0.04705
820.67378	0.04848
819.70941	0.05038
818.74505	0.05299
817.78068	0.05564
816.81632	0.0577
815.85196	0.05943
814.88759	0.06152
813.92323	0.06403
812.95886	0.06628
811.9945	0.06779
811.03014	0.06912
810.06577	0.07123
809.10141	0.07426
808.13704	0.07748
807.17268	0.08053
806.20832	0.08388
805.24395	0.08752
804.27959	0.09017
803.31522	0.09047
802.35086	0.08856
801.3865	0.08591
800.42213	0.08376
799.45777	0.08194
798.4934	0.07961
797.52904	0.07677
796.56468	0.0744
795.60031	0.07311
794.63595	0.07223
793.67158	0.07079
792.70722	0.06884
791.74286	0.06726
790.77849	0.06645
789.81413	0.0659
788.84976	0.06504
787.8854	0.06409
786.92104	0.06378
785.95667	0.06427
784.99231	0.06476
784.02794	0.0646
783.06358	0.06425
782.09922	0.0647
781.13485	0.06617
780.17049	0.06812
779.20612	0.07036
778.24176	0.07356
777.2774	0.07869
776.31303	0.086
775.34867	0.09447
774.3843	0.10247
773.41994	0.10843
772.45557	0.11125
771.49121	0.11056
770.52685	0.10719
769.56248	0.10296
768.59812	0.09991
767.63375	0.09927
766.66939	0.10091
765.70503	0.10375
764.74066	0.10716
763.7763	0.11127
762.81193	0.11592
761.84757	0.12008
760.88321	0.12258
759.91884	0.12334
758.95448	0.1232
757.99011	0.12276
757.02575	0.12217
756.06139	0.12142
755.09702	0.12007
754.13266	0.11737
753.16829	0.11322
752.20393	0.10828
751.23957	0.10356
750.2752	0.10009
749.31084	0.0984
748.34647	0.09794
747.38211	0.09729
746.41775	0.09556
745.45338	0.09301
744.48902	0.09039
743.52465	0.08806
742.56029	0.08564
741.59593	0.08276
740.63156	0.07999
739.6672	0.07825
738.70283	0.07759
737.73847	0.07759
736.77411	0.0784
735.80974	0.08087
734.84538	0.0854
733.88101	0.09092
732.91665	0.09539
731.95229	0.09747
730.98792	0.09745
730.02356	0.09646
729.05919	0.09516
728.09483	0.09357
727.13047	0.09213
726.1661	0.09163
725.20174	0.09232
724.23737	0.09351
723.27301	0.09457
722.30865	0.09594
721.34428	0.09842
720.37992	0.10205
719.41555	0.10594
718.45119	0.10966
717.48683	0.11375
716.52246	0.11867
715.5581	0.12408
714.59373	0.129
713.62937	0.13264
712.66501	0.13497
711.70064	0.13642
710.73628	0.13688
709.77191	0.13572
708.80755	0.13295
707.84319	0.12964
706.87882	0.12671
705.91446	0.12422
704.95009	0.12184
703.98573	0.1197
703.02137	0.11828
702.057	0.11777
701.09264	0.11745
700.12827	0.11617
699.16391	0.11369
698.19955	0.11088
697.23518	0.10857
696.27082	0.10661
695.30645	0.10443
694.34209	0.10223
693.37773	0.10077
692.41336	0.10017
691.449	0.09965
690.48463	0.09866
689.52027	0.09763
688.55591	0.09718
687.59154	0.09731
686.62718	0.09733
685.66281	0.09683
684.69845	0.09624
683.73409	0.09616
682.76972	0.09651
681.80536	0.09673
680.84099	0.0965
679.87663	0.09618
678.91227	0.09631
677.9479	0.09674
676.98354	0.09689
676.01917	0.09675
675.05481	0.09682
674.09045	0.09732
673.12608	0.09787
672.16172	0.09805
671.19735	0.09816
670.23299	0.09888
669.26863	0.1008
668.30426	0.10465
667.3399	0.10678
666.37553	0.10719
665.41117	0.10811
664.44681	0.10905
663.48244	0.10857
662.51808	0.10605
661.55371	0.1023
660.58935	0.09845
659.62499	0.09499
658.66062	0.09194
657.69626	0.08933
656.73189	0.08746
655.76753	0.08645
654.80317	0.08587
653.8388	0.0852
652.87444	0.08446
651.91007	0.08399
650.94571	0.08387
649.98135	0.08353
649.01698	0.08251
648.05262	0.08113
647.08825	0.07991
646.12389	0.07895
645.15953	0.07815
644.19516	0.07738
643.2308	0.07674
642.26643	0.07635
641.30207	0.07611
640.33771	0.076
639.37334	0.07607
638.40898	0.0763
637.44461	0.07674
636.48025	0.07741
635.51589	0.07838
634.55152	0.07993
633.58716	0.08203
632.62279	0.08427
631.65843	0.08589
630.69406	0.08642
629.7297	0.08612
628.76534	0.08547
627.80097	0.08481
626.83661	0.08416
625.87224	0.08353
624.90788	0.08337
623.94352	0.08408
622.97915	0.08532
622.01479	0.08662
621.05042	0.08799
620.08606	0.08989
619.1217	0.09265
618.15733	0.09614
617.19297	0.09966
616.2286	0.10293
615.26424	0.1064
614.29988	0.11012
613.33551	0.11373
612.37115	0.11723
611.40678	0.12086
610.44242	0.12475
609.47806	0.12879
608.51369	0.13254
607.54933	0.13573
606.58496	0.13832
605.6206	0.14009
604.65624	0.14081
603.69187	0.14029
602.72751	0.1387
601.76314	0.13647
600.79878	0.13366
599.83442	0.1301
598.87005	0.12605
597.90569	0.12195
596.94132	0.11815
595.97696	0.11481
595.0126	0.11221
594.04823	0.11041
593.08387	0.10898
592.1195	0.10817
591.15514	0.10866
590.19078	0.11002
589.22641	0.11167
588.26205	0.11393
587.29768	0.1173
586.33332	0.12205
585.36896	0.12842
584.40459	0.13687
583.44023	0.14733
582.47586	0.15851
581.5115	0.16867
580.54714	0.17661
579.58277	0.18134
578.61841	0.18323
577.65404	0.18412
576.68968	0.186
575.72532	0.19019
574.76095	0.19621
573.79659	0.2026
572.83222	0.20804
571.86786	0.21104
570.9035	0.21067
569.93913	0.20674
568.97477	0.19951
568.0104	0.18983
567.04604	0.17874
566.08168	0.16732
565.11731	0.15595
564.15295	0.14451
563.18858	0.1338
562.22422	0.12478
561.25986	0.11727
560.29549	0.11068
559.33113	0.10507
558.36676	0.10061
557.4024	0.0972
556.43804	0.09458
555.47367	0.09241
554.50931	0.09084
553.54494	0.0901
552.58058	0.08985
551.61622	0.08961
550.65185	0.08951
549.68749	0.08989
548.72312	0.09053
547.75876	0.09111
546.7944	0.09156
545.83003	0.09178
544.86567	0.09169
543.9013	0.09153
542.93694	0.09185
541.97258	0.09295
541.00821	0.09451
540.04385	0.09604
539.07948	0.09737
538.11512	0.09855
537.15076	0.09973
536.18639	0.1009
535.22203	0.10143
534.25766	0.1006
533.2933	0.09877
532.32894	0.09709
531.36457	0.09605
530.40021	0.09551
529.43584	0.09566
528.47148	0.0968
527.50712	0.09858
526.54275	0.10057
525.57839	0.10295
524.61402	0.10485
523.64966	0.10526
522.6853	0.10415
521.72093	0.10148
520.75657	0.09717
519.7922	0.0918
518.82784	0.08657
517.86348	0.0816
516.89911	0.07695
515.93475	0.07376
514.97038	0.07157
514.00602	0.06951
513.04166	0.06763
512.07729	0.06575
511.11293	0.06374
510.14856	0.06225
509.1842	0.06163
508.21984	0.06119
507.25547	0.06054
506.29111	0.06022
505.32674	0.06049
504.36238	0.06087
503.39802	0.06049
502.43365	0.05891
501.46929	0.05753
500.50492	0.05712
499.54056	0.05656
498.5762	0.05552
497.61183	0.05436
496.64747	0.05339
495.6831	0.0528
494.71874	0.05242
493.75437	0.05188
492.79001	0.05129
491.82565	0.05181
490.86128	0.05415
489.89692	0.05667
488.93255	0.05782
487.96819	0.05823
487.00383	0.05887
486.03946	0.05918
485.0751	0.05857
484.11073	0.05742
483.14637	0.05647
482.18201	0.05563
481.21764	0.05426
480.25328	0.05201
479.28891	0.04915
478.32455	0.0464
477.36019	0.04441
476.39582	0.04291
475.43146	0.0407
474.46709	0.03722
473.50273	0.03325
472.53837	0.03102
471.574	0.03132
470.60964	0.03099
469.64527	0.02972
468.68091	0.0295
467.71655	0.03106
466.75218	0.03278
465.78782	0.03341
464.82345	0.03387
463.85909	0.03521
462.89473	0.03639
461.93036	0.03596
460.966	0.03454
460.00163	0.03367
459.03727	0.03349
458.07291	0.03409
457.10854	0.03597
456.14418	0.03828
455.17981	0.04118
454.21545	0.04455
453.25109	0.04712
452.28672	0.04851
451.32236	0.04917
450.35799	0.0486
449.39363	0.04629
448.42927	0.04258
447.4649	0.03819
446.50054	0.03466
445.53617	0.03234
444.57181	0.02943
443.60745	0.02534
442.64308	0.02112
441.67872	0.0181
440.71435	0.01664
439.74999	0.01529
438.78563	0.01374
437.82126	0.01321
436.8569	0.01416
435.89253	0.01627
434.92817	0.01768
433.96381	0.01671
432.99944	0.01456
432.03508	0.01321
431.07071	0.01261
430.10635	0.01156
429.14199	0.00982
428.17762	0.00813
427.21326	0.00708
426.24889	0.00675
425.28453	0.00733
424.32017	0.00859
423.3558	0.01067
422.39144	0.01403
421.42707	0.01673
420.46271	0.01788
419.49835	0.02008
418.53398	0.0289
417.56962	0.03761
416.60525	0.04116
415.64089	0.04076
414.67653	0.03792
413.71216	0.0349
412.7478	0.03194
411.78343	0.02806
410.81907	0.02339
409.85471	0.02159
408.89034	0.02254
407.92598	0.0262
406.96161	0.0298
405.99725	0.03217
405.03289	0.03597
404.06852	0.04075
403.10416	0.04325
402.13979	0.04345
401.17543	0.04337
400.21107	0.04336