401	0.03266
402	0.03266
403	0.03266
404	0.03266
405	0.03266
406	0.03266
407	0.03266
408	0.03266
409	0.03266
410	0.03266
411	0.03266
412	0.02439
413	0.03882
414	0.05693
415	0.05477
416	0.03833
417	0.02886
418	0.0344
419	0.0409
420	0.03624
421	0.03304
422	0.03304
423	0.05409
424	0.0562
425	0.04393
426	0.03832
427	0.05323
428	0.06889
429	0.06371
430	0.05205
431	0.0609
432	0.08079
433	0.08243
434	0.0676
435	0.05878
436	0.06825
437	0.08104
438	0.07364
439	0.05947
440	0.06302
441	0.07829
442	0.08221
443	0.06982
444	0.06063
445	0.06666
446	0.07537
447	0.07104
448	0.05962
449	0.05961
450	0.07572
451	0.09041
452	0.08515
453	0.06997
454	0.06931
455	0.0824
456	0.09243
457	0.09112
458	0.0852
459	0.08787
460	0.09214
461	0.08627
462	0.07642
463	0.07796
464	0.09083
465	0.09962
466	0.09469
467	0.08846
468	0.09505
469	0.10743
470	0.11007
471	0.10373
472	0.10416
473	0.11858
474	0.12907
475	0.12302
476	0.11281
477	0.11546
478	0.12832
479	0.13155
480	0.11968
481	0.11152
482	0.11972
483	0.13304
484	0.13409
485	0.12264
486	0.11666
487	0.12528
488	0.13569
489	0.13518
490	0.12981
491	0.13151
492	0.13855
493	0.13569
494	0.12209
495	0.11578
496	0.12558
497	0.13773
498	0.1364
499	0.12511
500	0.11947
501	0.1255
502	0.13126
503	0.12605
504	0.11961
505	0.12462
506	0.1372
507	0.14169
508	0.13328
509	0.12724
510	0.13554
511	0.14913
512	0.1505
513	0.1405
514	0.13621
515	0.14681
516	0.15893
517	0.15846
518	0.15225
519	0.15635
520	0.16786
521	0.17175
522	0.16506
523	0.15998
524	0.16582
525	0.17591
526	0.17566
527	0.16607
528	0.16328
529	0.17195
530	0.17881
531	0.17274
532	0.16192
533	0.16176
534	0.17172
535	0.17624
536	0.16879
537	0.16145
538	0.16506
539	0.17307
540	0.17115
541	0.15905
542	0.15397
543	0.16318
544	0.17234
545	0.16819
546	0.15704
547	0.15489
548	0.1645
549	0.17068
550	0.16341
551	0.15381
552	0.15685
553	0.16765
554	0.16952
555	0.15943
556	0.15245
557	0.15922
558	0.17047
559	0.17059
560	0.16134
561	0.15896
562	0.16908
563	0.17863
564	0.17659
565	0.17058
566	0.17382
567	0.18589
568	0.19193
569	0.18488
570	0.17891
571	0.186
572	0.19735
573	0.19862
574	0.19163
575	0.19092
576	0.20166
577	0.21175
578	0.20982
579	0.20298
580	0.20509
581	0.21637
582	0.22159
583	0.21353
584	0.20538
585	0.21084
586	0.22296
587	0.22506
588	0.21663
589	0.21389
590	0.22422
591	0.23323
592	0.22568
593	0.21116
594	0.20837
595	0.21786
596	0.22149
597	0.20831
598	0.19266
599	0.19167
600	0.20088
601	0.2022
602	0.19189
603	0.1851
604	0.19166
605	0.20079
606	0.19741
607	0.18567
608	0.18219
609	0.19087
610	0.1966
611	0.18722
612	0.17275
613	0.17028
614	0.17757
615	0.17683
616	0.16114
617	0.14559
618	0.14675
619	0.1564
620	0.15317
621	0.13603
622	0.12611
623	0.13407
624	0.14225
625	0.13358
626	0.11678
627	0.11217
628	0.12056
629	0.12427
630	0.11377
631	0.10102
632	0.10067
633	0.10818
634	0.10682
635	0.09318
636	0.0833
637	0.08812
638	0.09619
639	0.09099
640	0.07645
641	0.0719
642	0.08224
643	0.0904
644	0.08328
645	0.07128
646	0.07264
647	0.0853
648	0.08823
649	0.07398
650	0.06238
651	0.06932
652	0.08265
653	0.0819
654	0.06729
655	0.05951
656	0.06782
657	0.07683
658	0.07133
659	0.0593
660	0.05907
661	0.07081
662	0.07661
663	0.06826
664	0.05928
665	0.06359
666	0.07563
667	0.07583
668	0.04152
669	0.02476
670	0.04459
671	0.06316
672	0.06139
673	0.04711
674	0.04242
675	0.05393
676	0.06279
677	0.05258
678	0.03604
679	0.03582
680	0.0498
681	0.05546
682	0.04465
683	0.03442
684	0.04031
685	0.05273
686	0.0522
687	0.03933
688	0.03311
689	0.04251
690	0.05273
691	0.04914
692	0.03866
693	0.03926
694	0.05343
695	0.064
696	0.06
697	0.05291
698	0.05953
699	0.07658
700	0.08508
701	0.07911
702	0.07457
703	0.0857
704	0.10248
705	0.10411
706	0.0929
707	0.08909
708	0.09925
709	0.10803
710	0.10149
711	0.08769
712	0.08451
713	0.09229
714	0.094
715	0.08244
716	0.07081
717	0.07209
718	0.08001
719	0.07803
720	0.06446
721	0.05658
722	0.06342
723	0.07179
724	0.06722
725	0.05417
726	0.04967
727	0.05851
728	0.06524
729	0.05752
730	0.04541
731	0.04607
732	0.05725
733	0.0613
734	0.05272
735	0.04545
736	0.052
737	0.06471
738	0.06761
739	0.06074
740	0.05927
741	0.07088
742	0.08466
743	0.08756
744	0.08433
745	0.08945
746	0.10453
747	0.11677
748	0.11844
749	0.11829
750	0.12869
751	0.14674
752	0.15726
753	0.15527
754	0.15415
755	0.16448
756	0.17768
757	0.17883
758	0.16855
759	0.16231
760	0.16695
761	0.1712
762	0.16283
763	0.14744
764	0.14014
765	0.14243
766	0.14068
767	0.12779
768	0.1136
769	0.10994
770	0.11364
771	0.11133
772	0.09945
773	0.0897
774	0.09089
775	0.09522
776	0.09042
777	0.0784
778	0.07141
779	0.0732
780	0.07431
781	0.06631
782	0.0543
783	0.05039
784	0.05563
785	0.05791
786	0.04943
787	0.03933
788	0.03848
789	0.04425
790	0.04466
791	0.03643
792	0.02963
793	0.03209
794	0.03829
795	0.03772
796	0.03044
797	0.02736
798	0.03322
799	0.03927
800	0.03671
801	0.02989
802	0.02885
803	0.03399
804	0.03513
805	0.02828
806	0.02088
807	0.02162
808	0.02757
809	0.02826
810	0.02111
811	0.01577
812	0.01994
813	0.02738
814	0.02835
815	0.02406
816	0.02394
817	0.03142
818	0.03894
819	0.03902
820	0.03478
821	0.03473
822	0.04026
823	0.04361
824	0.03988
825	0.03471
826	0.03577
827	0.04183
828	0.04556
829	0.04473
830	0.04543
831	0.05266
832	0.06307
833	0.06991
834	0.07278
835	0.07769
836	0.08783
837	0.09866
838	0.10364
839	0.10404
840	0.10731
841	0.11514
842	0.12127
843	0.1212
844	0.11867
845	0.12018
846	0.12605
847	0.13057
848	0.13077
849	0.13024
850	0.13362
851	0.13976
852	0.14354
853	0.14324
854	0.14275
855	0.14567
856	0.15
857	0.15085
858	0.14743
859	0.14421
860	0.14373
861	0.14269
862	0.13716
863	0.12889
864	0.12249
865	0.11866
866	0.11382
867	0.105
868	0.09501
869	0.088
870	0.08371
871	0.07857
872	0.07066
873	0.06275
874	0.05797
875	0.05558
876	0.05269
877	0.04854
878	0.04586
879	0.04719
880	0.05119
881	0.05498
882	0.0593
883	0.06784
884	0.08028
885	0.08989
886	0.09088
887	0.08446
888	0.07641
889	0.07021
890	0.06436
891	0.05679
892	0.0498
893	0.04697
894	0.04746
895	0.04685
896	0.04329
897	0.03992
898	0.04033
899	0.04374
900	0.04598
901	0.046
902	0.04747
903	0.05277
904	0.05964
905	0.06465
906	0.06798
907	0.07321
908	0.08193
909	0.09111
910	0.09735
911	0.10195
912	0.10886
913	0.11893
914	0.12843
915	0.13498
916	0.14135
917	0.15111
918	0.16306
919	0.17307
920	0.17934
921	0.18471
922	0.19306
923	0.20313
924	0.21047
925	0.21429
926	0.21869
927	0.22638
928	0.23478
929	0.24003
930	0.24283
931	0.24722
932	0.25479
933	0.26231
934	0.26637
935	0.26847
936	0.27308
937	0.28127
938	0.28883
939	0.29223
940	0.29401
941	0.29891
942	0.30613
943	0.30933
944	0.30642
945	0.30223
946	0.30069
947	0.29882
948	0.29062
949	0.27686
950	0.26432
951	0.25627
952	0.24908
953	0.2382
954	0.22551
955	0.21715
956	0.21486
957	0.21366
958	0.20997
959	0.20689
960	0.20966
961	0.2179
962	0.22574
963	0.23031
964	0.23615
965	0.24823
966	0.26419
967	0.27759
968	0.28716
969	0.29805
970	0.31427
971	0.33244
972	0.34601
973	0.35503
974	0.36658
975	0.38438
976	0.40221
977	0.41432
978	0.42386
979	0.43752
980	0.45556
981	0.47149
982	0.48177
983	0.49078
984	0.50453
985	0.52182
986	0.53616
987	0.54525
988	0.55485
989	0.57065
990	0.58977
991	0.6055
992	0.61768
993	0.63284
994	0.65409
995	0.67617
996	0.69284
997	0.70593
998	0.72248
999	0.74465
1000	0.76597
1001	0.78071
1002	0.79224
1003	0.80848
1004	0.8292
1005	0.84666
1006	0.85684
1007	0.86512
1008	0.87764
1009	0.89167
1010	0.89999
1011	0.90159
1012	0.90298
1013	0.90909
1014	0.91612
1015	0.91775
1016	0.91502
1017	0.91506
1018	0.9213
1019	0.92901
1020	0.93285
1021	0.93485
1022	0.9412
1023	0.95269
1024	0.96267
1025	0.96644
1026	0.9681
1027	0.97455
1028	0.98444
1029	0.98941
1030	0.98743
1031	0.98572
1032	0.9895
1033	0.99541
1034	0.99688
1035	0.99367
1036	0.99217
1037	0.99582
1038	1
1039	0.99905
1040	0.99433
1041	0.99161
1042	0.99198
1043	0.98952
1044	0.97974
1045	0.96677
1046	0.95732
1047	0.95084
1048	0.94126
1049	0.92664
1050	0.91262
1051	0.90468
1052	0.90025
1053	0.89261
1054	0.8813
1055	0.87272
1056	0.87027
1057	0.86867
1058	0.86204
1059	0.8517
1060	0.84409
1061	0.841
1062	0.83708
1063	0.82843
1064	0.81844
1065	0.81243
1066	0.80984
1067	0.80527
1068	0.79699
1069	0.79019
1070	0.79035
1071	0.79543
1072	0.79907
1073	0.80094
1074	0.80719
1075	0.82044
1076	0.83526
1077	0.84582
1078	0.85297
1079	0.86139
1080	0.87157
1081	0.87744
1082	0.87459
1083	0.86663
1084	0.86013
1085	0.85464
1086	0.84497
1087	0.82984
1088	0.81413
1089	0.80221
1090	0.79262
1091	0.78054
1092	0.76524
1093	0.75177
1094	0.74309
1095	0.73579
1096	0.72595
1097	0.71485
1098	0.70694
1099	0.70331
1100	0.69977
1101	0.69304
1102	0.68554
1103	0.68164
1104	0.6807
1105	0.67769
1106	0.67033
1107	0.66296
1108	0.65993
1109	0.65915
1110	0.65513
1111	0.64727
1112	0.64093
1113	0.63861
1114	0.63667
1115	0.63066
1116	0.62162
1117	0.6145
1118	0.61087
1119	0.60665
1120	0.59839
1121	0.58847
1122	0.58167
1123	0.57815
1124	0.57348
1125	0.56529
1126	0.55678
1127	0.55177
1128	0.54891
1129	0.54336
1130	0.53411
1131	0.52557
1132	0.52092
1133	0.51794
1134	0.51272
1135	0.50586
1136	0.50174
1137	0.50246
1138	0.50419
1139	0.50328
1140	0.50186
1141	0.50458
1142	0.51213
1143	0.52032
1144	0.52627
1145	0.53217
1146	0.54144
1147	0.5538
1148	0.56545
1149	0.57453
1150	0.58349
1151	0.59488
1152	0.6068
1153	0.61558
1154	0.6208
1155	0.62533
1156	0.63038
1157	0.63326
1158	0.63132
1159	0.62561
1160	0.61931
1161	0.61315
1162	0.60501
1163	0.59352
1164	0.58046
1165	0.56858
1166	0.55825
1167	0.54688
1168	0.53295
1169	0.51836
1170	0.50577
1171	0.49483
1172	0.4829
1173	0.46899
1174	0.4549
1175	0.44268
1176	0.43182
1177	0.41994
1178	0.40633
1179	0.39309
1180	0.38203
1181	0.37238
1182	0.36246
1183	0.35207
1184	0.34293
1185	0.33597
1186	0.32988
1187	0.32323
1188	0.31644
1189	0.3112
1190	0.30745
1191	0.30335
1192	0.29783
1193	0.29189
1194	0.2868
1195	0.28285
1196	0.2792
1197	0.27543
1198	0.27243
1199	0.27137
1200	0.2722
1201	0.27409
1202	0.27639
1203	0.27949
1204	0.28439
1205	0.29081
1206	0.29689
1207	0.3014
1208	0.30484
1209	0.3081
1210	0.31081
1211	0.31166
1212	0.30991
1213	0.30646
1214	0.30255
1215	0.29829
1216	0.29271
1217	0.28526
1218	0.27708
1219	0.26985
1220	0.26374
1221	0.25803
1222	0.25257
1223	0.24814
1224	0.24584
1225	0.24552
1226	0.24585
1227	0.24642
1228	0.24805
1229	0.25147
1230	0.25576
1231	0.25937
1232	0.26196
1233	0.26441
1234	0.26735
1235	0.26989
1236	0.27076
1237	0.27055
1238	0.27111
1239	0.27309
1240	0.27489
1241	0.27502
1242	0.27465
1243	0.27572
1244	0.27861
1245	0.28106
1246	0.28147
1247	0.28117
1248	0.282
1249	0.28335
1250	0.28278
1251	0.27968
1252	0.27621
1253	0.27433
1254	0.27323
1255	0.2708
1256	0.2669
1257	0.26348
1258	0.2618
1259	0.26014
1260	0.25596
1261	0.24986
1262	0.24482
1263	0.24172
1264	0.23836
1265	0.23306
1266	0.22712
1267	0.22327
1268	0.22148
1269	0.21879
1270	0.21374
1271	0.20832
1272	0.20529
1273	0.20371
1274	0.20057
1275	0.19522
1276	0.19046
1277	0.18823
1278	0.18704
1279	0.1843
1280	0.18031
1281	0.17795
1282	0.17836
1283	0.17935
1284	0.17866
1285	0.17757
1286	0.17907
1287	0.18316
1288	0.18697
1289	0.1891
1290	0.19158
1291	0.19681
1292	0.2038
1293	0.20914
1294	0.21218
1295	0.21588
1296	0.22225
1297	0.22921
1298	0.23322
1299	0.23413
1300	0.23567
1301	0.2395
1302	0.24262
1303	0.24211
1304	0.23942
1305	0.23819
1306	0.23909
1307	0.23893
1308	0.23595
1309	0.23262
1310	0.2323
1311	0.23441
1312	0.23569
1313	0.2353
1314	0.23645
1315	0.2416
1316	0.24891
1317	0.25527
1318	0.26078
1319	0.26823
1320	0.27867
1321	0.28935
1322	0.29767
1323	0.30477
1324	0.31385
1325	0.32515
1326	0.33468
1327	0.33975
1328	0.34273
1329	0.34734
1330	0.3524
1331	0.35397
1332	0.35109
1333	0.34716
1334	0.34535
1335	0.34437
1336	0.34037
1337	0.33311
1338	0.32651
1339	0.32186
1340	0.31594
1341	0.30743
1342	0.29933
1343	0.29401
1344	0.29096
1345	0.28707
1346	0.28017
1347	0.27279
1348	0.26874
1349	0.26738
1350	0.26418
1351	0.25774
1352	0.25174
1353	0.2497
1354	0.24977
1355	0.24705
1356	0.24188
1357	0.23908
1358	0.24068
1359	0.24393
1360	0.24494
1361	0.24396
1362	0.24467
1363	0.24847
1364	0.25263
1365	0.25514
1366	0.25801
1367	0.26458
1368	0.27447
1369	0.28341
1370	0.28962
1371	0.29626
1372	0.30597
1373	0.31668
1374	0.32296
1375	0.32342
1376	0.32412
1377	0.32763
1378	0.3303
1379	0.3279
1380	0.32202
1381	0.31868
1382	0.31967
1383	0.32068
1384	0.31833
1385	0.31542
1386	0.31571
1387	0.31788
1388	0.31792
1389	0.31576
1390	0.31436
1391	0.31613
1392	0.32066
1393	0.32439
1394	0.32403
1395	0.32129
1396	0.32199
1397	0.32572
1398	0.32667
1399	0.32218
1400	0.3185
1401	0.31976
1402	0.32134
1403	0.31976
1404	0.3157
1405	0.31159
1406	0.31044
1407	0.30948
1408	0.30481
1409	0.29902
1410	0.29654
1411	0.29604
1412	0.29219
1413	0.28423
1414	0.27684
1415	0.27344
1416	0.27228
1417	0.26954
1418	0.26389
1419	0.25544
1420	0.24798
1421	0.2449
1422	0.2421
1423	0.23694
1424	0.23139
1425	0.22893
1426	0.22753
1427	0.22373
1428	0.21916
1429	0.21701
1430	0.21602
1431	0.21343
1432	0.20886
1433	0.20412
1434	0.20388
1435	0.2081
1436	0.20854
1437	0.19832
1438	0.19308
1439	0.19617
1440	0.19935
1441	0.1995
1442	0.19758
1443	0.19759
1444	0.20098
1445	0.20472
1446	0.20614
1447	0.20541
1448	0.20489
1449	0.20664
1450	0.20875
1451	0.20834
1452	0.20706
1453	0.20925
1454	0.21519
1455	0.22151
1456	0.22478
1457	0.22326
1458	0.22025
1459	0.21748
1460	0.21454
1461	0.21206
1462	0.21187
1463	0.21546
1464	0.21841
1465	0.21274
1466	0.2037
1467	0.2002
1468	0.19852
1469	0.19572
1470	0.19189
1471	0.18796
1472	0.18153
1473	0.17046
1474	0.16061
1475	0.15484
1476	0.14849
1477	0.14321
1478	0.1419
1479	0.14125
1480	0.13901
1481	0.13595
1482	0.13357
1483	0.13092
1484	0.12582
1485	0.11921
1486	0.11362
1487	0.10791
1488	0.10206
1489	0.09612
1490	0.08323
1491	0.06882
1492	0.06364
1493	0.06114
1494	0.05848
1495	0.05643
1496	0.05424
1497	0.05226
1498	0.05005
1499	0.04469
1500	0.04055
1501	0.04063
1502	0.0417
1503	0.04299
1504	0.04595
1505	0.05127
1506	0.05616
1507	0.05208
1508	0.04547
1509	0.04256
1510	0.04315
1511	0.0456
1512	0.04641
1513	0.04588
1514	0.04766
1515	0.05243
1516	0.05814
1517	0.05771
1518	0.05497
1519	0.05898
1520	0.0658
1521	0.07013
1522	0.06749
1523	0.06552
1524	0.0679
1525	0.07065
1526	0.07204
1527	0.07205
1528	0.07044
1529	0.06944
1530	0.07099
1531	0.07377
1532	0.07601
1533	0.07479
1534	0.06994
1535	0.0676
1536	0.06876
1537	0.07189
1538	0.07693
1539	0.08117
1540	0.07765
1541	0.07294
1542	0.06633
1543	0.06135
1544	0.05974
1545	0.05412
1546	0.04724
1547	0.04516
1548	0.04583
1549	0.04595
1550	0.04218
1551	0.03738
1552	0.03713
1553	0.03903
1554	0.03861
1555	0.03678
1556	0.03904
1557	0.04529
1558	0.05165
1559	0.04211
1560	0.02588
1561	0.02159
1562	0.02328
1563	0.02508
1564	0.02468
1565	0.01977
1566	0.01456
1567	0.01388
1568	0.01655
1569	0.01606
1570	0.00579
1571	7.50654E-5
1572	0
1573	0.00136
1574	0.0049
1575	0.00875
1576	0.00695
1577	9.32956E-4
1578	6.32694E-4
1579	0.00255
1580	0.00419
1581	0.00633
1582	0.00968
1583	0.01407
1584	0.01846
1585	0.02244
1586	0.02672
1587	0.03177
1588	0.0374
1589	0.04272
1590	0.04723
1591	0.05183
1592	0.05716
1593	0.06271
1594	0.0671
1595	0.06989
1596	0.07247
1597	0.07574
1598	0.079
1599	0.08169
1600	0.08407
1601	0.08665
1602	0.08949
1603	0.09168
1604	0.09311
1605	0.09501
1606	0.09785
1607	0.10096
1608	0.10355
1609	0.1051
1610	0.10614
1611	0.10817
1612	0.11135
1613	0.1151
1614	0.12008
1615	0.12659
1616	0.13142
1617	0.13084
1618	0.13075
1619	0.1327
1620	0.13524
1621	0.13948
1622	0.14525
1623	0.14777
1624	0.14505
1625	0.14625
1626	0.15107
1627	0.15527
1628	0.15654
1629	0.1572
1630	0.15956
1631	0.16274
1632	0.16656
1633	0.17162
1634	0.17728
1635	0.1793
1636	0.17612
1637	0.17308
1638	0.17136
1639	0.17048
1640	0.17072
1641	0.17144
1642	0.1721
1643	0.17314
1644	0.17591
1645	0.1804
1646	0.18412
1647	0.18284
1648	0.17757
1649	0.17652
1650	0.18177
1651	0.19037
1652	0.19909
1653	0.20016
1654	0.19082
1655	0.19215
1656	0.19499
1657	0.19663
1658	0.19765
1659	0.20003
1660	0.20511
1661	0.21217
1662	0.21779
1663	0.22012
1664	0.22248
1665	0.2268
1666	0.23184
1667	0.23742
1668	0.24248
1669	0.24469
1670	0.24529
1671	0.24498
1672	0.24377
1673	0.24536
1674	0.24872
1675	0.24714
1676	0.24194
1677	0.24181
1678	0.24356
1679	0.24499
1680	0.24475
1681	0.24419
1682	0.24731
1683	0.25166
1684	0.24737
1685	0.2312
1686	0.22694
1687	0.22698
1688	0.22499
1689	0.22127
1690	0.21624
1691	0.21074
1692	0.20684
1693	0.20601
1694	0.20818
1695	0.20831
1696	0.19941
1697	0.19344
1698	0.19619
1699	0.20041
1700	0.19145
1701	0.17594
1702	0.17758
1703	0.18285
1704	0.18647
1705	0.18838
1706	0.18832
1707	0.18827
1708	0.19203
1709	0.19755
1710	0.20189
1711	0.20611
1712	0.21286
1713	0.22215
1714	0.23151
1715	0.23957
1716	0.24756
1717	0.25425
1718	0.25469
1719	0.25266
1720	0.25449
1721	0.25836
1722	0.26258
1723	0.26565
1724	0.26668
1725	0.26705
1726	0.26802
1727	0.27002
1728	0.27317
1729	0.27519
1730	0.27382
1731	0.27437
1732	0.28059
1733	0.28674
1734	0.28017
1735	0.26798
1736	0.269
1737	0.27241
1738	0.27457
1739	0.2733
1740	0.2673
1741	0.26395
1742	0.26501
1743	0.26292
1744	0.2576
1745	0.25514
1746	0.25637
1747	0.25765
1748	0.25609
1749	0.25325
1750	0.25177
1751	0.24906
1752	0.24608
1753	0.24577
1754	0.24724
1755	0.25048
1756	0.25351
1757	0.25283
1758	0.25152
1759	0.25369
1760	0.25893
1761	0.263
1762	0.26135
1763	0.25935
1764	0.26133
1765	0.26507
1766	0.26954
1767	0.27264
1768	0.27261
1769	0.27395
1770	0.27991
1771	0.28468
1772	0.28014
1773	0.27069
1774	0.26826
1775	0.27025
1776	0.27114
1777	0.27176
1778	0.27417
1779	0.27884
1780	0.28352
1781	0.28562
1782	0.28713
1783	0.29034
1784	0.29397
1785	0.29577
1786	0.29571
1787	0.29504
1788	0.29478
1789	0.2966
1790	0.29882
1791	0.29786
1792	0.29072
1793	0.28046
1794	0.27554
1795	0.27233
1796	0.26446
1797	0.2554
1798	0.25003
1799	0.24463
1800	0.23551
1801	0.2246
1802	0.21357
1803	0.204
1804	0.19656
1805	0.18848
1806	0.17886
1807	0.16952
1808	0.16215
1809	0.15697
1810	0.14963
1811	0.13787
1812	0.12818
1813	0.12291
1814	0.11813
1815	0.11187
1816	0.10515
1817	0.09988
1818	0.09633
1819	0.09305
1820	0.08863
1821	0.08415
1822	0.08174
1823	0.08174
1824	0.08107
1825	0.07572
1826	0.06954
1827	0.06921
1828	0.07233
1829	0.07172
1830	0.06423
1831	0.05843
1832	0.05806
1833	0.05819
1834	0.05629
1835	0.05406
1836	0.05303
1837	0.0527
1838	0.05162
1839	0.04946
1840	0.04734
1841	0.04766
1842	0.05109
1843	0.05381
1844	0.04952
1845	0.04228
1846	0.04238
1847	0.04418
1848	0.04289
1849	0.04025
1850	0.03914
1851	0.03968
1852	0.04019
1853	0.03922
1854	0.03739
1855	0.03665
1856	0.03754
1857	0.03843
1858	0.0376
1859	0.03589
1860	0.0356
1861	0.03659
1862	0.03682
1863	0.03568
1864	0.035
1865	0.03666
1866	0.03984
1867	0.04204
1868	0.04101
1869	0.03673
1870	0.03428
1871	0.03517
1872	0.03545
1873	0.03422
1874	0.03346
1875	0.03428
1876	0.03533
1877	0.03498
1878	0.03384
1879	0.03366
1880	0.03472
1881	0.03551
1882	0.03493
1883	0.03414
1884	0.03451
1885	0.03551
1886	0.03567
1887	0.03541
1888	0.03593
1889	0.0363
1890	0.03538
1891	0.03443
1892	0.03373
1893	0.03408
1894	0.03595
1895	0.03664
1896	0.03503
1897	0.03364
1898	0.03378
1899	0.03514
1900	0.03607
1901	0.03539
1902	0.03433
1903	0.0345
1904	0.03563
1905	0.03597
1906	0.03516
1907	0.03456
1908	0.03456
1909	0.03456
1910	0.03456
1911	0.03456
1912	0.03456
1913	0.03456
1914	0.03456
1915	0.03456
1916	0.03456
1917	0.03456
1918	0.03456
1919	0.03456
1920	0.03456
1921	0.03456
1922	0.03456
1923	0.03456
1924	0.03456
1925	0.03456
1926	0.03456
1927	0.03456
1928	0.03456
1929	0.03456
1930	0.03456
1931	0.03456
1932	0.03456
1933	0.03456
1934	0.03456
1935	0.03456
1936	0.03456
1937	0.03456
1938	0.03456
1939	0.03456
1940	0.03456
1941	0.03456
1942	0.03456
1943	0.03456
1944	0.03456
1945	0.03456
1946	0.03456
1947	0.03456
1948	0.03456
1949	0.03456
1950	0.03456
1951	0.03456
1952	0.03456
1953	0.03456
1954	0.03456
1955	0.03456
1956	0.03456
1957	0.03456
1958	0.03456
1959	0.03456
1960	0.03456
1961	0.03456
1962	0.03456
1963	0.03456
1964	0.03456
1965	0.03456
1966	0.03456
1967	0.03456
1968	0.03456
1969	0.03456
1970	0.03456
1971	0.03456
1972	0.03456
1973	0.03456
1974	0.03456
1975	0.03456
1976	0.03456
1977	0.03456
1978	0.03456
1979	0.03456
1980	0.03456
1981	0.03456
1982	0.03456
1983	0.03456
1984	0.03456
1985	0.03456
1986	0.03456
1987	0.03456
1988	0.03456
1989	0.03456
1990	0.03456
1991	0.03456
1992	0.03456
1993	0.03456
1994	0.03456
1995	0.03456
1996	0.03456
1997	0.03456
1998	0.03456
1999	0.03456
2000	0.03456
2001	0.03456
2002	0.03456
2003	0.03456
2004	0.03456
2005	0.03456
2006	0.03456
2007	0.03456
2008	0.03456
2009	0.03456
2010	0.03456
2011	0.03456
2012	0.03456
2013	0.03456
2014	0.03456
2015	0.03456
2016	0.03456
2017	0.03456
2018	0.03456
2019	0.03456
2020	0.03456
2021	0.03456
2022	0.03456
2023	0.03456
2024	0.03456
2025	0.03456
2026	0.03456
2027	0.03456
2028	0.03456
2029	0.03456
2030	0.03456
2031	0.03456
2032	0.03456
2033	0.03456
2034	0.03456
2035	0.03456
2036	0.03456
2037	0.03456
2038	0.03456
2039	0.03456
2040	0.03456
2041	0.03456
2042	0.03456
2043	0.03456
2044	0.03456
2045	0.03456
2046	0.03456
2047	0.03456
2048	0.03456
2049	0.03456
2050	0.03456
2051	0.03456
2052	0.03456
2053	0.03456
2054	0.03456
2055	0.03456
2056	0.03456
2057	0.03456
2058	0.03456
2059	0.03456
2060	0.03456
2061	0.03456
2062	0.03456
2063	0.03456
2064	0.03456
2065	0.03456
2066	0.03456
2067	0.03456
2068	0.03456
2069	0.03456
2070	0.03456
2071	0.03456
2072	0.03456
2073	0.03456
2074	0.03456
2075	0.03456
2076	0.03456
2077	0.03456
2078	0.03456
2079	0.03456
2080	0.03456
2081	0.03456
2082	0.03456
2083	0.03456
2084	0.03456
2085	0.03456
2086	0.03456
2087	0.03456
2088	0.03456
2089	0.03456
2090	0.03456
2091	0.03456
2092	0.03456
2093	0.03456
2094	0.03456
2095	0.03456
2096	0.03456
2097	0.03456
2098	0.03456
2099	0.03456
2100	0.03456
2101	0.03456
2102	0.03456
2103	0.03456
2104	0.03456
2105	0.03456
2106	0.03456
2107	0.03456
2108	0.03456
2109	0.03456
2110	0.03456
2111	0.03456
2112	0.03456
2113	0.03456
2114	0.03456
2115	0.03456
2116	0.03456
2117	0.03456
2118	0.03456
2119	0.03456
2120	0.03456
2121	0.03456
2122	0.03456
2123	0.03456
2124	0.03456
2125	0.03456
2126	0.03456
2127	0.03456
2128	0.03456
2129	0.03456
2130	0.03456
2131	0.03456
2132	0.03456
2133	0.03456
2134	0.03456
2135	0.03456
2136	0.03456
2137	0.03456
2138	0.03456
2139	0.03456
2140	0.03456
2141	0.03456
2142	0.03456
2143	0.03456
2144	0.03456
2145	0.03456
2146	0.03456
2147	0.03456
2148	0.03456
2149	0.03456
2150	0.03456
2151	0.03456
2152	0.03456
2153	0.03456
2154	0.03456
2155	0.03456
2156	0.03456
2157	0.03456
2158	0.03456
2159	0.03456
2160	0.03456
2161	0.03456
2162	0.03456
2163	0.03456
2164	0.03456
2165	0.03456
2166	0.03456
2167	0.03456
2168	0.03456
2169	0.03456
2170	0.03456
2171	0.03456
2172	0.03456
2173	0.03456
2174	0.03456
2175	0.03456
2176	0.03456
2177	0.03456
2178	0.03456
2179	0.03456
2180	0.03456
2181	0.03456
2182	0.03456
2183	0.03456
2184	0.03456
2185	0.03456
2186	0.03456
2187	0.03456
2188	0.03456
2189	0.03456
2190	0.03456
2191	0.03456
2192	0.03456
2193	0.03456
2194	0.03456
2195	0.03456
2196	0.03456
2197	0.03456
2198	0.03456
2199	0.03456
2200	0.03456
2201	0.03456
2202	0.03456
2203	0.03456
2204	0.03456
2205	0.03456
2206	0.03456
2207	0.03456
2208	0.03456
2209	0.03456
2210	0.03456
2211	0.03456
2212	0.03456
2213	0.03456
2214	0.03456
2215	0.03456
2216	0.03456
2217	0.03456
2218	0.03456
2219	0.03456
2220	0.03456
2221	0.03456
2222	0.03456
2223	0.03456
2224	0.03456
2225	0.03456
2226	0.03456
2227	0.03456
2228	0.03456
2229	0.03456
2230	0.03456
2231	0.03456
2232	0.03456
2233	0.03456
2234	0.03456
2235	0.03456
2236	0.03456
2237	0.03456
2238	0.03456
2239	0.03456
2240	0.03456
2241	0.03456
2242	0.03456
2243	0.03456
2244	0.03456
2245	0.03456
2246	0.03456
2247	0.03456
2248	0.03456
2249	0.03456
2250	0.03456
2251	0.03456
2252	0.03456
2253	0.03456
2254	0.03456
2255	0.03456
2256	0.03456
2257	0.03456
2258	0.03456
2259	0.03456
2260	0.03456
2261	0.03456
2262	0.03456
2263	0.03456
2264	0.03456
2265	0.03456
2266	0.03456
2267	0.03456
2268	0.03456
2269	0.03456
2270	0.03456
2271	0.03456
2272	0.03456
2273	0.03456
2274	0.03456
2275	0.03456
2276	0.03456
2277	0.03456
2278	0.03456
2279	0.03456
2280	0.03456
2281	0.03456
2282	0.03456
2283	0.03456
2284	0.03456
2285	0.03456
2286	0.03456
2287	0.03456
2288	0.03456
2289	0.03456
2290	0.03456
2291	0.03456
2292	0.03456
2293	0.03456
2294	0.03456
2295	0.03456
2296	0.03456
2297	0.03456
2298	0.03456
2299	0.03456
2300	0.03456
2301	0.03456
2302	0.03456
2303	0.03456
2304	0.03456
2305	0.03456
2306	0.03456
2307	0.03456
2308	0.03456
2309	0.03456
2310	0.03456
2311	0.03456
2312	0.03456
2313	0.03456
2314	0.03456
2315	0.03456
2316	0.03456
2317	0.03456
2318	0.03456
2319	0.03456
2320	0.03456
2321	0.03456
2322	0.03456
2323	0.03456
2324	0.03456
2325	0.03456
2326	0.03456
2327	0.03456
2328	0.03456
2329	0.03456
2330	0.03456
2331	0.03456
2332	0.03456
2333	0.03456
2334	0.03456
2335	0.03456
2336	0.03456
2337	0.03456
2338	0.03456
2339	0.03456
2340	0.03456
2341	0.03456
2342	0.03456
2343	0.03456
2344	0.03456
2345	0.03456
2346	0.03456
2347	0.03456
2348	0.03456
2349	0.03456
2350	0.03456
2351	0.03456
2352	0.03456
2353	0.03456
2354	0.03456
2355	0.03456
2356	0.03456
2357	0.03456
2358	0.03456
2359	0.03456
2360	0.03456
2361	0.03456
2362	0.03456
2363	0.03456
2364	0.03456
2365	0.03456
2366	0.03456
2367	0.03456
2368	0.03456
2369	0.03456
2370	0.03456
2371	0.03456
2372	0.03456
2373	0.03456
2374	0.03456
2375	0.03456
2376	0.03456
2377	0.03456
2378	0.03456
2379	0.03456
2380	0.03456
2381	0.03456
2382	0.03456
2383	0.03456
2384	0.03456
2385	0.03456
2386	0.03456
2387	0.03456
2388	0.03456
2389	0.03456
2390	0.03456
2391	0.03456
2392	0.03456
2393	0.03456
2394	0.03456
2395	0.03456
2396	0.03456
2397	0.03456
2398	0.03456
2399	0.03456
2400	0.03456
2401	0.03456
2402	0.03456
2403	0.03456
2404	0.03456
2405	0.03456
2406	0.03456
2407	0.03456
2408	0.03456
2409	0.03456
2410	0.03456
2411	0.03456
2412	0.03456
2413	0.03456
2414	0.03456
2415	0.03456
2416	0.03456
2417	0.03456
2418	0.03456
2419	0.03456
2420	0.03456
2421	0.03456
2422	0.03456
2423	0.03456
2424	0.03456
2425	0.03456
2426	0.03456
2427	0.03456
2428	0.03456
2429	0.03456
2430	0.03456
2431	0.03456
2432	0.03456
2433	0.03456
2434	0.03456
2435	0.03456
2436	0.03456
2437	0.03456
2438	0.03456
2439	0.03456
2440	0.03456
2441	0.03456
2442	0.03456
2443	0.03456
2444	0.03456
2445	0.03456
2446	0.03456
2447	0.03456
2448	0.03456
2449	0.03456
2450	0.03456
2451	0.03456
2452	0.03456
2453	0.03456
2454	0.03456
2455	0.03456
2456	0.03456
2457	0.03456
2458	0.03456
2459	0.03456
2460	0.03456
2461	0.03456
2462	0.03456
2463	0.03456
2464	0.03456
2465	0.03456
2466	0.03456
2467	0.03456
2468	0.03456
2469	0.03456
2470	0.03456
2471	0.03456
2472	0.03456
2473	0.03456
2474	0.03456
2475	0.03456
2476	0.03456
2477	0.03456
2478	0.03456
2479	0.03456
2480	0.03456
2481	0.03456
2482	0.03456
2483	0.03456
2484	0.03456
2485	0.03456
2486	0.03456
2487	0.03456
2488	0.03456
2489	0.03456
2490	0.03456
2491	0.03456
2492	0.03456
2493	0.03456
2494	0.03456
2495	0.03456
2496	0.03456
2497	0.03456
2498	0.03456
2499	0.03456
2500	0.03456
2501	0.03456
2502	0.03456
2503	0.03456
2504	0.03456
2505	0.03456
2506	0.03456
2507	0.03456
2508	0.03456
2509	0.03456
2510	0.03456
2511	0.03456
2512	0.03456
2513	0.03456
2514	0.03456
2515	0.03456
2516	0.03456
2517	0.03456
2518	0.03456
2519	0.03456
2520	0.03456
2521	0.03456
2522	0.03456
2523	0.03456
2524	0.03456
2525	0.03456
2526	0.03456
2527	0.03456
2528	0.03456
2529	0.03456
2530	0.03456
2531	0.03456
2532	0.03456
2533	0.03456
2534	0.03456
2535	0.03456
2536	0.03456
2537	0.03456
2538	0.03456
2539	0.03456
2540	0.03456
2541	0.03456
2542	0.03456
2543	0.03456
2544	0.03456
2545	0.03456
2546	0.03456
2547	0.03456
2548	0.03456
2549	0.03456
2550	0.03456
2551	0.03456
2552	0.03456
2553	0.03456
2554	0.03456
2555	0.03456
2556	0.03456
2557	0.03456
2558	0.03456
2559	0.03456
2560	0.03456
2561	0.03456
2562	0.03456
2563	0.03456
2564	0.03456
2565	0.03456
2566	0.03456
2567	0.03456
2568	0.03456
2569	0.03456
2570	0.03456
2571	0.03456
2572	0.03456
2573	0.03456
2574	0.03456
2575	0.03456
2576	0.03456
2577	0.03456
2578	0.03456
2579	0.03456
2580	0.03456
2581	0.03456
2582	0.03456
2583	0.03456
2584	0.03456
2585	0.03456
2586	0.03456
2587	0.03456
2588	0.03456
2589	0.03456
2590	0.03456
2591	0.03456
2592	0.03456
2593	0.03456
2594	0.03456
2595	0.03456
2596	0.03456
2597	0.03456
2598	0.03456
2599	0.03456
2600	0.03456
2601	0.03456
2602	0.03456
2603	0.03456
2604	0.03456
2605	0.03456
2606	0.03456
2607	0.03456
2608	0.03456
2609	0.03456
2610	0.03456
2611	0.03456
2612	0.03456
2613	0.03456
2614	0.03456
2615	0.03456
2616	0.03456
2617	0.03456
2618	0.03456
2619	0.03456
2620	0.03456
2621	0.03456
2622	0.03456
2623	0.03456
2624	0.03456
2625	0.03456
2626	0.03456
2627	0.03456
2628	0.03456
2629	0.03456
2630	0.03456
2631	0.03456
2632	0.03456
2633	0.03456
2634	0.03456
2635	0.03456
2636	0.03456
2637	0.03456
2638	0.03456
2639	0.03456
2640	0.03456
2641	0.03456
2642	0.03456
2643	0.03456
2644	0.03456
2645	0.03456
2646	0.03456
2647	0.03456
2648	0.03456
2649	0.03456
2650	0.03456
2651	0.03456
2652	0.03456
2653	0.03456
2654	0.03456
2655	0.03456
2656	0.03456
2657	0.03456
2658	0.03456
2659	0.03456
2660	0.03456
2661	0.03456
2662	0.03456
2663	0.03456
2664	0.03456
2665	0.03456
2666	0.03456
2667	0.03456
2668	0.03456
2669	0.03456
2670	0.03456
2671	0.03456
2672	0.03456
2673	0.03456
2674	0.03456
2675	0.03456
2676	0.03456
2677	0.03456
2678	0.03456
2679	0.03456
2680	0.03456
2681	0.03456
2682	0.03456
2683	0.03456
2684	0.03456
2685	0.03456
2686	0.03456
2687	0.03456
2688	0.03456
2689	0.03456
2690	0.03456
2691	0.03456
2692	0.03456
2693	0.03456
2694	0.03456
2695	0.03456
2696	0.03501
2697	0.03553
2698	0.03582
2699	0.03551
2700	0.03507
2701	0.03509
2702	0.03524
2703	0.03496
2704	0.03449
2705	0.03439
2706	0.0348
2707	0.03514
2708	0.03492
2709	0.03459
2710	0.03458
2711	0.03488
2712	0.03511
2713	0.03478
2714	0.03438
2715	0.03442
2716	0.03483
2717	0.035
2718	0.03474
2719	0.03441
2720	0.03446
2721	0.03493
2722	0.03529
2723	0.03506
2724	0.03483
2725	0.03533
2726	0.03602
2727	0.03583
2728	0.035
2729	0.03432
2730	0.03434
2731	0.03468
2732	0.03465
2733	0.03417
2734	0.03383
2735	0.03407
2736	0.03447
2737	0.0345
2738	0.0342
2739	0.03406
2740	0.03414
2741	0.034
2742	0.03346
2743	0.03306
2744	0.0331
2745	0.03335
2746	0.03352
2747	0.03365
2748	0.03375
2749	0.03388
2750	0.03392
2751	0.03341
2752	0.03266
2753	0.03256
2754	0.03299
2755	0.03334
2756	0.03318
2757	0.0328
2758	0.03277
2759	0.03313
2760	0.03316
2761	0.03262
2762	0.03219
2763	0.0324
2764	0.03295
2765	0.03317
2766	0.03299
2767	0.03286
2768	0.03298
2769	0.03309
2770	0.03304
2771	0.03296
2772	0.0333
2773	0.03409
2774	0.03482
2775	0.03497
2776	0.03447
2777	0.03388
2778	0.03384
2779	0.03408
2780	0.03407
2781	0.03395
2782	0.03427
2783	0.03489
2784	0.03526
2785	0.03525
2786	0.03533
2787	0.03603
2788	0.03732
2789	0.03813
2790	0.03793
2791	0.03775
2792	0.03808
2793	0.03849
2794	0.0387
2795	0.03893
2796	0.03947
2797	0.04055
2798	0.04163
2799	0.04195
2800	0.04166
2801	0.04167
2802	0.04235
2803	0.04317
2804	0.04357
2805	0.04383
2806	0.0447
2807	0.04615
2808	0.04758
2809	0.04873
2810	0.0497
2811	0.05059
2812	0.05159
2813	0.05261
2814	0.05349
2815	0.0548
2816	0.05651
2817	0.05813
2818	0.05931
2819	0.06016
2820	0.06133
2821	0.06289
2822	0.0645
2823	0.06563
2824	0.06629
2825	0.067
2826	0.06814
2827	0.06921
2828	0.06978
2829	0.07023
2830	0.07126
2831	0.07288
2832	0.07441
2833	0.0754
2834	0.0765
2835	0.07821
2836	0.08034
2837	0.08251
2838	0.08485
2839	0.08745
2840	0.09056
2841	0.09391
2842	0.09763
2843	0.10198
2844	0.10768
2845	0.11499
2846	0.12375
2847	0.1334
2848	0.14358
2849	0.15356
2850	0.16251
2851	0.1695
2852	0.17421
2853	0.1772
2854	0.17931
2855	0.18077
2856	0.18126
2857	0.18063
2858	0.17956
2859	0.17905
2860	0.17882
2861	0.17791
2862	0.17667
2863	0.17656
2864	0.17799
2865	0.18014
2866	0.18217
2867	0.18412
2868	0.18673
2869	0.19064
2870	0.19504
2871	0.19901
2872	0.20258
2873	0.20615
2874	0.20961
2875	0.21235
2876	0.21403
2877	0.2153
2878	0.21705
2879	0.21928
2880	0.22115
2881	0.22227
2882	0.22334
2883	0.22512
2884	0.22728
2885	0.22889
2886	0.22981
2887	0.231
2888	0.23323
2889	0.23592
2890	0.2381
2891	0.23971
2892	0.24181
2893	0.24484
2894	0.24798
2895	0.25073
2896	0.2533
2897	0.25562
2898	0.2582
2899	0.26081
2900	0.26309
2901	0.26543
2902	0.26842
2903	0.2718
2904	0.27472
2905	0.27685
2906	0.27921
2907	0.28289
2908	0.28767
2909	0.29273
2910	0.2981
2911	0.30458
2912	0.31302
2913	0.32305
2914	0.3335
2915	0.34391
2916	0.3545
2917	0.36506
2918	0.37434
2919	0.38124
2920	0.38654
2921	0.39162
2922	0.39661
2923	0.40054
2924	0.40292
2925	0.4042
2926	0.40509
2927	0.40544
2928	0.40462
2929	0.40246
2930	0.39948
2931	0.39614
2932	0.39245
2933	0.38796
2934	0.38229
2935	0.37622
2936	0.37052
2937	0.36475
2938	0.35804
2939	0.35043
2940	0.34279
2941	0.33548
2942	0.32811
2943	0.32016
2944	0.31186
2945	0.30385
2946	0.2964
2947	0.2888
2948	0.28019
2949	0.27168
2950	0.26494
2951	0.26001
2952	0.25537
2953	0.25019
2954	0.24498
2955	0.24092
2956	0.23794
2957	0.23504
2958	0.23207
2959	0.22982
2960	0.22874
2961	0.22819
2962	0.22749
2963	0.22659
2964	0.22595
2965	0.22569
2966	0.22528
2967	0.22397
2968	0.22189
2969	0.21989
2970	0.21805
2971	0.21558
2972	0.21201
2973	0.20796
2974	0.20436
2975	0.20077
2976	0.19597
2977	0.19028
2978	0.18508
2979	0.18071
2980	0.17637
2981	0.17096
2982	0.16447
2983	0.15792
2984	0.15213
2985	0.14675
2986	0.1412
2987	0.13524
2988	0.12946
2989	0.12432
2990	0.11955
2991	0.11464
2992	0.1097
2993	0.10495
2994	0.1002
2995	0.0954
2996	0.09084
2997	0.0869
2998	0.08332
2999	0.07974
3000	0.07573
3001	0.07164
3002	0.06831
3003	0.06613
3004	0.06402
3005	0.06097
3006	0.05774
3007	0.05538
3008	0.05391
3009	0.05281
3010	0.05141
3011	0.04968
3012	0.04791
3013	0.0466
3014	0.0454
3015	0.04354
3016	0.04156
3017	0.04039
3018	0.03974
3019	0.03882
3020	0.03731
3021	0.03577
3022	0.03502
3023	0.03519
3024	0.03535
3025	0.03456
3026	0.03351
3027	0.03324
3028	0.03393
3029	0.03488
3030	0.03552
3031	0.03591
3032	0.03703
3033	0.03837
3034	0.03902
3035	0.03895
3036	0.03909
3037	0.03978
3038	0.04078
3039	0.04164
3040	0.04253
3041	0.04393
3042	0.04571
3043	0.047
3044	0.04738
3045	0.04771
3046	0.04865
3047	0.0497
3048	0.05015
3049	0.05052
3050	0.05157
3051	0.05309
3052	0.05421
3053	0.05484
3054	0.05578
3055	0.05718
3056	0.05852
3057	0.05951
3058	0.05985
3059	0.05991
3060	0.06064
3061	0.06213
3062	0.06375
3063	0.06495
3064	0.06569
3065	0.06697
3066	0.06921
3067	0.071
3068	0.07154
3069	0.07169
3070	0.07241
3071	0.07369
3072	0.07465
3073	0.07514
3074	0.07599
3075	0.07781
3076	0.08023
3077	0.08222
3078	0.08356
3079	0.08479
3080	0.08631
3081	0.08769
3082	0.08833
3083	0.089
3084	0.09053
3085	0.09247
3086	0.09384
3087	0.09474
3088	0.09578
3089	0.09767
3090	0.10033
3091	0.10236
3092	0.10319
3093	0.10392
3094	0.10558
3095	0.10772
3096	0.10951
3097	0.11116
3098	0.11331
3099	0.11604
3100	0.11869
3101	0.12046
3102	0.12143
3103	0.12264
3104	0.12487
3105	0.12757
3106	0.12987
3107	0.13204
3108	0.13497
3109	0.13825
3110	0.14079
3111	0.14245
3112	0.14419
3113	0.14711
3114	0.15116
3115	0.15469
3116	0.157
3117	0.15899
3118	0.16152
3119	0.16425
3120	0.16661
3121	0.16844
3122	0.16999
3123	0.17179
3124	0.17388
3125	0.17579
3126	0.17745
3127	0.17959
3128	0.18259
3129	0.1858
3130	0.18839
3131	0.19056
3132	0.19276
3133	0.195
3134	0.19701
3135	0.19891
3136	0.2011
3137	0.20422
3138	0.20785
3139	0.21089
3140	0.21284
3141	0.21433
3142	0.2163
3143	0.21896
3144	0.22148
3145	0.22365
3146	0.22603
3147	0.229
3148	0.23228
3149	0.2351
3150	0.23753
3151	0.24054
3152	0.2442
3153	0.24736
3154	0.24951
3155	0.25142
3156	0.25382
3157	0.25663
3158	0.25927
3159	0.26143
3160	0.26373
3161	0.26672
3162	0.26994
3163	0.27256
3164	0.27452
3165	0.2768
3166	0.28013
3167	0.28383
3168	0.28666
3169	0.2888
3170	0.29137
3171	0.29471
3172	0.29811
3173	0.30091
3174	0.30335
3175	0.30651
3176	0.31048
3177	0.31415
3178	0.31702
3179	0.31971
3180	0.32277
3181	0.32622
3182	0.32973
3183	0.33288
3184	0.33575
3185	0.33883
3186	0.34217
3187	0.34539
3188	0.34822
3189	0.35102
3190	0.35418
3191	0.35755
3192	0.36046
3193	0.36293
3194	0.36576
3195	0.36942
3196	0.37298
3197	0.37556
3198	0.37768
3199	0.3804
3200	0.38397
3201	0.38754
3202	0.39049
3203	0.39299
3204	0.39585
3205	0.39922
3206	0.40221
3207	0.40428
3208	0.40622
3209	0.4089
3210	0.41196
3211	0.41458
3212	0.41686
3213	0.4194
3214	0.42244
3215	0.42543
3216	0.42763
3217	0.42965
3218	0.43243
3219	0.43584
3220	0.43888
3221	0.44091
3222	0.44276
3223	0.4452
3224	0.44823
3225	0.45126
3226	0.45389
3227	0.45614
3228	0.45883
3229	0.462
3230	0.46512
3231	0.46819
3232	0.4715
3233	0.47501
3234	0.47822
3235	0.48035
3236	0.4815
3237	0.4832
3238	0.48651
3239	0.49021
3240	0.49286
3241	0.49499
3242	0.49791
3243	0.50182
3244	0.50566
3245	0.50854
3246	0.51114
3247	0.51427
3248	0.51749
3249	0.51968
3250	0.52116
3251	0.52298
3252	0.52588
3253	0.5292
3254	0.5322
3255	0.53486
3256	0.53723
3257	0.5395
3258	0.542
3259	0.5444
3260	0.54627
3261	0.54818
3262	0.55086
3263	0.5538
3264	0.55598
3265	0.55767
3266	0.55982
3267	0.56269
3268	0.56584
3269	0.56873
3270	0.57147
3271	0.57427
3272	0.57695
3273	0.57858
3274	0.57938
3275	0.58077
3276	0.58287
3277	0.58501
3278	0.58681
3279	0.58851
3280	0.5905
3281	0.59294
3282	0.59552
3283	0.59761
3284	0.59918
3285	0.60093
3286	0.60326
3287	0.60593
3288	0.60838
3289	0.61085
3290	0.61391
3291	0.61728
3292	0.61994
3293	0.62153
3294	0.62308
3295	0.62552
3296	0.62843
3297	0.63052
3298	0.6318
3299	0.63323
3300	0.63573
3301	0.63886
3302	0.64159
3303	0.64377
3304	0.64614
3305	0.64914
3306	0.65243
3307	0.65507
3308	0.657
3309	0.65861
3310	0.66034
3311	0.66246
3312	0.66464
3313	0.66654
3314	0.66864
3315	0.6713
3316	0.67388
3317	0.67607
3318	0.67833
3319	0.68112
3320	0.68433
3321	0.68729
3322	0.68973
3323	0.69232
3324	0.69578
3325	0.69979
3326	0.70307
3327	0.70501
3328	0.70696
3329	0.7101
3330	0.71358
3331	0.71644
3332	0.71903
3333	0.72224
3334	0.72603
3335	0.72971
3336	0.73284
3337	0.73588
3338	0.73944
3339	0.74322
3340	0.74631
3341	0.74879
3342	0.75173
3343	0.75517
3344	0.75834
3345	0.76101
3346	0.76358
3347	0.76645
3348	0.77012
3349	0.77442
3350	0.77854
3351	0.78198
3352	0.78493
3353	0.78775
3354	0.79069
3355	0.7937
3356	0.7968
3357	0.8002
3358	0.8041
3359	0.80829
3360	0.81219
3361	0.81538
3362	0.81858
3363	0.82253
3364	0.82681
3365	0.83074
3366	0.83437
3367	0.83826
3368	0.84221
3369	0.84568
3370	0.84858
3371	0.85121
3372	0.85373
3373	0.85643
3374	0.85905
3375	0.86147
3376	0.86427
3377	0.86749
3378	0.87046
3379	0.87281
3380	0.87486
3381	0.87675
3382	0.87851
3383	0.88025
3384	0.88155
3385	0.88264
3386	0.88445
3387	0.88669
3388	0.88852
3389	0.89013
3390	0.89214
3391	0.89435
3392	0.89572
3393	0.89598
3394	0.89611
3395	0.89682
3396	0.89781
3397	0.89867
3398	0.89957
3399	0.90069
3400	0.90178
3401	0.90287
3402	0.90367
3403	0.90358
3404	0.9032
3405	0.90359
3406	0.9048
3407	0.90593
3408	0.90691
3409	0.90794
3410	0.90883
3411	0.90973
3412	0.91073
3413	0.9113
3414	0.91166
3415	0.91222
3416	0.91284
3417	0.91316
3418	0.91331
3419	0.9137
3420	0.91448
3421	0.91534
3422	0.91567
3423	0.91564
3424	0.91625
3425	0.91755
3426	0.91844
3427	0.91867
3428	0.91894
3429	0.91978
3430	0.9209
3431	0.92128
3432	0.92038
3433	0.91956
3434	0.91998
3435	0.92053
3436	0.92
3437	0.91878
3438	0.91748
3439	0.91634
3440	0.91551
3441	0.91436
3442	0.91259
3443	0.91122
3444	0.91077
3445	0.91062
3446	0.90966
3447	0.90728
3448	0.90447
3449	0.90266
3450	0.90152
3451	0.90017
3452	0.89839
3453	0.89657
3454	0.89509
3455	0.89378
3456	0.89205
3457	0.88994
3458	0.88837
3459	0.88766
3460	0.88661
3461	0.8841
3462	0.88067
3463	0.87795
3464	0.87632
3465	0.87486
3466	0.87281
3467	0.87056
3468	0.86874
3469	0.86712
3470	0.86442
3471	0.86053
3472	0.85685
3473	0.85418
3474	0.8518
3475	0.84905
3476	0.84621
3477	0.84371
3478	0.84202
3479	0.84074
3480	0.8385
3481	0.83443
3482	0.82969
3483	0.82604
3484	0.8236
3485	0.82164
3486	0.81961
3487	0.81658
3488	0.81232
3489	0.80801
3490	0.80444
3491	0.80136
3492	0.79878
3493	0.79647
3494	0.79395
3495	0.7907
3496	0.78698
3497	0.78374
3498	0.78073
3499	0.77689
3500	0.77271
3501	0.76976
3502	0.76765
3503	0.76426
3504	0.75905
3505	0.75374
3506	0.74965
3507	0.74677
3508	0.74356
3509	0.73846
3510	0.73338
3511	0.73009
3512	0.72735
3513	0.72418
3514	0.72019
3515	0.71561
3516	0.71153
3517	0.708
3518	0.70407
3519	0.69946
3520	0.69585
3521	0.69367
3522	0.69116
3523	0.68727
3524	0.68302
3525	0.67934
3526	0.67587
3527	0.67188
3528	0.6671
3529	0.66218
3530	0.658
3531	0.65455
3532	0.65121
3533	0.6477
3534	0.64448
3535	0.64188
3536	0.63901
3537	0.63489
3538	0.63012
3539	0.62591
3540	0.62279
3541	0.62084
3542	0.61924
3543	0.61694
3544	0.61392
3545	0.61103
3546	0.6071
3547	0.60089
3548	0.59489
3549	0.59162
3550	0.59025
3551	0.58846
3552	0.58427
3553	0.57833
3554	0.57334
3555	0.57009
3556	0.56713
3557	0.56351
3558	0.5599
3559	0.55672
3560	0.55375
3561	0.55103
3562	0.54789
3563	0.54439
3564	0.54188
3565	0.53941
3566	0.53415
3567	0.52563
3568	0.51841
3569	0.51631
3570	0.51518
3571	0.51146
3572	0.50692
3573	0.50332
3574	0.49942
3575	0.49499
3576	0.49056
3577	0.48625
3578	0.48258
3579	0.47887
3580	0.47427
3581	0.47004
3582	0.4666
3583	0.46305
3584	0.46034
3585	0.45868
3586	0.45512
3587	0.44755
3588	0.43792
3589	0.43081
3590	0.42777
3591	0.42579
3592	0.42235
3593	0.41744
3594	0.41235
3595	0.40698
3596	0.40209
3597	0.39876
3598	0.39541
3599	0.39164
3600	0.38646
3601	0.38012
3602	0.37507
3603	0.37155
3604	0.36847
3605	0.36559
3606	0.36177
3607	0.35686
3608	0.3519
3609	0.34639
3610	0.34244
3611	0.3407
3612	0.33729
3613	0.33205
3614	0.32703
3615	0.32323
3616	0.3208
3617	0.31822
3618	0.31414
3619	0.30834
3620	0.30196
3621	0.29714
3622	0.29278
3623	0.28811
3624	0.28427
3625	0.2816
3626	0.28023
3627	0.27982
3628	0.27579
3629	0.26316
3630	0.25493
3631	0.2565
3632	0.25677
3633	0.25338
3634	0.24804
3635	0.24452
3636	0.24276
3637	0.2403
3638	0.23664
3639	0.23298
3640	0.23039
3641	0.228
3642	0.2247
3643	0.22137
3644	0.21997
3645	0.22042
3646	0.22026
3647	0.21825
3648	0.21662
3649	0.21431
3650	0.20741
3651	0.19897
3652	0.19549
3653	0.19472
3654	0.19408
3655	0.19175
3656	0.1857
3657	0.18045
3658	0.17961
3659	0.17848
3660	0.17663
3661	0.1744
3662	0.17131
3663	0.16764
3664	0.16452
3665	0.16268
3666	0.16207
3667	0.16189
3668	0.16128
3669	0.15905
3670	0.1525
3671	0.14633
3672	0.14699
3673	0.15024
3674	0.1507
3675	0.14216
3676	0.13075
3677	0.13223
3678	0.13441
3679	0.13208
3680	0.12854
3681	0.12658
3682	0.12507
3683	0.12362
3684	0.12231
3685	0.12181
3686	0.1229
3687	0.12363
3688	0.1225
3689	0.12169
3690	0.11914
3691	0.11162
3692	0.10565
3693	0.10437
3694	0.104
3695	0.10299
3696	0.10113
3697	0.099
3698	0.09765
3699	0.09735
3700	0.09705
3701	0.09419
3702	0.0902
3703	0.08966
3704	0.08993
3705	0.0885
3706	0.08748
3707	0.08875
3708	0.08968
3709	0.08881
3710	0.08933
3711	0.08807
3712	0.08207
3713	0.08066
3714	0.08278
3715	0.08234
3716	0.0816
3717	0.08163
3718	0.08052
3719	0.07886
3720	0.07892
3721	0.07858
3722	0.07622
3723	0.075
3724	0.07482
3725	0.07297
3726	0.06977
3727	0.06767
3728	0.06792
3729	0.06957
3730	0.07157
3731	0.07193
3732	0.07197
3733	0.07551
3734	0.07635
3735	0.07134
3736	0.06827
3737	0.06901
3738	0.06964
3739	0.07029
3740	0.07003
3741	0.07018
3742	0.07326
3743	0.0742
3744	0.06516
3745	0.05684
3746	0.06415
3747	0.07194
3748	0.07288
3749	0.06911
3750	0.06738
3751	0.06579
3752	0.0587
3753	0.05667
3754	0.06089
3755	0.06307
3756	0.06188
3757	0.06153
3758	0.06211
3759	0.05882
3760	0.05489
3761	0.05585
3762	0.05702
3763	0.0577
3764	0.05832
3765	0.05652
3766	0.05405
3767	0.05558
3768	0.05816
3769	0.05722
3770	0.05355
3771	0.05189
3772	0.0521
3773	0.05159
3774	0.05086
3775	0.05071
3776	0.05152
3777	0.05307
3778	0.05381
3779	0.05213
3780	0.05006
3781	0.04965
3782	0.05009
3783	0.05052
3784	0.05006
3785	0.04897
3786	0.04818
3787	0.04757
3788	0.04689
3789	0.04658
3790	0.04654
3791	0.04636
3792	0.04608
3793	0.04626
3794	0.04771
3795	0.04885
3796	0.04761
3797	0.04575
3798	0.04714
3799	0.05037
3800	0.05098
3801	0.04583
3802	0.04044
3803	0.0414
3804	0.0452
3805	0.04768
3806	0.04582
3807	0.04063
3808	0.03948
3809	0.04076
3810	0.04069
3811	0.0401
3812	0.04033
3813	0.04239
3814	0.04547
3815	0.0449
3816	0.03917
3817	0.03981
3818	0.04517
3819	0.04843
3820	0.04692
3821	0.0387
3822	0.03402
3823	0.03738
3824	0.04
3825	0.04063
3826	0.03918
3827	0.03707
3828	0.03701
3829	0.03874
3830	0.0394
3831	0.03729
3832	0.03619
3833	0.03813
3834	0.03895
3835	0.04031
3836	0.044
3837	0.04334
3838	0.03925
3839	0.03851
3840	0.03658
3841	0.0353
3842	0.0372
3843	0.03631
3844	0.03372
3845	0.03409
3846	0.03494
3847	0.03493
3848	0.03507
3849	0.03605
3850	0.0384
3851	0.04037
3852	0.04012
3853	0.03409
3854	0.02516
3855	0.02631
3856	0.03126
3857	0.03141
3858	0.03116
3859	0.03257
3860	0.03358
3861	0.03289
3862	0.03319
3863	0.03509
3864	0.03335
3865	0.02854
3866	0.02949
3867	0.03407
3868	0.03664
3869	0.0339
3870	0.02695
3871	0.02898
3872	0.03381
3873	0.03345
3874	0.0286
3875	0.02637
3876	0.02817
3877	0.02995
3878	0.03169
3879	0.03182
3880	0.02878
3881	0.02694
3882	0.0289
3883	0.0312
3884	0.03232
3885	0.03011
3886	0.02648
3887	0.0262
3888	0.02805
3889	0.03033
3890	0.03127
3891	0.02893
3892	0.02688
3893	0.02685
3894	0.02656
3895	0.02688
3896	0.02854
3897	0.03048
3898	0.03014
3899	0.0281
3900	0.02909
3901	0.03003
3902	0.02887
3903	0.02821
3904	0.02654
3905	0.0246
3906	0.0244
3907	0.02484
3908	0.02509
3909	0.02522
3910	0.02548
3911	0.02551
3912	0.02526
3913	0.02536
3914	0.02636
3915	0.02733
3916	0.02634
3917	0.02469
3918	0.02529
3919	0.02572
3920	0.02472
3921	0.02507
3922	0.02625
3923	0.0267
3924	0.02587
3925	0.02417
3926	0.02361
3927	0.02451
3928	0.0254
3929	0.02585
3930	0.02618
3931	0.02588
3932	0.02475
3933	0.02458
3934	0.0253
3935	0.02538
3936	0.02506
3937	0.02488
3938	0.02474
3939	0.02476
3940	0.02526
3941	0.02559
3942	0.02475
3943	0.02369
3944	0.0237
3945	0.02419
3946	0.0244
3947	0.02416
3948	0.02421
3949	0.024
3950	0.02337
3951	0.02358
3952	0.02375
3953	0.02346
3954	0.02357
3955	0.02351
3956	0.02289
3957	0.02269
3958	0.02285
3959	0.02296
3960	0.02316
3961	0.02351
3962	0.02371
3963	0.02367
3964	0.02342
3965	0.02331
3966	0.02332
3967	0.023
3968	0.02239
3969	0.02222
3970	0.02271
3971	0.02309
3972	0.02302
3973	0.02274
3974	0.02237
3975	0.02205
3976	0.02223
3977	0.02274
3978	0.02281
3979	0.0225
3980	0.02233
3981	0.02216
3982	0.02217
3983	0.02292
3984	0.02385
3985	0.02388
3986	0.02327
3987	0.02271
3988	0.02252
3989	0.02262
3990	0.0227
3991	0.02268
3992	0.02268
3993	0.02272
3994	0.02256
3995	0.02237
3996	0.02268
3997	0.02312
3998	0.02311
3999	0.02283
4000	0.02285