4000.18193	0.0164
3999.21756	0.01645
3998.2532	0.01642
3997.28884	0.01626
3996.32447	0.01601
3995.36011	0.01587
3994.39574	0.01599
3993.43138	0.01614
3992.46702	0.01601
3991.50265	0.01571
3990.53829	0.01561
3989.57392	0.01587
3988.60956	0.01613
3987.6452	0.01615
3986.68083	0.01609
3985.71647	0.01616
3984.7521	0.01627
3983.78774	0.01619
3982.82338	0.0159
3981.85901	0.01576
3980.89465	0.01587
3979.93028	0.01606
3978.96592	0.01619
3978.00156	0.01612
3977.03719	0.01577
3976.07283	0.01548
3975.10846	0.01551
3974.1441	0.0156
3973.17974	0.01556
3972.21537	0.01555
3971.25101	0.01565
3970.28664	0.01563
3969.32228	0.01562
3968.35792	0.01585
3967.39355	0.01609
3966.42919	0.01612
3965.46482	0.01604
3964.50046	0.01593
3963.5361	0.01565
3962.57173	0.01526
3961.60737	0.01532
3960.643	0.01569
3959.67864	0.01575
3958.71428	0.01553
3957.74991	0.01535
3956.78555	0.01544
3955.82118	0.01571
3954.85682	0.01579
3953.89246	0.0156
3952.92809	0.0155
3951.96373	0.01535
3950.99936	0.01473
3950.035	0.01426
3949.07064	0.0143
3948.10627	0.01448
3947.14191	0.01505
3946.17754	0.01568
3945.21318	0.01552
3944.24882	0.01453
3943.28445	0.01375
3942.32009	0.01452
3941.35572	0.01578
3940.39136	0.01609
3939.427	0.01584
3938.46263	0.01579
3937.49827	0.01599
3936.5339	0.01607
3935.56954	0.01587
3934.60518	0.0153
3933.64081	0.01438
3932.67645	0.01367
3931.71208	0.01389
3930.74772	0.01434
3929.78336	0.01466
3928.81899	0.01526
3927.85463	0.0157
3926.89026	0.01524
3925.9259	0.01395
3924.96154	0.01308
3923.99717	0.0139
3923.03281	0.01522
3922.06844	0.01556
3921.10408	0.01485
3920.13972	0.0144
3919.17535	0.01462
3918.21099	0.01408
3917.24662	0.01343
3916.28226	0.01452
3915.3179	0.01589
3914.35353	0.01624
3913.38917	0.01618
3912.4248	0.01624
3911.46044	0.01634
3910.49608	0.01634
3909.53171	0.01623
3908.56735	0.01595
3907.60298	0.01505
3906.63862	0.01332
3905.67426	0.01139
3904.70989	0.01069
3903.74553	0.01125
3902.78116	0.01158
3901.8168	0.01225
3900.85244	0.01297
3899.88807	0.01255
3898.92371	0.01306
3897.95934	0.0151
3896.99498	0.01626
3896.03062	0.01618
3895.06625	0.01543
3894.10189	0.01457
3893.13752	0.01342
3892.17316	0.01213
3891.2088	0.01319
3890.24443	0.01572
3889.28007	0.0166
3888.3157	0.01602
3887.35134	0.01445
3886.38698	0.01269
3885.42261	0.01337
3884.45825	0.01491
3883.49388	0.01509
3882.52952	0.01424
3881.56516	0.01243
3880.60079	0.01195
3879.63643	0.01498
3878.67206	0.01698
3877.7077	0.01708
3876.74333	0.01636
3875.77897	0.01472
3874.81461	0.01264
3873.85024	0.0133
3872.88588	0.01498
3871.92151	0.01395
3870.95715	0.01059
3869.99279	0.00974
3869.02842	0.01418
3868.06406	0.01661
3867.09969	0.01595
3866.13533	0.01334
3865.17097	0.01151
3864.2066	0.01318
3863.24224	0.01452
3862.27787	0.0147
3861.31351	0.01587
3860.34915	0.01719
3859.38478	0.01702
3858.42042	0.01556
3857.45605	0.0141
3856.49169	0.01336
3855.52733	0.01148
3854.56296	0.00719
3853.5986	0.00578
3852.63423	0.01039
3851.66987	0.01433
3850.70551	0.01605
3849.74114	0.01668
3848.77678	0.0174
3847.81241	0.01804
3846.84805	0.01803
3845.88369	0.01719
3844.91932	0.01559
3843.95496	0.0148
3842.99059	0.01555
3842.02623	0.01507
3841.06187	0.01296
3840.0975	0.01188
3839.13314	0.01175
3838.16877	0.01245
3837.20441	0.01502
3836.24005	0.01597
3835.27568	0.01578
3834.31132	0.01678
3833.34695	0.01707
3832.38259	0.01595
3831.41823	0.01642
3830.45386	0.01831
3829.4895	0.01865
3828.52513	0.01745
3827.56077	0.01616
3826.59641	0.0165
3825.63204	0.01775
3824.66768	0.01794
3823.70331	0.01669
3822.73895	0.01394
3821.77459	0.0105
3820.81022	0.01233
3819.84586	0.01671
3818.88149	0.01797
3817.91713	0.01685
3816.95277	0.01464
3815.9884	0.01536
3815.02404	0.01892
3814.05967	0.02041
3813.09531	0.0205
3812.13095	0.02042
3811.16658	0.02035
3810.20222	0.0201
3809.23785	0.01919
3808.27349	0.01709
3807.30913	0.01563
3806.34476	0.01811
3805.3804	0.02009
3804.41603	0.01924
3803.45167	0.01638
3802.48731	0.0129
3801.52294	0.01324
3800.55858	0.01784
3799.59421	0.01994
3798.62985	0.01945
3797.66549	0.01799
3796.70112	0.01814
3795.73676	0.02048
3794.77239	0.02202
3793.80803	0.02226
3792.84367	0.02221
3791.8793	0.0223
3790.91494	0.02237
3789.95057	0.02238
3788.98621	0.02236
3788.02185	0.02225
3787.05748	0.02181
3786.09312	0.02096
3785.12875	0.02061
3784.16439	0.02167
3783.20003	0.02275
3782.23566	0.02277
3781.2713	0.02185
3780.30693	0.02059
3779.34257	0.02091
3778.37821	0.02272
3777.41384	0.02375
3776.44948	0.024
3775.48511	0.02403
3774.52075	0.02402
3773.55639	0.02395
3772.59202	0.02344
3771.62766	0.02203
3770.66329	0.02034
3769.69893	0.0212
3768.73457	0.02355
3767.7702	0.02381
3766.80584	0.02241
3765.84147	0.02202
3764.87711	0.02369
3763.91275	0.02484
3762.94838	0.02491
3761.98402	0.02435
3761.01965	0.02267
3760.05529	0.02091
3759.09093	0.02201
3758.12656	0.02347
3757.1622	0.0234
3756.19783	0.02374
3755.23347	0.02419
3754.26911	0.02274
3753.30474	0.01919
3752.34038	0.01617
3751.37601	0.01707
3750.41165	0.01806
3749.44729	0.01977
3748.48292	0.02278
3747.51856	0.02359
3746.55419	0.02197
3745.58983	0.01847
3744.62547	0.01886
3743.6611	0.02526
3742.69674	0.02672
3741.73237	0.0257
3740.76801	0.02545
3739.80365	0.02587
3738.83928	0.02518
3737.87492	0.02356
3736.91055	0.02157
3735.94619	0.0197
3734.98182	0.02148
3734.01746	0.0246
3733.0531	0.02529
3732.08873	0.02616
3731.12437	0.02864
3730.16	0.03005
3729.19564	0.02988
3728.23128	0.02871
3727.26691	0.02733
3726.30255	0.02724
3725.33818	0.02843
3724.37382	0.02906
3723.40946	0.02837
3722.44509	0.02849
3721.48073	0.03065
3720.51636	0.03158
3719.552	0.03116
3718.58764	0.03183
3717.62327	0.0332
3716.65891	0.03345
3715.69454	0.03287
3714.73018	0.03215
3713.76582	0.03057
3712.80145	0.02774
3711.83709	0.0274
3710.87272	0.02975
3709.90836	0.03145
3708.944	0.03384
3707.97963	0.03586
3707.01527	0.0364
3706.0509	0.03646
3705.08654	0.03689
3704.12218	0.03695
3703.15781	0.03586
3702.19345	0.03516
3701.22908	0.03712
3700.26472	0.03915
3699.30036	0.03978
3698.33599	0.03991
3697.37163	0.04002
3696.40726	0.04039
3695.4429	0.04096
3694.47854	0.04119
3693.51417	0.04081
3692.54981	0.03939
3691.58544	0.03768
3690.62108	0.038
3689.65672	0.03899
3688.69235	0.04039
3687.72799	0.04395
3686.76362	0.04623
3685.79926	0.04673
3684.8349	0.04699
3683.87053	0.04783
3682.90617	0.04874
3681.9418	0.04897
3680.97744	0.04835
3680.01308	0.04781
3679.04871	0.04833
3678.08435	0.04825
3677.11998	0.04568
3676.15562	0.04184
3675.19126	0.04646
3674.22689	0.05385
3673.26253	0.05576
3672.29816	0.05452
3671.3338	0.05195
3670.36944	0.05184
3669.40507	0.05575
3668.44071	0.06001
3667.47634	0.06275
3666.51198	0.06405
3665.54762	0.06491
3664.58325	0.0659
3663.61889	0.06698
3662.65452	0.06812
3661.69016	0.06921
3660.7258	0.07024
3659.76143	0.07134
3658.79707	0.07202
3657.8327	0.0715
3656.86834	0.07097
3655.90398	0.07383
3654.93961	0.07719
3653.97525	0.0783
3653.01088	0.0777
3652.04652	0.07569
3651.08216	0.07336
3650.11779	0.07427
3649.15343	0.0773
3648.18906	0.07917
3647.2247	0.08264
3646.26034	0.08767
3645.29597	0.09082
3644.33161	0.09207
3643.36724	0.09267
3642.40288	0.09403
3641.43852	0.09628
3640.47415	0.0982
3639.50979	0.09941
3638.54542	0.10066
3637.58106	0.10272
3636.6167	0.10479
3635.65233	0.10579
3634.68797	0.10624
3633.7236	0.10806
3632.75924	0.11059
3631.79488	0.11122
3630.83051	0.10953
3629.86615	0.10703
3628.90178	0.11093
3627.93742	0.11834
3626.97306	0.12182
3626.00869	0.12413
3625.04433	0.12652
3624.07996	0.12842
3623.1156	0.12984
3622.15124	0.1308
3621.18687	0.13107
3620.22251	0.13167
3619.25814	0.13393
3618.29378	0.13755
3617.32942	0.14145
3616.36505	0.14358
3615.40069	0.14419
3614.43632	0.14519
3613.47196	0.14746
3612.5076	0.15154
3611.54323	0.15542
3610.57887	0.15686
3609.6145	0.15778
3608.65014	0.16037
3607.68578	0.16361
3606.72141	0.16766
3605.75705	0.17156
3604.79268	0.17406
3603.82832	0.1759
3602.86396	0.1777
3601.89959	0.1795
3600.93523	0.18178
3599.97086	0.18466
3599.0065	0.18753
3598.04214	0.19035
3597.07777	0.19255
3596.11341	0.1944
3595.14904	0.19734
3594.18468	0.20069
3593.22031	0.20418
3592.25595	0.20799
3591.29159	0.21074
3590.32722	0.21195
3589.36286	0.21236
3588.39849	0.21354
3587.43413	0.21715
3586.46977	0.22316
3585.5054	0.22814
3584.54104	0.23093
3583.57667	0.23346
3582.61231	0.23659
3581.64795	0.23938
3580.68358	0.24175
3579.71922	0.24469
3578.75485	0.24789
3577.79049	0.25072
3576.82613	0.2537
3575.86176	0.25676
3574.8974	0.25977
3573.93303	0.26309
3572.96867	0.26638
3572.00431	0.26914
3571.03994	0.27152
3570.07558	0.2732
3569.11121	0.27373
3568.14685	0.27437
3567.18249	0.27712
3566.21812	0.28269
3565.25376	0.28847
3564.28939	0.29239
3563.32503	0.29563
3562.36067	0.29898
3561.3963	0.3019
3560.43194	0.30486
3559.46757	0.30843
3558.50321	0.31182
3557.53885	0.31487
3556.57448	0.31803
3555.61012	0.3209
3554.64575	0.32327
3553.68139	0.32549
3552.71703	0.32855
3551.75266	0.33285
3550.7883	0.33693
3549.82393	0.33987
3548.85957	0.34188
3547.89521	0.34383
3546.93084	0.34656
3545.96648	0.34988
3545.00211	0.35362
3544.03775	0.35778
3543.07339	0.36177
3542.10902	0.36523
3541.14466	0.36836
3540.18029	0.37144
3539.21593	0.37459
3538.25157	0.37736
3537.2872	0.37989
3536.32284	0.38328
3535.35847	0.38737
3534.39411	0.39096
3533.42975	0.39398
3532.46538	0.39684
3531.50102	0.39966
3530.53665	0.40248
3529.57229	0.4053
3528.60793	0.40837
3527.64356	0.41197
3526.6792	0.4158
3525.71483	0.41921
3524.75047	0.42189
3523.78611	0.42478
3522.82174	0.42897
3521.85738	0.43357
3520.89301	0.43723
3519.92865	0.44032
3518.96429	0.44371
3517.99992	0.44739
3517.03556	0.45101
3516.07119	0.45448
3515.10683	0.45784
3514.14247	0.46119
3513.1781	0.46463
3512.21374	0.46805
3511.24937	0.47114
3510.28501	0.47425
3509.32065	0.47849
3508.35628	0.48337
3507.39192	0.48739
3506.42755	0.49065
3505.46319	0.4937
3504.49883	0.49668
3503.53446	0.50016
3502.5701	0.5045
3501.60573	0.50887
3500.64137	0.51268
3499.67701	0.51598
3498.71264	0.51875
3497.74828	0.52112
3496.78391	0.52362
3495.81955	0.52637
3494.85519	0.52894
3493.89082	0.53131
3492.92646	0.53372
3491.96209	0.53627
3490.99773	0.53895
3490.03337	0.54144
3489.069	0.54368
3488.10464	0.54624
3487.14027	0.5492
3486.17591	0.55203
3485.21155	0.5547
3484.24718	0.55717
3483.28282	0.55947
3482.31845	0.56212
3481.35409	0.56511
3480.38973	0.56803
3479.42536	0.57094
3478.461	0.5739
3477.49663	0.57674
3476.53227	0.57927
3475.56791	0.58178
3474.60354	0.58467
3473.63918	0.58756
3472.67481	0.59011
3471.71045	0.59251
3470.74609	0.59495
3469.78172	0.59751
3468.81736	0.60007
3467.85299	0.60244
3466.88863	0.60499
3465.92427	0.60786
3464.9599	0.61056
3463.99554	0.61288
3463.03117	0.61521
3462.06681	0.61782
3461.10245	0.62048
3460.13808	0.62303
3459.17372	0.62556
3458.20935	0.62808
3457.24499	0.63057
3456.28062	0.63295
3455.31626	0.63527
3454.3519	0.63761
3453.38753	0.64007
3452.42317	0.64247
3451.4588	0.64471
3450.49444	0.64688
3449.53008	0.64871
3448.56571	0.64996
3447.60135	0.65152
3446.63698	0.65441
3445.67262	0.65754
3444.70826	0.65986
3443.74389	0.66153
3442.77953	0.66333
3441.81516	0.66575
3440.8508	0.66813
3439.88644	0.67002
3438.92207	0.67165
3437.95771	0.67331
3436.99334	0.67513
3436.02898	0.67701
3435.06462	0.67895
3434.10025	0.68093
3433.13589	0.68284
3432.17152	0.68459
3431.20716	0.68627
3430.2428	0.6881
3429.27843	0.68988
3428.31407	0.69148
3427.3497	0.6931
3426.38534	0.69476
3425.42098	0.69625
3424.45661	0.69744
3423.49225	0.69845
3422.52788	0.69942
3421.56352	0.70033
3420.59916	0.70139
3419.63479	0.70286
3418.67043	0.70442
3417.70606	0.70565
3416.7417	0.70651
3415.77734	0.7071
3414.81297	0.70754
3413.84861	0.70791
3412.88424	0.70841
3411.91988	0.70916
3410.95552	0.70997
3409.99115	0.71046
3409.02679	0.71066
3408.06242	0.71094
3407.09806	0.71132
3406.1337	0.71151
3405.16933	0.71144
3404.20497	0.71135
3403.2406	0.71123
3402.27624	0.71107
3401.31188	0.71109
3400.34751	0.71134
3399.38315	0.71166
3398.41878	0.71191
3397.45442	0.71211
3396.49006	0.71228
3395.52569	0.71231
3394.56133	0.71206
3393.59696	0.71168
3392.6326	0.71172
3391.66824	0.71225
3390.70387	0.71278
3389.73951	0.71308
3388.77514	0.71317
3387.81078	0.71318
3386.84642	0.71318
3385.88205	0.71313
3384.91769	0.71314
3383.95332	0.71328
3382.98896	0.71325
3382.0246	0.71287
3381.06023	0.71245
3380.09587	0.71229
3379.1315	0.71222
3378.16714	0.71191
3377.20278	0.71141
3376.23841	0.71091
3375.27405	0.71041
3374.30968	0.70995
3373.34532	0.7095
3372.38096	0.70889
3371.41659	0.70803
3370.45223	0.70711
3369.48786	0.70619
3368.5235	0.70527
3367.55914	0.70443
3366.59477	0.70371
3365.63041	0.70311
3364.66604	0.7026
3363.70168	0.702
3362.73732	0.70106
3361.77295	0.69992
3360.80859	0.69872
3359.84422	0.69758
3358.87986	0.6965
3357.9155	0.69538
3356.95113	0.6941
3355.98677	0.69271
3355.0224	0.69131
3354.05804	0.68984
3353.09368	0.68822
3352.12931	0.68637
3351.16495	0.68449
3350.20058	0.6829
3349.23622	0.68167
3348.27186	0.68033
3347.30749	0.6787
3346.34313	0.67704
3345.37876	0.67541
3344.4144	0.67365
3343.45004	0.67179
3342.48567	0.66998
3341.52131	0.66824
3340.55694	0.66643
3339.59258	0.66456
3338.62822	0.66269
3337.66385	0.66088
3336.69949	0.65923
3335.73512	0.65771
3334.77076	0.6561
3333.8064	0.6544
3332.84203	0.65264
3331.87767	0.65076
3330.9133	0.64883
3329.94894	0.64692
3328.98458	0.64502
3328.02021	0.64316
3327.05585	0.64131
3326.09148	0.63951
3325.12712	0.6378
3324.16276	0.63617
3323.19839	0.6346
3322.23403	0.63313
3321.26966	0.63162
3320.3053	0.63
3319.34094	0.62838
3318.37657	0.62683
3317.41221	0.62536
3316.44784	0.62397
3315.48348	0.62253
3314.51911	0.62097
3313.55475	0.61941
3312.59039	0.61792
3311.62602	0.61634
3310.66166	0.61466
3309.69729	0.61297
3308.73293	0.61139
3307.76857	0.60974
3306.8042	0.60792
3305.83984	0.60592
3304.87547	0.60377
3303.91111	0.60163
3302.94675	0.59964
3301.98238	0.59765
3301.01802	0.59539
3300.05365	0.59307
3299.08929	0.59087
3298.12493	0.58862
3297.16056	0.58642
3296.1962	0.58435
3295.23183	0.58228
3294.26747	0.58015
3293.30311	0.57812
3292.33874	0.57617
3291.37438	0.57429
3290.41001	0.57238
3289.44565	0.57039
3288.48129	0.56837
3287.51692	0.56639
3286.55256	0.56439
3285.58819	0.56241
3284.62383	0.56051
3283.65947	0.55867
3282.6951	0.5568
3281.73074	0.55484
3280.76637	0.5528
3279.80201	0.55077
3278.83765	0.54874
3277.87328	0.54659
3276.90892	0.54432
3275.94455	0.54212
3274.98019	0.53995
3274.01583	0.53775
3273.05146	0.53563
3272.0871	0.53351
3271.12273	0.53128
3270.15837	0.529
3269.19401	0.52661
3268.22964	0.52409
3267.26528	0.52151
3266.30091	0.51898
3265.33655	0.51653
3264.37219	0.51405
3263.40782	0.51147
3262.44346	0.50884
3261.47909	0.50618
3260.51473	0.50344
3259.55037	0.50073
3258.586	0.49806
3257.62164	0.49534
3256.65727	0.49259
3255.69291	0.48978
3254.72855	0.48687
3253.76418	0.48403
3252.79982	0.4813
3251.83545	0.47858
3250.87109	0.47578
3249.90673	0.47291
3248.94236	0.47001
3247.978	0.46715
3247.01363	0.46438
3246.04927	0.46153
3245.08491	0.45859
3244.12054	0.45578
3243.15618	0.45305
3242.19181	0.45022
3241.22745	0.44729
3240.26309	0.44444
3239.29872	0.4417
3238.33436	0.43885
3237.36999	0.43593
3236.40563	0.43324
3235.44127	0.43065
3234.4769	0.42788
3233.51254	0.42504
3232.54817	0.4223
3231.58381	0.41963
3230.61945	0.41694
3229.65508	0.4143
3228.69072	0.41173
3227.72635	0.40921
3226.76199	0.40681
3225.79763	0.40445
3224.83326	0.40206
3223.8689	0.39974
3222.90453	0.39744
3221.94017	0.39507
3220.97581	0.39266
3220.01144	0.3904
3219.04708	0.38828
3218.08271	0.38609
3217.11835	0.38365
3216.15399	0.38106
3215.18962	0.37834
3214.22526	0.37555
3213.26089	0.37282
3212.29653	0.37001
3211.33217	0.36698
3210.3678	0.36391
3209.40344	0.36101
3208.43907	0.35826
3207.47471	0.35551
3206.51035	0.35274
3205.54598	0.34999
3204.58162	0.34728
3203.61725	0.34462
3202.65289	0.342
3201.68853	0.33931
3200.72416	0.33662
3199.7598	0.33395
3198.79543	0.33131
3197.83107	0.32871
3196.86671	0.3262
3195.90234	0.32373
3194.93798	0.32123
3193.97361	0.31864
3193.00925	0.31594
3192.04489	0.31322
3191.08052	0.31049
3190.11616	0.30774
3189.15179	0.30495
3188.18743	0.30218
3187.22307	0.29943
3186.2587	0.29662
3185.29434	0.29386
3184.32997	0.29127
3183.36561	0.28872
3182.40125	0.28606
3181.43688	0.28339
3180.47252	0.28079
3179.50815	0.2782
3178.54379	0.27556
3177.57943	0.27309
3176.61506	0.27073
3175.6507	0.26831
3174.68633	0.2658
3173.72197	0.26331
3172.7576	0.26084
3171.79324	0.25841
3170.82888	0.256
3169.86451	0.25365
3168.90015	0.25134
3167.93578	0.24902
3166.97142	0.24669
3166.00706	0.24446
3165.04269	0.24227
3164.07833	0.24005
3163.11396	0.23786
3162.1496	0.23572
3161.18524	0.23359
3160.22087	0.23146
3159.25651	0.22938
3158.29214	0.22734
3157.32778	0.22529
3156.36342	0.22324
3155.39905	0.22122
3154.43469	0.2192
3153.47032	0.21719
3152.50596	0.21517
3151.5416	0.21313
3150.57723	0.21114
3149.61287	0.20917
3148.6485	0.20719
3147.68414	0.2052
3146.71978	0.20321
3145.75541	0.20124
3144.79105	0.19933
3143.82668	0.1974
3142.86232	0.19546
3141.89796	0.19364
3140.93359	0.19196
3139.96923	0.19023
3139.00486	0.18837
3138.0405	0.18648
3137.07614	0.18461
3136.11177	0.18276
3135.14741	0.18086
3134.18304	0.1789
3133.21868	0.17708
3132.25432	0.1755
3131.28995	0.17394
3130.32559	0.17231
3129.36122	0.17059
3128.39686	0.16882
3127.4325	0.16707
3126.46813	0.16546
3125.50377	0.16393
3124.5394	0.16231
3123.57504	0.16063
3122.61068	0.15916
3121.64631	0.15794
3120.68195	0.15658
3119.71758	0.15493
3118.75322	0.15323
3117.78886	0.15167
3116.82449	0.15006
3115.86013	0.14842
3114.89576	0.14683
3113.9314	0.14517
3112.96704	0.1435
3112.00267	0.14189
3111.03831	0.14037
3110.07394	0.13893
3109.10958	0.13753
3108.14522	0.13609
3107.18085	0.13461
3106.21649	0.13314
3105.25212	0.13167
3104.28776	0.13023
3103.3234	0.12885
3102.35903	0.12755
3101.39467	0.12635
3100.4303	0.12519
3099.46594	0.12403
3098.50158	0.12281
3097.53721	0.12147
3096.57285	0.12009
3095.60848	0.11889
3094.64412	0.11787
3093.67976	0.11686
3092.71539	0.1159
3091.75103	0.11494
3090.78666	0.1139
3089.8223	0.11275
3088.85794	0.11163
3087.89357	0.11057
3086.92921	0.10955
3085.96484	0.10856
3085.00048	0.10762
3084.03612	0.10666
3083.07175	0.10564
3082.10739	0.10464
3081.14302	0.10371
3080.17866	0.10281
3079.2143	0.10198
3078.24993	0.10119
3077.28557	0.10033
3076.3212	0.09939
3075.35684	0.09846
3074.39248	0.0976
3073.42811	0.0968
3072.46375	0.09607
3071.49938	0.09532
3070.53502	0.09456
3069.57066	0.09388
3068.60629	0.09324
3067.64193	0.09253
3066.67756	0.09176
3065.7132	0.09092
3064.74884	0.09014
3063.78447	0.08959
3062.82011	0.08906
3061.85574	0.08837
3060.89138	0.08766
3059.92702	0.08707
3058.96265	0.08653
3057.99829	0.08595
3057.03392	0.08527
3056.06956	0.08479
3055.1052	0.08446
3054.14083	0.08396
3053.17647	0.08333
3052.2121	0.08279
3051.24774	0.08231
3050.28338	0.0817
3049.31901	0.08099
3048.35465	0.08044
3047.39028	0.08003
3046.42592	0.07959
3045.46156	0.07913
3044.49719	0.07865
3043.53283	0.07816
3042.56846	0.07764
3041.6041	0.07708
3040.63974	0.07647
3039.67537	0.07583
3038.71101	0.07517
3037.74664	0.07456
3036.78228	0.07407
3035.81792	0.07364
3034.85355	0.07319
3033.88919	0.0727
3032.92482	0.07209
3031.96046	0.0715
3030.99609	0.07116
3030.03173	0.07099
3029.06737	0.07062
3028.103	0.07014
3027.13864	0.0698
3026.17427	0.06966
3025.20991	0.0696
3024.24555	0.06946
3023.28118	0.06922
3022.31682	0.06907
3021.35245	0.06909
3020.38809	0.06917
3019.42373	0.06923
3018.45936	0.06929
3017.495	0.06939
3016.53063	0.06953
3015.56627	0.06982
3014.60191	0.07016
3013.63754	0.07042
3012.67318	0.07078
3011.70881	0.07138
3010.74445	0.07198
3009.78009	0.07253
3008.81572	0.07313
3007.85136	0.07382
3006.88699	0.07462
3005.92263	0.07554
3004.95827	0.07662
3003.9939	0.0779
3003.02954	0.07926
3002.06517	0.08066
3001.10081	0.08211
3000.13645	0.08365
2999.17208	0.08537
2998.20772	0.08728
2997.24335	0.08922
2996.27899	0.09121
2995.31463	0.09338
2994.35026	0.0959
2993.3859	0.0987
2992.42153	0.10161
2991.45717	0.10458
2990.49281	0.10762
2989.52844	0.1108
2988.56408	0.11421
2987.59971	0.11789
2986.63535	0.1217
2985.67099	0.12544
2984.70662	0.12914
2983.74226	0.13294
2982.77789	0.13684
2981.81353	0.14072
2980.84917	0.14451
2979.8848	0.14819
2978.92044	0.15171
2977.95607	0.15511
2976.99171	0.15841
2976.02735	0.16159
2975.06298	0.1645
2974.09862	0.1671
2973.13425	0.16941
2972.16989	0.17137
2971.20553	0.17284
2970.24116	0.17383
2969.2768	0.17439
2968.31243	0.17451
2967.34807	0.17421
2966.38371	0.17357
2965.41934	0.17263
2964.45498	0.17152
2963.49061	0.17033
2962.52625	0.16914
2961.56189	0.16806
2960.59752	0.16727
2959.63316	0.16693
2958.66879	0.1671
2957.70443	0.1678
2956.74007	0.16902
2955.7757	0.17073
2954.81134	0.173
2953.84697	0.17587
2952.88261	0.17913
2951.91825	0.1826
2950.95388	0.1863
2949.98952	0.1904
2949.02515	0.19491
2948.06079	0.1997
2947.09643	0.20452
2946.13206	0.20932
2945.1677	0.21421
2944.20333	0.21915
2943.23897	0.22396
2942.27461	0.22854
2941.31024	0.2329
2940.34588	0.23708
2939.38151	0.24097
2938.41715	0.24446
2937.45279	0.24746
2936.48842	0.24992
2935.52406	0.25194
2934.55969	0.25358
2933.59533	0.25481
2932.63097	0.25565
2931.6666	0.25612
2930.70224	0.25621
2929.73787	0.25587
2928.77351	0.25507
2927.80915	0.25386
2926.84478	0.25239
2925.88042	0.25073
2924.91605	0.2488
2923.95169	0.24655
2922.98733	0.24406
2922.02296	0.24143
2921.0586	0.23876
2920.09423	0.23603
2919.12987	0.23323
2918.16551	0.23034
2917.20114	0.22742
2916.23678	0.2245
2915.27241	0.22163
2914.30805	0.21886
2913.34369	0.21614
2912.37932	0.21348
2911.41496	0.21103
2910.45059	0.20885
2909.48623	0.2068
2908.52187	0.20485
2907.5575	0.20298
2906.59314	0.2013
2905.62877	0.19988
2904.66441	0.19864
2903.70005	0.19738
2902.73568	0.19607
2901.77132	0.19489
2900.80695	0.19382
2899.84259	0.19273
2898.87823	0.1916
2897.91386	0.19048
2896.9495	0.18937
2895.98513	0.18815
2895.02077	0.18673
2894.05641	0.1852
2893.09204	0.18376
2892.12768	0.18249
2891.16331	0.18134
2890.19895	0.18027
2889.23458	0.1792
2888.27022	0.17812
2887.30586	0.17706
2886.34149	0.17607
2885.37713	0.17507
2884.41276	0.17402
2883.4484	0.1729
2882.48404	0.17173
2881.51967	0.17046
2880.55531	0.16902
2879.59094	0.16731
2878.62658	0.16535
2877.66222	0.16326
2876.69785	0.16107
2875.73349	0.15873
2874.76912	0.15623
2873.80476	0.15354
2872.8404	0.15066
2871.87603	0.14767
2870.91167	0.14458
2869.9473	0.14141
2868.98294	0.13822
2868.01858	0.1351
2867.05421	0.13213
2866.08985	0.12921
2865.12548	0.12629
2864.16112	0.12336
2863.19676	0.12052
2862.23239	0.11789
2861.26803	0.11548
2860.30366	0.11311
2859.3393	0.11066
2858.37494	0.10819
2857.41057	0.10587
2856.44621	0.10363
2855.48184	0.10139
2854.51748	0.09917
2853.55312	0.09703
2852.58875	0.09498
2851.62439	0.09296
2850.66002	0.09098
2849.69566	0.08906
2848.7313	0.08721
2847.76693	0.08537
2846.80257	0.08348
2845.8382	0.08164
2844.87384	0.07997
2843.90948	0.07853
2842.94511	0.07725
2841.98075	0.07606
2841.01638	0.07494
2840.05202	0.07395
2839.08766	0.07303
2838.12329	0.07212
2837.15893	0.07114
2836.19456	0.07018
2835.2302	0.06933
2834.26584	0.06854
2833.30147	0.06782
2832.33711	0.06716
2831.37274	0.06647
2830.40838	0.06576
2829.44402	0.06517
2828.47965	0.06471
2827.51529	0.06425
2826.55092	0.06372
2825.58656	0.0632
2824.6222	0.06274
2823.65783	0.06229
2822.69347	0.06177
2821.7291	0.06117
2820.76474	0.06055
2819.80038	0.05996
2818.83601	0.05939
2817.87165	0.0588
2816.90728	0.05819
2815.94292	0.05756
2814.97856	0.05694
2814.01419	0.05637
2813.04983	0.05586
2812.08546	0.05539
2811.1211	0.05496
2810.15674	0.05448
2809.19237	0.05383
2808.22801	0.05309
2807.26364	0.05235
2806.29928	0.05164
2805.33492	0.051
2804.37055	0.05044
2803.40619	0.04996
2802.44182	0.04946
2801.47746	0.04897
2800.5131	0.04859
2799.54873	0.04834
2798.58437	0.04807
2797.62	0.04765
2796.65564	0.04719
2795.69128	0.0468
2794.72691	0.0464
2793.76255	0.04602
2792.79818	0.04573
2791.83382	0.04543
2790.86946	0.04514
2789.90509	0.04492
2788.94073	0.04467
2787.97636	0.04427
2787.012	0.04379
2786.04764	0.04344
2785.08327	0.0432
2784.11891	0.04297
2783.15454	0.04268
2782.19018	0.04237
2781.22582	0.0421
2780.26145	0.04189
2779.29709	0.04167
2778.33272	0.04144
2777.36836	0.04123
2776.404	0.04112
2775.43963	0.04103
2774.47527	0.04083
2773.5109	0.04051
2772.54654	0.04016
2771.58218	0.03987
2770.61781	0.03967
2769.65345	0.03949
2768.68908	0.03925
2767.72472	0.03902
2766.76036	0.03881
2765.79599	0.03865
2764.83163	0.03847
2763.86726	0.03826
2762.9029	0.03801
2761.93854	0.03779
2760.97417	0.03766
2760.00981	0.03754
2759.04544	0.03737
2758.08108	0.03713
2757.11672	0.03692
2756.15235	0.03679
2755.18799	0.03667
2754.22362	0.03646
2753.25926	0.0362
2752.2949	0.036
2751.33053	0.03595
2750.36617	0.0359
2749.4018	0.03576
2748.43744	0.03559
2747.47307	0.03539
2746.50871	0.03517
2745.54435	0.035
2744.57998	0.03484
2743.61562	0.03467
2742.65125	0.0345
2741.68689	0.03441
2740.72253	0.03436
2739.75816	0.03428
2738.7938	0.03416
2737.82943	0.03403
2736.86507	0.03391
2735.90071	0.03375
2734.93634	0.03358
2733.97198	0.03339
2733.00761	0.03322
2732.04325	0.03312
2731.07889	0.03303
2730.11452	0.03287
2729.15016	0.03269
2728.18579	0.0326
2727.22143	0.03262
2726.25707	0.03257
2725.2927	0.03233
2724.32834	0.03199
2723.36397	0.03178
2722.39961	0.03166
2721.43525	0.03151
2720.47088	0.03125
2719.50652	0.03097
2718.54215	0.03073
2717.57779	0.0306
2716.61343	0.03051
2715.64906	0.03032
2714.6847	0.03005
2713.72033	0.02982
2712.75597	0.0297
2711.79161	0.02961
2710.82724	0.02949
2709.86288	0.02926
2708.89851	0.029
2707.93415	0.02881
2706.96979	0.02869
2706.00542	0.02853
2705.04106	0.02828
2704.07669	0.02807
2703.11233	0.02796
2702.14797	0.02787
2701.1836	0.02771
2700.21924	0.0275
2699.25487	0.02733
2698.29051	0.0272
2697.32615	0.02705
2696.36178	0.02687
2695.39742	0.02665
2694.43305	0.02648
2693.46869	0.02638
2692.50433	0.0263
2691.53996	0.02616
2690.5756	0.02596
2689.61123	0.0258
2688.64687	0.02573
2687.68251	0.02569
2686.71814	0.02557
2685.75378	0.02538
2684.78941	0.02524
2683.82505	0.02517
2682.86069	0.02514
2681.89632	0.02511
2680.93196	0.02503
2679.96759	0.0249
2679.00323	0.02481
2678.03887	0.02474
2677.0745	0.02457
2676.11014	0.02431
2675.14577	0.02413
2674.18141	0.02408
2673.21705	0.02406
2672.25268	0.02392
2671.28832	0.02367
2670.32395	0.02347
2669.35959	0.0234
2668.39523	0.02334
2667.43086	0.0232
2666.4665	0.02298
2665.50213	0.02278
2664.53777	0.02269
2663.57341	0.02261
2662.60904	0.02243
2661.64468	0.02217
2660.68031	0.02196
2659.71595	0.02186
2658.75159	0.0218
2657.78722	0.02168
2656.82286	0.02146
2655.85849	0.02125
2654.89413	0.02112
2653.92977	0.02103
2652.9654	0.02087
2652.00104	0.02063
2651.03667	0.02042
2650.07231	0.02032
2649.10795	0.02025
2648.14358	0.02009
2647.17922	0.01984
2646.21485	0.01962
2645.25049	0.01952
2644.28613	0.01947
2643.32176	0.01934
2642.3574	0.01911
2641.39303	0.01889
2640.42867	0.01879
2639.46431	0.01876
2638.49994	0.01865
2637.53558	0.0184
2636.57121	0.01813
2635.60685	0.01801
2634.64249	0.01796
2633.67812	0.01781
2632.71376	0.01751
2631.74939	0.01724
2630.78503	0.0171
2629.82067	0.01706
2628.8563	0.01696
2627.89194	0.01678
2626.92757	0.01657
2625.96321	0.01647
2624.99885	0.0164
2624.03448	0.01624
2623.07012	0.016
2622.10575	0.01579
2621.14139	0.01572
2620.17703	0.01571
2619.21266	0.01561
2618.2483	0.01542
2617.28393	0.01524
2616.31957	0.01519
2615.35521	0.01517
2614.39084	0.01507
2613.42648	0.01488
2612.46211	0.01473
2611.49775	0.01468
2610.53339	0.01466
2609.56902	0.01456
2608.60466	0.01437
2607.64029	0.01421
2606.67593	0.01421
2605.71156	0.01429
2604.7472	0.01426
2603.78284	0.01409
2602.81847	0.01393
2601.85411	0.0139
2600.88974	0.01393
2599.92538	0.01387
2598.96102	0.01371
2597.99665	0.01359
2597.03229	0.0136
2596.06792	0.01367
2595.10356	0.01363
2594.1392	0.01347
2593.17483	0.01332
2592.21047	0.01333
2591.2461	0.01341
2590.28174	0.01338
2589.31738	0.01322
2588.35301	0.01309
2587.38865	0.01309
2586.42428	0.01316
2585.45992	0.01313
2584.49556	0.01299
2583.53119	0.01285
2582.56683	0.01284
2581.60246	0.01291
2580.6381	0.01291
2579.67374	0.01277
2578.70937	0.01265
2577.74501	0.01265
2576.78064	0.0127
2575.81628	0.01267
2574.85192	0.01254
2573.88755	0.0124
2572.92319	0.01237
2571.95882	0.01242
2570.99446	0.01241
2570.0301	0.01229
2569.06573	0.01214
2568.10137	0.01212
2567.137	0.01219
2566.17264	0.01218
2565.20828	0.01204
2564.24391	0.01192
2563.27955	0.0119
2562.31518	0.01196
2561.35082	0.01193
2560.38646	0.01179
2559.42209	0.01163
2558.45773	0.01162
2557.49336	0.01169
2556.529	0.01169
2555.56464	0.01158
2554.60027	0.01144
2553.63591	0.01141
2552.67154	0.01145
2551.70718	0.01142
2550.74282	0.01129
2549.77845	0.01116
2548.81409	0.01112
2547.84972	0.01116
2546.88536	0.01114
2545.921	0.011
2544.95663	0.01084
2543.99227	0.0108
2543.0279	0.01084
2542.06354	0.01082
2541.09918	0.0107
2540.13481	0.01059
2539.17045	0.01055
2538.20608	0.01057
2537.24172	0.01054
2536.27736	0.01042
2535.31299	0.01027
2534.34863	0.0102
2533.38426	0.01022
2532.4199	0.01023
2531.45554	0.01016
2530.49117	0.01005
2529.52681	0.00999
2528.56244	0.01
2527.59808	0.01
2526.63372	0.00992
2525.66935	0.00977
2524.70499	0.00971
2523.74062	0.00979
2522.77626	0.00985
2521.8119	0.00978
2520.84753	0.00965
2519.88317	0.00957
2518.9188	0.00958
2517.95444	0.00958
2516.99008	0.00949
2516.02571	0.00937
2515.06135	0.00934
2514.09698	0.0094
2513.13262	0.00944
2512.16826	0.00938
2511.20389	0.00927
2510.23953	0.0092
2509.27516	0.00921
2508.3108	0.00925
2507.34644	0.00923
2506.38207	0.00915
2505.41771	0.00911
2504.45334	0.00914
2503.48898	0.00918
2502.52462	0.00912
2501.56025	0.009
2500.59589	0.00894
2499.63152	0.00899
2498.66716	0.00904
2497.7028	0.00903
2496.73843	0.00894
2495.77407	0.00888
2494.8097	0.0089
2493.84534	0.00892
2492.88098	0.00886
2491.91661	0.00877
2490.95225	0.00871
2489.98788	0.00872
2489.02352	0.00876
2488.05916	0.00871
2487.09479	0.00857
2486.13043	0.00848
2485.16606	0.00848
2484.2017	0.00851
2483.23734	0.00847
2482.27297	0.00836
2481.30861	0.00827
2480.34424	0.00827
2479.37988	0.00828
2478.41552	0.00822
2477.45115	0.00809
2476.48679	0.00803
2475.52242	0.00805
2474.55806	0.00809
2473.5937	0.00804
2472.62933	0.00789
2471.66497	0.00778
2470.7006	0.00778
2469.73624	0.00782
2468.77187	0.00775
2467.80751	0.00759
2466.84315	0.00748
2465.87878	0.00749
2464.91442	0.00752
2463.95005	0.00747
2462.98569	0.00733
2462.02133	0.00724
2461.05696	0.00725
2460.0926	0.0073
2459.12823	0.00722
2458.16387	0.00706
2457.19951	0.00695
2456.23514	0.00695
2455.27078	0.00697
2454.30641	0.0069
2453.34205	0.00673
2452.37769	0.00662
2451.41332	0.00661
2450.44896	0.00663
2449.48459	0.00656
2448.52023	0.00638
2447.55587	0.00627
2446.5915	0.00629
2445.62714	0.00635
2444.66277	0.0063
2443.69841	0.00615
2442.73405	0.00604
2441.76968	0.00602
2440.80532	0.00604
2439.84095	0.00595
2438.87659	0.00578
2437.91223	0.00567
2436.94786	0.00569
2435.9835	0.00576
2435.01913	0.00571
2434.05477	0.00555
2433.09041	0.00544
2432.12604	0.00543
2431.16168	0.00548
2430.19731	0.00544
2429.23295	0.00533
2428.26859	0.00523
2427.30422	0.00521
2426.33986	0.00522
2425.37549	0.00516
2424.41113	0.00503
2423.44677	0.00496
2422.4824	0.005
2421.51804	0.00506
2420.55367	0.00502
2419.58931	0.00489
2418.62495	0.00479
2417.66058	0.00485
2416.69622	0.00491
2415.73185	0.00486
2414.76749	0.00472
2413.80313	0.00461
2412.83876	0.00466
2411.8744	0.00475
2410.91003	0.00476
2409.94567	0.00466
2408.98131	0.00457
2408.01694	0.00459
2407.05258	0.00464
2406.08821	0.00459
2405.12385	0.00443
2404.15949	0.00431
2403.19512	0.00433
2402.23076	0.00441
2401.26639	0.00439
2400.30203	0.00425
2399.33767	0.00416
2398.3733	0.00421
2397.40894	0.00429
2396.44457	0.00425
2395.48021	0.00411
2394.51585	0.00402
2393.55148	0.00407
2392.58712	0.00414
2391.62275	0.00412
2390.65839	0.00399
2389.69403	0.0039
2388.72966	0.00393
2387.7653	0.00396
2386.80093	0.00385
2385.83657	0.00363
2384.87221	0.00343
2383.90784	0.00333
2382.94348	0.00325
2381.97911	0.00307
2381.01475	0.00278
2380.05039	0.00258
2379.08602	0.0025
2378.12166	0.00247
2377.15729	0.00237
2376.19293	0.00223
2375.22857	0.00214
2374.2642	0.00208
2373.29984	0.00195
2372.33547	0.00174
2371.37111	0.00152
2370.40675	0.00134
2369.44238	0.0013
2368.47802	0.0013
2367.51365	0.0012
2366.54929	0.00104
2365.58493	9.5031E-4
2364.62056	9.10178E-4
2363.6562	8.0676E-4
2362.69183	6.82247E-4
2361.72747	5.15544E-4
2360.76311	3.91031E-4
2359.79874	4.88018E-4
2358.83438	7.22123E-4
2357.87001	8.71847E-4
2356.90565	8.95E-4
2355.94129	0.00101
2354.97692	0.00135
2354.01256	0.00174
2353.04819	0.00199
2352.08383	0.00215
2351.11947	0.00243
2350.1551	0.00269
2349.19074	0.0024
2348.22637	0.00139
2347.26201	3.5656E-4
2346.29765	0
2345.33328	2.02462E-4
2344.36892	5.73685E-4
2343.40455	8.49981E-4
2342.44019	9.46967E-4
2341.47583	9.7012E-4
2340.51146	0.00111
2339.5471	0.00136
2338.58273	0.00147
2337.61837	0.00131
2336.65401	0.00129
2335.68964	0.00156
2334.72528	0.00159
2333.76091	0.0014
2332.79655	0.00131
2331.83219	0.00129
2330.86782	0.00135
2329.90346	0.00147
2328.93909	0.00153
2327.97473	0.00158
2327.01036	0.00171
2326.046	0.00178
2325.08164	0.00172
2324.11727	0.00166
2323.15291	0.00169
2322.18854	0.00175
2321.22418	0.00189
2320.25982	0.0021
2319.29545	0.00225
2318.33109	0.00234
2317.36672	0.00243
2316.40236	0.00252
2315.438	0.00253
2314.47363	0.00246
2313.50927	0.00239
2312.5449	0.00236
2311.58054	0.00243
2310.61618	0.00257
2309.65181	0.00263
2308.68745	0.00263
2307.72308	0.00265
2306.75872	0.00271
2305.79436	0.00279
2304.82999	0.00282
2303.86563	0.00283
2302.90126	0.00287
2301.9369	0.00291
2300.97254	0.00293
2300.00817	0.00298
2299.04381	0.00299
2298.07944	0.00297
2297.11508	0.00302
2296.15072	0.0031
2295.18635	0.00319
2294.22199	0.00323
2293.25762	0.00326
2292.29326	0.00328
2291.3289	0.00332
2290.36453	0.00339
2289.40017	0.00344
2288.4358	0.00346
2287.47144	0.00348
2286.50708	0.00356
2285.54271	0.00366
2284.57835	0.00371
2283.61398	0.0037
2282.64962	0.00368
2281.68526	0.00373
2280.72089	0.00382
2279.75653	0.00388
2278.79216	0.00389
2277.8278	0.0039
2276.86344	0.00399
2275.89907	0.00407
2274.93471	0.00416
2273.97034	0.00422
2273.00598	0.00424
2272.04162	0.00429
2271.07725	0.00441
2270.11289	0.00452
2269.14852	0.00455
2268.18416	0.00457
2267.2198	0.00465
2266.25543	0.00478
2265.29107	0.00489
2264.3267	0.00492
2263.36234	0.00492
2262.39798	0.00498
2261.43361	0.0051
2260.46925	0.00519
2259.50488	0.00522
2258.54052	0.00522
2257.57616	0.00528
2256.61179	0.00541
2255.64743	0.00549
2254.68306	0.00549
2253.7187	0.00552
2252.75434	0.00564
2251.78997	0.00579
2250.82561	0.00588
2249.86124	0.00588
2248.89688	0.00585
2247.93252	0.00593
2246.96815	0.00607
2246.00379	0.00616
2245.03942	0.00616
2244.07506	0.00616
2243.1107	0.00624
2242.14633	0.00641
2241.18197	0.00652
2240.2176	0.00652
2239.25324	0.0065
2238.28888	0.00661
2237.32451	0.00679
2236.36015	0.00691
2235.39578	0.00691
2234.43142	0.0069
2233.46706	0.007
2232.50269	0.00718
2231.53833	0.0073
2230.57396	0.00729
2229.6096	0.00726
2228.64524	0.00733
2227.68087	0.00749
2226.71651	0.0076
2225.75214	0.00758
2224.78778	0.00753
2223.82342	0.00758
2222.85905	0.00775
2221.89469	0.00786
2220.93032	0.00784
2219.96596	0.00779
2219.0016	0.00787
2218.03723	0.00804
2217.07287	0.00815
2216.1085	0.00811
2215.14414	0.00806
2214.17978	0.00814
2213.21541	0.00833
2212.25105	0.00847
2211.28668	0.00846
2210.32232	0.00842
2209.35796	0.00852
2208.39359	0.00874
2207.42923	0.00889
2206.46486	0.00889
2205.5005	0.00887
2204.53614	0.00897
2203.57177	0.00915
2202.60741	0.00928
2201.64304	0.00927
2200.67868	0.00924
2199.71432	0.00934
2198.74995	0.00954
2197.78559	0.00968
2196.82122	0.00971
2195.85686	0.00972
2194.8925	0.00984
2193.92813	0.01004
2192.96377	0.01018
2191.9994	0.01019
2191.03504	0.01017
2190.07068	0.01029
2189.10631	0.01052
2188.14195	0.01066
2187.17758	0.01066
2186.21322	0.01063
2185.24885	0.01072
2184.28449	0.01092
2183.32013	0.01109
2182.35576	0.01109
2181.3914	0.01107
2180.42703	0.01119
2179.46267	0.01143
2178.49831	0.01159
2177.53394	0.01157
2176.56958	0.01153
2175.60521	0.01163
2174.64085	0.01183
2173.67649	0.01198
2172.71212	0.012
2171.74776	0.01201
2170.78339	0.0121
2169.81903	0.0123
2168.85467	0.01245
2167.8903	0.01247
2166.92594	0.01246
2165.96157	0.01257
2164.99721	0.01274
2164.03285	0.01284
2163.06848	0.01284
2162.10412	0.01284
2161.13975	0.01296
2160.17539	0.01312
2159.21103	0.01323
2158.24666	0.01324
2157.2823	0.01323
2156.31793	0.01329
2155.35357	0.01343
2154.38921	0.01354
2153.42484	0.01356
2152.46048	0.01356
2151.49611	0.01363
2150.53175	0.01377
2149.56739	0.01384
2148.60302	0.01381
2147.63866	0.01378
2146.67429	0.01381
2145.70993	0.0139
2144.74557	0.01398
2143.7812	0.01403
2142.81684	0.01404
2141.85247	0.01408
2140.88811	0.01416
2139.92375	0.01422
2138.95938	0.01425
2137.99502	0.01425
2137.03065	0.01424
2136.06629	0.01431
2135.10193	0.01443
2134.13756	0.0145
2133.1732	0.01453
2132.20883	0.01456
2131.24447	0.01462
2130.28011	0.0147
2129.31574	0.01473
2128.35138	0.01474
2127.38701	0.01474
2126.42265	0.01478
2125.45829	0.01484
2124.49392	0.01488
2123.52956	0.01492
2122.56519	0.01493
2121.60083	0.01497
2120.63647	0.01506
2119.6721	0.01516
2118.70774	0.0152
2117.74337	0.0152
2116.77901	0.0152
2115.81465	0.01525
2114.85028	0.0153
2113.88592	0.01535
2112.92155	0.01535
2111.95719	0.01537
2110.99283	0.01547
2110.02846	0.01558
2109.0641	0.01563
2108.09973	0.01563
2107.13537	0.01565
2106.17101	0.01574
2105.20664	0.01586
2104.24228	0.01592
2103.27791	0.01591
2102.31355	0.0159
2101.34919	0.01595
2100.38482	0.01605
2099.42046	0.01612
2098.45609	0.01611
2097.49173	0.01613
2096.52737	0.01625
2095.563	0.01639
2094.59864	0.01644
2093.63427	0.01642
2092.66991	0.01639
2091.70555	0.01639
2090.74118	0.0164
2089.77682	0.0165
2088.81245	0.01657
2087.84809	0.0166
2086.88373	0.01671
2085.91936	0.01686
2084.955	0.0169
2083.99063	0.01682
2083.02627	0.01679
2082.06191	0.01691
2081.09754	0.01709
2080.13318	0.01714
2079.16881	0.01703
2078.20445	0.01697
2077.24009	0.0171
2076.27572	0.01729
2075.31136	0.01733
2074.34699	0.01722
2073.38263	0.01715
2072.41827	0.01727
2071.4539	0.01747
2070.48954	0.01754
2069.52517	0.01741
2068.56081	0.01732
2067.59645	0.01735
2066.63208	0.01731
2065.66772	0.01714
2064.70335	0.01711
2063.73899	0.01731
2062.77463	0.01753
2061.81026	0.01765
2060.8459	0.01764
2059.88153	0.01753
2058.91717	0.01748
2057.95281	0.01758
2056.98844	0.01772
2056.02408	0.01773
2055.05971	0.01758
2054.09535	0.01746
2053.13099	0.01752
2052.16662	0.01767
2051.20226	0.01769
2050.23789	0.01752
2049.27353	0.01738
2048.30917	0.01744
2047.3448	0.01757
2046.38044	0.01755
2045.41607	0.01732
2044.45171	0.01713
2043.48734	0.01714
2042.52298	0.01714
2041.55862	0.01703
2040.59425	0.01698
2039.62989	0.017
2038.66552	0.01706
2037.70116	0.01714
2036.7368	0.01711
2035.77243	0.01691
2034.80807	0.01675
2033.8437	0.0168
2032.87934	0.01693
2031.91498	0.01688
2030.95061	0.01664
2029.98625	0.01645
2029.02188	0.0165
2028.05752	0.01661
2027.09316	0.01654
2026.12879	0.01631
2025.16443	0.01616
2024.20006	0.01617
2023.2357	0.01625
2022.27134	0.01621
2021.30697	0.01599
2020.34261	0.01572
2019.37824	0.01553
2018.41388	0.01535
2017.44952	0.01512
2016.48515	0.01515
2015.52079	0.01545
2014.55642	0.01571
2013.59206	0.01581
2012.6277	0.01574
2011.66333	0.01551
2010.69897	0.01539
2009.7346	0.01547
2008.77024	0.01562
2007.80588	0.01559
2006.84151	0.01542
2005.87715	0.01535
2004.91278	0.01552
2003.94842	0.01572
2002.98406	0.01562
2002.01969	0.01535
2001.05533	0.01516
2000.09096	0.01514
1999.1266	0.01522
1998.16224	0.01519
1997.19787	0.01499
1996.23351	0.01483
1995.26914	0.01482
1994.30478	0.01464
1993.34042	0.01386
1992.37605	0.01322
1991.41169	0.01372
1990.44732	0.01441
1989.48296	0.01437
1988.5186	0.0141
1987.55423	0.01414
1986.58987	0.01427
1985.6255	0.0144
1984.66114	0.01449
1983.69678	0.01443
1982.73241	0.01421
1981.76805	0.01411
1980.80368	0.01423
1979.83932	0.01435
1978.87496	0.01427
1977.91059	0.01405
1976.94623	0.01396
1975.98186	0.01407
1975.0175	0.0142
1974.05314	0.01412
1973.08877	0.01389
1972.12441	0.01376
1971.16004	0.01385
1970.19568	0.01389
1969.23132	0.01345
1968.26695	0.01259
1967.30259	0.01221
1966.33822	0.0128
1965.37386	0.01344
1964.4095	0.0135
1963.44513	0.01322
1962.48077	0.013
1961.5164	0.013
1960.55204	0.01314
1959.58768	0.01311
1958.62331	0.01289
1957.65895	0.01275
1956.69458	0.01272
1955.73022	0.01267
1954.76586	0.01259
1953.80149	0.01252
1952.83713	0.01249
1951.87276	0.01257
1950.9084	0.01264
1949.94404	0.01253
1948.97967	0.01228
1948.01531	0.01202
1947.05094	0.01178
1946.08658	0.01169
1945.12222	0.01163
1944.15785	0.01094
1943.19349	0.00996
1942.22912	0.0104
1941.26476	0.01171
1940.3004	0.01207
1939.33603	0.01183
1938.37167	0.01169
1937.4073	0.01174
1936.44294	0.01183
1935.47858	0.01175
1934.51421	0.0115
1933.54985	0.01135
1932.58548	0.01146
1931.62112	0.01161
1930.65676	0.01155
1929.69239	0.01137
1928.72803	0.0113
1927.76366	0.01138
1926.7993	0.01144
1925.83494	0.01128
1924.87057	0.01062
1923.90621	0.00952
1922.94184	0.00923
1921.97748	0.01028
1921.01312	0.01098
1920.04875	0.01052
1919.08439	0.00945
1918.12002	0.00934
1917.15566	0.01056
1916.1913	0.01116
1915.22693	0.01095
1914.26257	0.01081
1913.2982	0.01091
1912.33384	0.01089
1911.36948	0.0104
1910.40511	0.00977
1909.44075	0.0097
1908.47638	0.01006
1907.51202	0.01049
1906.54766	0.01081
1905.58329	0.01078
1904.61893	0.01066
1903.65456	0.01075
1902.6902	0.01092
1901.72583	0.01095
1900.76147	0.01091
1899.79711	0.01089
1898.83274	0.01095
1897.86838	0.01096
1896.90401	0.01061
1895.93965	0.00997
1894.97529	0.00998
1894.01092	0.01068
1893.04656	0.0111
1892.08219	0.01095
1891.11783	0.01013
1890.15347	0.00928
1889.1891	0.00993
1888.22474	0.01121
1887.26037	0.01155
1886.29601	0.01129
1885.33165	0.01106
1884.36728	0.01122
1883.40292	0.01159
1882.43855	0.01177
1881.47419	0.01169
1880.50983	0.01157
1879.54546	0.01161
1878.5811	0.01181
1877.61673	0.01193
1876.65237	0.01188
1875.68801	0.01182
1874.72364	0.01186
1873.75928	0.012
1872.79491	0.01197
1871.83055	0.01138
1870.86619	0.01006
1869.90182	0.00854
1868.93746	0.00829
1867.97309	0.00948
1867.00873	0.0106
1866.04437	0.01144
1865.08	0.01208
1864.11564	0.01243
1863.15127	0.0125
1862.18691	0.01233
1861.22255	0.01221
1860.25818	0.01229
1859.29382	0.01245
1858.32945	0.01268
1857.36509	0.01287
1856.40073	0.01293
1855.43636	0.01303
1854.472	0.01326
1853.50763	0.01343
1852.54327	0.01344
1851.57891	0.01342
1850.61454	0.01345
1849.65018	0.01327
1848.68581	0.01277
1847.72145	0.0126
1846.75709	0.0126
1845.79272	0.01156
1844.82836	0.01051
1843.86399	0.01224
1842.89963	0.01431
1841.93527	0.01492
1840.9709	0.01531
1840.00654	0.0158
1839.04217	0.01591
1838.07781	0.0156
1837.11345	0.01569
1836.14908	0.01653
1835.18472	0.01729
1834.22035	0.01761
1833.25599	0.01775
1832.29163	0.0175
1831.32726	0.01631
1830.3629	0.01516
1829.39853	0.01688
1828.43417	0.01947
1827.46981	0.02006
1826.50544	0.01933
1825.54108	0.01934
1824.57671	0.02132
1823.61235	0.02278
1822.64799	0.0233
1821.68362	0.02412
1820.71926	0.02523
1819.75489	0.02616
1818.79053	0.02667
1817.82617	0.02722
1816.8618	0.02844
1815.89744	0.03002
1814.93307	0.03133
1813.96871	0.03216
1813.00435	0.03262
1812.03998	0.03312
1811.07562	0.03469
1810.11125	0.03748
1809.14689	0.03963
1808.18253	0.04103
1807.21816	0.043
1806.2538	0.04539
1805.28943	0.04747
1804.32507	0.04901
1803.36071	0.04996
1802.39634	0.0514
1801.43198	0.05373
1800.46761	0.05599
1799.50325	0.05893
1798.53889	0.0621
1797.57452	0.06387
1796.61016	0.06533
1795.64579	0.06803
1794.68143	0.07025
1793.71707	0.07076
1792.7527	0.07219
1791.78834	0.07671
1790.82397	0.08146
1789.85961	0.08512
1788.89525	0.08801
1787.93088	0.09096
1786.96652	0.09395
1786.00215	0.09653
1785.03779	0.09982
1784.07343	0.10396
1783.10906	0.10697
1782.1447	0.10842
1781.18033	0.10938
1780.21597	0.11071
1779.25161	0.1113
1778.28724	0.11026
1777.32288	0.10761
1776.35851	0.10357
1775.39415	0.0994
1774.42979	0.09598
1773.46542	0.09232
1772.50106	0.08926
1771.53669	0.08937
1770.57233	0.08908
1769.60797	0.08643
1768.6436	0.08239
1767.67924	0.07933
1766.71487	0.0776
1765.75051	0.07557
1764.78615	0.07343
1763.82178	0.07138
1762.85742	0.06913
1761.89305	0.06829
1760.92869	0.06978
1759.96432	0.07057
1758.99996	0.07032
1758.0356	0.07007
1757.07123	0.07132
1756.10687	0.07461
1755.1425	0.07744
1754.17814	0.0794
1753.21378	0.08072
1752.24941	0.08152
1751.28505	0.08394
1750.32068	0.08681
1749.35632	0.08673
1748.39196	0.08533
1747.42759	0.08388
1746.46323	0.08179
1745.49886	0.07907
1744.5345	0.07601
1743.57014	0.07392
1742.60577	0.07367
1741.64141	0.0726
1740.67704	0.07005
1739.71268	0.069
1738.74832	0.07034
1737.78395	0.07071
1736.81959	0.06985
1735.85522	0.06762
1734.89086	0.06415
1733.9265	0.0651
1732.96213	0.07016
1731.99777	0.07133
1731.0334	0.07072
1730.06904	0.0716
1729.10468	0.07459
1728.14031	0.07668
1727.17595	0.07794
1726.21158	0.07945
1725.24722	0.08088
1724.28286	0.08202
1723.31849	0.08371
1722.35413	0.08593
1721.38976	0.08782
1720.4254	0.08872
1719.46104	0.08808
1718.49667	0.08766
1717.53231	0.09359
1716.56794	0.09903
1715.60358	0.10095
1714.63922	0.10414
1713.67485	0.10811
1712.71049	0.11006
1711.74612	0.11007
1710.78176	0.1087
1709.8174	0.10656
1708.85303	0.10327
1707.88867	0.09811
1706.9243	0.09124
1705.95994	0.08492
1704.99558	0.08054
1704.03121	0.07696
1703.06685	0.07355
1702.10248	0.06938
1701.13812	0.06363
1700.17376	0.06
1699.20939	0.06129
1698.24503	0.05998
1697.28066	0.05708
1696.3163	0.0556
1695.35194	0.05971
1694.38757	0.06238
1693.42321	0.06283
1692.45884	0.06301
1691.49448	0.06297
1690.53012	0.06281
1689.56575	0.06313
1688.60139	0.0643
1687.63702	0.06577
1686.67266	0.0658
1685.7083	0.06321
1684.74393	0.0595
1683.77957	0.06588
1682.8152	0.07217
1681.85084	0.07317
1680.88648	0.07289
1679.92211	0.07436
1678.95775	0.07699
1677.99338	0.07818
1677.02902	0.07761
1676.06466	0.07652
1675.10029	0.07876
1674.13593	0.08222
1673.17156	0.08273
1672.2072	0.0823
1671.24284	0.08263
1670.27847	0.08313
1669.31411	0.08548
1668.34974	0.09136
1667.38538	0.0957
1666.42102	0.09839
1665.45665	0.10065
1664.49229	0.10218
1663.52792	0.10372
1662.56356	0.10819
1661.5992	0.11334
1660.63483	0.11612
1659.67047	0.11778
1658.7061	0.11889
1657.74174	0.11944
1656.77738	0.11923
1655.81301	0.11759
1654.84865	0.11373
1653.88428	0.10738
1652.91992	0.10807
1651.95556	0.11172
1650.99119	0.11062
1650.02683	0.10758
1649.06246	0.10301
1648.0981	0.09721
1647.13374	0.093
1646.16937	0.0937
1645.20501	0.09576
1644.24064	0.09595
1643.27628	0.09488
1642.31192	0.0936
1641.34755	0.0925
1640.38319	0.09146
1639.41882	0.09016
1638.45446	0.08801
1637.4901	0.08523
1636.52573	0.08264
1635.56137	0.08331
1634.597	0.08741
1633.63264	0.08864
1632.66828	0.08821
1631.70391	0.08754
1630.73955	0.08685
1629.77518	0.08574
1628.81082	0.08418
1627.84646	0.08364
1626.88209	0.0844
1625.91773	0.08393
1624.95336	0.08146
1623.989	0.07781
1623.02464	0.07584
1622.06027	0.07581
1621.09591	0.07513
1620.13154	0.07387
1619.16718	0.0722
1618.20281	0.06966
1617.23845	0.06733
1616.27409	0.06929
1615.30972	0.07157
1614.34536	0.07152
1613.38099	0.07066
1612.41663	0.0695
1611.45227	0.06777
1610.4879	0.06521
1609.52354	0.06234
1608.55917	0.0598
1607.59481	0.05727
1606.63045	0.05493
1605.66608	0.05289
1604.70172	0.05053
1603.73735	0.04809
1602.77299	0.04628
1601.80863	0.04509
1600.84426	0.04404
1599.8799	0.04304
1598.91553	0.04199
1597.95117	0.04079
1596.98681	0.03938
1596.02244	0.0378
1595.05808	0.03641
1594.09371	0.03554
1593.12935	0.03482
1592.16499	0.03366
1591.20062	0.0322
1590.23626	0.03083
1589.27189	0.0297
1588.30753	0.02874
1587.34317	0.02758
1586.3788	0.02626
1585.41444	0.02493
1584.45007	0.02366
1583.48571	0.02243
1582.52135	0.02118
1581.55698	0.0199
1580.59262	0.01861
1579.62825	0.01722
1578.66389	0.01528
1577.69953	0.01232
1576.73516	0.00958
1575.7708	0.01153
1574.80643	0.01418
1573.84207	0.01472
1572.87771	0.01458
1571.91334	0.01381
1570.94898	0.0119
1569.98461	0.01036
1569.02025	0.01329
1568.05589	0.01638
1567.09152	0.01692
1566.12716	0.01639
1565.16279	0.01675
1564.19843	0.01889
1563.23407	0.02024
1562.2697	0.0195
1561.30534	0.01682
1560.34097	0.01165
1559.37661	0.00496
1558.41225	0.01214
1557.44788	0.01991
1556.48352	0.02105
1555.51915	0.01991
1554.55479	0.01972
1553.59043	0.02197
1552.62606	0.0229
1551.6617	0.02181
1550.69733	0.0203
1549.73297	0.02147
1548.76861	0.02426
1547.80424	0.02523
1546.83988	0.02442
1545.87551	0.02285
1544.91115	0.0225
1543.94679	0.02318
1542.98242	0.02292
1542.01806	0.02285
1541.05369	0.02276
1540.08933	0.02262
1539.12497	0.03109
1538.1606	0.0383
1537.19624	0.04042
1536.23187	0.04087
1535.26751	0.04018
1534.30315	0.03902
1533.33878	0.04061
1532.37442	0.04403
1531.41005	0.04606
1530.44569	0.04665
1529.48133	0.0455
1528.51696	0.04337
1527.5526	0.04198
1526.58823	0.04093
1525.62387	0.03955
1524.65951	0.03848
1523.69514	0.0365
1522.73078	0.03247
1521.76641	0.0282
1520.80205	0.02929
1519.83769	0.0314
1518.87332	0.03031
1517.90896	0.02688
1516.94459	0.02446
1515.98023	0.02577
1515.01587	0.02676
1514.0515	0.02638
1513.08714	0.02506
1512.12277	0.02395
1511.15841	0.02283
1510.19405	0.02029
1509.22968	0.01641
1508.26532	0.01189
1507.30095	0.00788
1506.33659	0.01258
1505.37223	0.01999
1504.40786	0.02224
1503.4435	0.02248
1502.47913	0.02218
1501.51477	0.02198
1500.55041	0.02145
1499.58604	0.0205
1498.62168	0.02073
1497.65731	0.02136
1496.69295	0.0218
1495.72859	0.02449
1494.76422	0.02727
1493.79986	0.02876
1492.83549	0.0295
1491.87113	0.02899
1490.90677	0.02775
1489.9424	0.03026
1488.97804	0.03586
1488.01367	0.04034
1487.04931	0.04568
1486.08495	0.0515
1485.12058	0.05629
1484.15622	0.06044
1483.19185	0.06349
1482.22749	0.06506
1481.26312	0.06652
1480.29876	0.06888
1479.3344	0.07127
1478.37003	0.07283
1477.40567	0.07354
1476.4413	0.07565
1475.47694	0.0796
1474.51258	0.08174
1473.54821	0.08311
1472.58385	0.08904
1471.61948	0.09901
1470.65512	0.10579
1469.69076	0.11031
1468.72639	0.11437
1467.76203	0.1178
1466.79766	0.11979
1465.8333	0.12096
1464.86894	0.12457
1463.90457	0.12946
1462.94021	0.13161
1461.97584	0.13229
1461.01148	0.13223
1460.04712	0.13103
1459.08275	0.12844
1458.11839	0.12582
1457.15402	0.12664
1456.18966	0.13082
1455.2253	0.13381
1454.26093	0.13509
1453.29657	0.13488
1452.3322	0.13397
1451.36784	0.13376
1450.40348	0.13357
1449.43911	0.13203
1448.47475	0.12944
1447.51038	0.12791
1446.54602	0.12783
1445.58166	0.1276
1444.61729	0.12705
1443.65293	0.12632
1442.68856	0.12575
1441.7242	0.12583
1440.75984	0.12642
1439.79547	0.12684
1438.83111	0.12622
1437.86674	0.1246
1436.90238	0.1249
1435.93802	0.12952
1434.97365	0.13238
1434.00929	0.13348
1433.04492	0.13496
1432.08056	0.13711
1431.1162	0.13902
1430.15183	0.14143
1429.18747	0.14498
1428.2231	0.14837
1427.25874	0.15162
1426.29438	0.15477
1425.33001	0.15685
1424.36565	0.15909
1423.40128	0.16388
1422.43692	0.16885
1421.47256	0.17137
1420.50819	0.17171
1419.54383	0.17204
1418.57946	0.17478
1417.6151	0.17714
1416.65074	0.17879
1415.68637	0.18016
1414.72201	0.18082
1413.75764	0.18109
1412.79328	0.18156
1411.82892	0.18252
1410.86455	0.18361
1409.90019	0.18437
1408.93582	0.18497
1407.97146	0.18558
1407.0071	0.18564
1406.04273	0.18453
1405.07837	0.18322
1404.114	0.18321
1403.14964	0.18351
1402.18528	0.18329
1401.22091	0.18233
1400.25655	0.18059
1399.29218	0.17942
1398.32782	0.18028
1397.36346	0.18103
1396.39909	0.18008
1395.43473	0.17869
1394.47036	0.17984
1393.506	0.18274
1392.54164	0.18467
1391.57727	0.18598
1390.61291	0.18742
1389.64854	0.1887
1388.68418	0.18919
1387.71982	0.18967
1386.75545	0.19133
1385.79109	0.1927
1384.82672	0.19308
1383.86236	0.19321
1382.898	0.19343
1381.93363	0.19364
1380.96927	0.19379
1380.0049	0.19419
1379.04054	0.19519
1378.07618	0.19671
1377.11181	0.19793
1376.14745	0.19808
1375.18308	0.19775
1374.21872	0.1985
1373.25436	0.19971
1372.28999	0.19918
1371.32563	0.19673
1370.36126	0.19325
1369.3969	0.18955
1368.43254	0.1865
1367.46817	0.18424
1366.50381	0.18205
1365.53944	0.17965
1364.57508	0.17681
1363.61072	0.17347
1362.64635	0.17113
1361.68199	0.17031
1360.71762	0.16982
1359.75326	0.16921
1358.7889	0.16837
1357.82453	0.16755
1356.86017	0.16696
1355.8958	0.1665
1354.93144	0.16659
1353.96708	0.16746
1353.00271	0.16858
1352.03835	0.16972
1351.07398	0.171
1350.10962	0.17253
1349.14526	0.17451
1348.18089	0.17677
1347.21653	0.17918
1346.25216	0.18192
1345.2878	0.18518
1344.32344	0.18889
1343.35907	0.19295
1342.39471	0.1968
1341.43034	0.1999
1340.46598	0.20319
1339.50161	0.20799
1338.53725	0.2132
1337.57289	0.21704
1336.60852	0.21953
1335.64416	0.22101
1334.67979	0.22133
1333.71543	0.22061
1332.75107	0.21913
1331.7867	0.21692
1330.82234	0.21408
1329.85797	0.21079
1328.89361	0.20724
1327.92925	0.20332
1326.96488	0.19902
1326.00052	0.19446
1325.03615	0.18987
1324.07179	0.1853
1323.10743	0.18065
1322.14306	0.1759
1321.1787	0.17098
1320.21433	0.16609
1319.24997	0.16165
1318.28561	0.15792
1317.32124	0.15468
1316.35688	0.15182
1315.39251	0.14945
1314.42815	0.14756
1313.46379	0.14623
1312.49942	0.14572
1311.53506	0.14599
1310.57069	0.14676
1309.60633	0.14781
1308.64197	0.14901
1307.6776	0.15018
1306.71324	0.15124
1305.74887	0.15224
1304.78451	0.15318
1303.82015	0.15367
1302.85578	0.15337
1301.89142	0.15246
1300.92705	0.15133
1299.96269	0.15004
1298.99833	0.14821
1298.03396	0.14564
1297.0696	0.14265
1296.10523	0.13985
1295.14087	0.1373
1294.17651	0.13453
1293.21214	0.13131
1292.24778	0.12799
1291.28341	0.12506
1290.31905	0.12257
1289.35469	0.12005
1288.39032	0.11728
1287.42596	0.11482
1286.46159	0.1132
1285.49723	0.11214
1284.53287	0.11107
1283.5685	0.10978
1282.60414	0.10865
1281.63977	0.10824
1280.67541	0.10846
1279.71105	0.10877
1278.74668	0.10889
1277.78232	0.10924
1276.81795	0.11032
1275.85359	0.11202
1274.88923	0.11374
1273.92486	0.11511
1272.9605	0.11649
1271.99613	0.11846
1271.03177	0.12079
1270.06741	0.12265
1269.10304	0.12379
1268.13868	0.12474
1267.17431	0.12599
1266.20995	0.12741
1265.24559	0.12845
1264.28122	0.12887
1263.31686	0.12916
1262.35249	0.12968
1261.38813	0.13008
1260.42377	0.1299
1259.4594	0.12923
1258.49504	0.12866
1257.53067	0.12876
1256.56631	0.12937
1255.60195	0.12986
1254.63758	0.13006
1253.67322	0.1305
1252.70885	0.13159
1251.74449	0.13289
1250.78013	0.13358
1249.81576	0.13354
1248.8514	0.13349
1247.88703	0.13401
1246.92267	0.13481
1245.95831	0.13511
1244.99394	0.13474
1244.02958	0.13434
1243.06521	0.13431
1242.10085	0.13412
1241.13649	0.13313
1240.17212	0.13155
1239.20776	0.13027
1238.24339	0.12973
1237.27903	0.12936
1236.31467	0.12825
1235.3503	0.12648
1234.38594	0.12496
1233.42157	0.12423
1232.45721	0.1238
1231.49285	0.12289
1230.52848	0.12153
1229.56412	0.12044
1228.59975	0.12011
1227.63539	0.12017
1226.67103	0.12
1225.70666	0.11975
1224.7423	0.1201
1223.77793	0.12114
1222.81357	0.12184
1221.84921	0.12123
1220.88484	0.11941
1219.92048	0.11743
1218.95611	0.11604
1217.99175	0.11495
1217.02739	0.11361
1216.06302	0.11225
1215.09866	0.11171
1214.13429	0.11216
1213.16993	0.11274
1212.20557	0.11275
1211.2412	0.11244
1210.27684	0.11254
1209.31247	0.11317
1208.34811	0.11365
1207.38375	0.11327
1206.41938	0.11234
1205.45502	0.11171
1204.49065	0.11147
1203.52629	0.11077
1202.56193	0.109
1201.59756	0.10661
1200.6332	0.10461
1199.66883	0.10321
1198.70447	0.10177
1197.7401	0.09998
1196.77574	0.09836
1195.81138	0.09766
1194.84701	0.09777
1193.88265	0.09788
1192.91828	0.09749
1191.95392	0.09708
1190.98956	0.09748
1190.02519	0.09872
1189.06083	0.10003
1188.09646	0.1011
1187.1321	0.10272
1186.16774	0.10579
1185.20337	0.11016
1184.23901	0.115
1183.27464	0.12011
1182.31028	0.12629
1181.34592	0.1343
1180.38155	0.14394
1179.41719	0.15448
1178.45282	0.16574
1177.48846	0.17834
1176.5241	0.19267
1175.55973	0.20819
1174.59537	0.22403
1173.631	0.23984
1172.66664	0.25599
1171.70228	0.27281
1170.73791	0.28994
1169.77355	0.30676
1168.80918	0.32352
1167.84482	0.34095
1166.88046	0.35929
1165.91609	0.37799
1164.95173	0.39641
1163.98736	0.41429
1163.023	0.4318
1162.05864	0.44895
1161.09427	0.46501
1160.12991	0.47904
1159.16554	0.49079
1158.20118	0.50057
1157.23682	0.50838
1156.27245	0.51361
1155.30809	0.51593
1154.34372	0.51567
1153.37936	0.51346
1152.415	0.50961
1151.45063	0.50425
1150.48627	0.49742
1149.5219	0.48947
1148.55754	0.48106
1147.59318	0.47257
1146.62881	0.46386
1145.66445	0.45481
1144.70008	0.44578
1143.73572	0.4374
1142.77136	0.42984
1141.80699	0.42285
1140.84263	0.4163
1139.87826	0.41059
1138.9139	0.40621
1137.94954	0.40323
1136.98517	0.40133
1136.02081	0.40029
1135.05644	0.40035
1134.09208	0.40173
1133.12772	0.40421
1132.16335	0.40725
1131.19899	0.4106
1130.23462	0.41423
1129.27026	0.41815
1128.3059	0.42227
1127.34153	0.42623
1126.37717	0.42977
1125.4128	0.43309
1124.44844	0.43658
1123.48408	0.44013
1122.51971	0.4434
1121.55535	0.44645
1120.59098	0.44963
1119.62662	0.45324
1118.66226	0.4573
1117.69789	0.46181
1116.73353	0.4668
1115.76916	0.47244
1114.8048	0.47884
1113.84044	0.48583
1112.87607	0.49307
1111.91171	0.50031
1110.94734	0.5075
1109.98298	0.51474
1109.01862	0.52197
1108.05425	0.52876
1107.08989	0.5349
1106.12552	0.54058
1105.16116	0.54571
1104.1968	0.5501
1103.23243	0.55358
1102.26807	0.55634
1101.3037	0.55881
1100.33934	0.56154
1099.37498	0.56506
1098.41061	0.56959
1097.44625	0.57521
1096.48188	0.58219
1095.51752	0.59097
1094.55316	0.60146
1093.58879	0.61321
1092.62443	0.62617
1091.66006	0.64063
1090.6957	0.65628
1089.73134	0.67233
1088.76697	0.68846
1087.80261	0.70427
1086.83824	0.71922
1085.87388	0.7327
1084.90952	0.74388
1083.94515	0.75198
1082.98079	0.75654
1082.01642	0.75729
1081.05206	0.75357
1080.0877	0.74496
1079.12333	0.73204
1078.15897	0.71601
1077.1946	0.69763
1076.23024	0.67747
1075.26588	0.65694
1074.30151	0.63814
1073.33715	0.62292
1072.37278	0.61179
1071.40842	0.60469
1070.44406	0.6018
1069.47969	0.60338
1068.51533	0.60918
1067.55096	0.61818
1066.5866	0.62955
1065.62224	0.64293
1064.65787	0.65784
1063.69351	0.67372
1062.72914	0.69002
1061.76478	0.70602
1060.80042	0.7214
1059.83605	0.73656
1058.87169	0.75149
1057.90732	0.76563
1056.94296	0.77874
1055.97859	0.79084
1055.01423	0.80218
1054.04987	0.8132
1053.0855	0.82411
1052.12114	0.83488
1051.15677	0.84602
1050.19241	0.85804
1049.22805	0.8712
1048.26368	0.88536
1047.29932	0.89974
1046.33495	0.91359
1045.37059	0.92638
1044.40623	0.93784
1043.44186	0.94757
1042.4775	0.95553
1041.51313	0.96209
1040.54877	0.9679
1039.58441	0.97331
1038.62004	0.97808
1037.65568	0.98216
1036.69131	0.98588
1035.72695	0.98995
1034.76259	0.99422
1033.79822	0.99768
1032.83386	0.99957
1031.86949	1
1030.90513	0.99938
1029.94077	0.99737
1028.9764	0.99325
1028.01204	0.98633
1027.04767	0.97692
1026.08331	0.96543
1025.11895	0.95155
1024.15458	0.93527
1023.19022	0.91709
1022.22585	0.89816
1021.26149	0.87925
1020.29713	0.86028
1019.33276	0.84071
1018.3684	0.82065
1017.40403	0.80133
1016.43967	0.78349
1015.47531	0.76689
1014.51094	0.75079
1013.54658	0.73487
1012.58221	0.71911
1011.61785	0.70376
1010.65349	0.68889
1009.68912	0.67383
1008.72476	0.65816
1007.76039	0.64215
1006.79603	0.6262
1005.83167	0.61002
1004.8673	0.59288
1003.90294	0.57452
1002.93857	0.5553
1001.97421	0.53576
1001.00985	0.51583
1000.04548	0.49511
999.08112	0.47336
998.11675	0.4511
997.15239	0.42918
996.18803	0.40782
995.22366	0.38669
994.2593	0.36567
993.29493	0.34547
992.33057	0.327
991.36621	0.31043
990.40184	0.295
989.43748	0.28014
988.47311	0.26605
987.50875	0.25311
986.54439	0.24119
985.58002	0.22968
984.61566	0.21821
983.65129	0.20707
982.68693	0.1968
981.72257	0.18745
980.7582	0.17847
979.79384	0.16942
978.82947	0.16054
977.86511	0.15252
976.90075	0.14538
975.93638	0.13823
974.97202	0.13056
974.00765	0.12289
973.04329	0.11586
972.07893	0.10937
971.11456	0.10286
970.1502	0.09605
969.18583	0.08941
968.22147	0.0837
967.25711	0.07898
966.29274	0.07471
965.32838	0.07059
964.36401	0.06726
963.39965	0.06559
962.43529	0.06551
961.47092	0.06618
960.50656	0.06712
959.54219	0.06866
958.57783	0.07131
957.61347	0.07484
956.6491	0.07849
955.68474	0.08202
954.72037	0.08613
953.75601	0.09143
952.79165	0.09748
951.82728	0.10321
950.86292	0.10814
949.89855	0.11269
948.93419	0.11744
947.96983	0.12213
947.00546	0.12604
946.0411	0.12887
945.07673	0.13105
944.11237	0.13288
943.14801	0.13406
942.18364	0.13396
941.21928	0.13254
940.25491	0.13048
939.29055	0.12835
938.32619	0.12619
937.36182	0.12377
936.39746	0.12113
935.43309	0.11861
934.46873	0.11649
933.50437	0.11459
932.54	0.11252
931.57564	0.10999
930.61127	0.10705
929.64691	0.10396
928.68255	0.10086
927.71818	0.09761
926.75382	0.09397
925.78945	0.09005
924.82509	0.08627
923.86073	0.08284
922.89636	0.0793
921.932	0.07518
920.96763	0.07059
920.00327	0.06599
919.03891	0.06173
918.07454	0.05776
917.11018	0.05369
916.14581	0.04947
915.18145	0.0456
914.21708	0.0425
913.25272	0.03982
912.28836	0.03697
911.32399	0.03389
910.35963	0.03101
909.39526	0.02866
908.4309	0.02662
907.46654	0.02442
906.50217	0.02198
905.53781	0.01987
904.57344	0.01854
903.60908	0.01768
902.64472	0.01675
901.68035	0.0157
900.71599	0.01503
899.75162	0.01508
898.78726	0.01541
897.8229	0.01541
896.85853	0.01509
895.89417	0.01508
894.9298	0.0157
893.96544	0.01658
893.00108	0.01717
892.03671	0.01753
891.07235	0.01861
890.10798	0.02121
889.14362	0.02509
888.17926	0.02903
887.21489	0.03131
886.25053	0.03089
885.28616	0.02849
884.3218	0.02543
883.35744	0.02224
882.39307	0.01928
881.42871	0.01736
880.46434	0.01683
879.49998	0.01702
878.53562	0.01721
877.57125	0.01753
876.60689	0.01871
875.64252	0.0211
874.67816	0.02421
873.7138	0.02722
872.74943	0.03014
871.78507	0.03389
870.8207	0.03893
869.85634	0.04451
868.89198	0.04944
867.92761	0.05356
866.96325	0.05764
865.99888	0.06212
865.03452	0.06648
864.07016	0.06996
863.10579	0.07255
862.14143	0.07508
861.17706	0.07797
860.2127	0.08038
859.24834	0.08139
858.28397	0.08133
857.31961	0.08136
856.35524	0.08195
855.39088	0.08228
854.42652	0.08143
853.46215	0.0797
852.49779	0.07819
851.53342	0.07737
850.56906	0.07644
849.6047	0.07448
848.64033	0.07195
847.67597	0.07014
846.7116	0.06942
845.74724	0.06873
844.78288	0.06696
843.81851	0.0644
842.85415	0.06223
841.88978	0.06073
840.92542	0.05879
839.96106	0.05546
838.99669	0.05135
838.03233	0.04773
837.06796	0.04483
836.1036	0.04154
835.13924	0.03702
834.17487	0.03205
833.21051	0.02815
832.24614	0.02561
831.28178	0.02315
830.31742	0.02001
829.35305	0.01701
828.38869	0.01553
827.42432	0.01556
826.45996	0.01559
825.4956	0.01476
824.53123	0.01403
823.56687	0.01462
822.6025	0.01609
821.63814	0.0168
820.67378	0.01599
819.70941	0.01475
818.74505	0.01435
817.78068	0.01447
816.81632	0.01379
815.85196	0.01193
814.88759	0.01026
813.92323	0.01003
812.95886	0.01067
811.9945	0.01058
811.03014	0.00939
810.06577	0.00855
809.10141	0.00921
808.13704	0.01062
807.17268	0.01119
806.20832	0.01075
805.24395	0.01075
804.27959	0.01219
803.31522	0.01421
802.35086	0.01521
801.3865	0.01505
800.42213	0.01521
799.45777	0.01657
798.4934	0.01827
797.52904	0.01881
796.56468	0.01838
795.60031	0.01858
794.63595	0.02004
793.67158	0.02175
792.70722	0.02242
791.74286	0.02229
790.77849	0.02281
789.81413	0.02462
788.84976	0.02663
787.8854	0.02755
786.92104	0.02771
785.95667	0.02864
784.99231	0.03088
784.02794	0.03319
783.06358	0.0344
782.09922	0.03517
781.13485	0.03713
780.17049	0.04068
779.20612	0.04438
778.24176	0.04673
777.2774	0.04792
776.31303	0.04939
775.34867	0.05163
774.3843	0.05356
773.41994	0.05442
772.45557	0.05506
771.49121	0.05685
770.52685	0.05984
769.56248	0.06284
768.59812	0.065
767.63375	0.06709
766.66939	0.07035
765.70503	0.07476
764.74066	0.07903
763.7763	0.08235
762.81193	0.08541
761.84757	0.08909
760.88321	0.09306
759.91884	0.09609
758.95448	0.09747
757.99011	0.09778
757.02575	0.098
756.06139	0.09812
755.09702	0.09717
754.13266	0.09482
753.16829	0.09206
752.20393	0.08991
751.23957	0.08802
750.2752	0.08537
749.31084	0.08162
748.34647	0.07759
747.38211	0.07427
746.41775	0.07162
745.45338	0.06888
744.48902	0.06576
743.52465	0.06304
742.56029	0.06141
741.59593	0.06043
740.63156	0.05922
739.6672	0.05767
738.70283	0.05643
737.73847	0.05603
736.77411	0.05617
735.80974	0.05613
734.84538	0.05577
733.88101	0.05568
732.91665	0.0564
731.95229	0.0577
730.98792	0.0588
730.02356	0.05949
729.05919	0.06034
728.09483	0.06183
727.13047	0.06368
726.1661	0.06526
725.20174	0.06649
724.23737	0.06792
723.27301	0.0699
722.30865	0.07202
721.34428	0.07381
720.37992	0.07564
719.41555	0.07795
718.45119	0.08053
717.48683	0.08308
716.52246	0.08552
715.5581	0.0878
714.59373	0.08996
713.62937	0.09215
712.66501	0.09432
711.70064	0.09613
710.73628	0.09741
709.77191	0.09825
708.80755	0.09868
707.84319	0.09886
706.87882	0.09876
705.91446	0.098
704.95009	0.09643
703.98573	0.09439
703.02137	0.09231
702.057	0.09037
701.09264	0.08835
700.12827	0.08609
699.16391	0.08371
698.19955	0.08174
697.23518	0.0805
696.27082	0.07963
695.30645	0.07861
694.34209	0.07754
693.37773	0.07703
692.41336	0.07722
691.449	0.07744
690.48463	0.07717
689.52027	0.07677
688.55591	0.07702
687.59154	0.07798
686.62718	0.07885
685.66281	0.07904
684.69845	0.07894
683.73409	0.07945
682.76972	0.08065
681.80536	0.08165
680.84099	0.08184
679.87663	0.0817
678.91227	0.08239
677.9479	0.08407
676.98354	0.08543
676.01917	0.08558
675.05481	0.08545
674.09045	0.08627
673.12608	0.0877
672.16172	0.0884
671.19735	0.08775
670.23299	0.08626
669.26863	0.08497
668.30426	0.08716
667.3399	0.09108
666.37553	0.09115
665.41117	0.09088
664.44681	0.09164
663.48244	0.09294
662.51808	0.09343
661.55371	0.09297
660.58935	0.09276
659.62499	0.0936
658.66062	0.09484
657.69626	0.09523
656.73189	0.09479
655.76753	0.09484
654.80317	0.09621
653.8388	0.09787
652.87444	0.09833
651.91007	0.09763
650.94571	0.09728
649.98135	0.09811
649.01698	0.09929
648.05262	0.0995
647.08825	0.09873
646.12389	0.09845
645.15953	0.09939
644.19516	0.10042
643.2308	0.10021
642.26643	0.09932
641.30207	0.09932
640.33771	0.10068
639.37334	0.10216
638.40898	0.10244
637.44461	0.10192
636.48025	0.10219
635.51589	0.10391
634.55152	0.10582
633.58716	0.10643
632.62279	0.1063
631.65843	0.10719
630.69406	0.10943
629.7297	0.11153
628.76534	0.11229
627.80097	0.11253
626.83661	0.11398
625.87224	0.11687
624.90788	0.1197
623.94352	0.12141
622.97915	0.123
622.01479	0.12595
621.05042	0.12991
620.08606	0.13302
619.1217	0.1344
618.15733	0.13559
617.19297	0.1385
616.2286	0.14239
615.26424	0.14526
614.29988	0.14662
613.33551	0.14782
612.37115	0.15015
611.40678	0.15282
610.44242	0.15409
609.47806	0.1539
608.51369	0.15387
607.54933	0.15508
606.58496	0.1565
605.6206	0.15646
604.65624	0.15523
603.69187	0.15462
602.72751	0.15541
601.76314	0.15637
600.79878	0.15612
599.83442	0.1551
598.87005	0.15513
597.90569	0.15685
596.94132	0.15895
595.97696	0.15986
595.0126	0.15994
594.04823	0.16115
593.08387	0.16346
592.1195	0.16509
591.15514	0.16527
590.19078	0.16478
589.22641	0.16472
588.26205	0.16525
587.29768	0.16511
586.33332	0.16325
585.36896	0.16083
584.40459	0.15995
583.44023	0.16055
582.47586	0.16026
581.5115	0.15774
580.54714	0.15468
579.58277	0.15338
578.61841	0.15314
577.65404	0.15172
576.68968	0.14847
575.72532	0.14508
574.76095	0.14336
573.79659	0.14252
572.83222	0.14093
571.86786	0.13803
570.9035	0.13468
569.93913	0.13234
568.97477	0.1312
568.0104	0.1298
567.04604	0.12731
566.08168	0.125
565.11731	0.124
564.15295	0.1236
563.18858	0.12234
562.22422	0.12007
561.25986	0.11826
560.29549	0.11785
559.33113	0.11809
558.36676	0.11752
557.4024	0.1161
556.43804	0.11522
555.47367	0.11573
554.50931	0.11706
553.54494	0.11755
552.58058	0.11649
551.61622	0.11524
550.65185	0.11541
549.68749	0.11658
548.72312	0.1169
547.75876	0.11593
546.7944	0.1153
545.83003	0.1162
544.86567	0.1176
543.9013	0.1177
542.93694	0.11671
541.97258	0.11642
541.00821	0.11754
540.04385	0.11879
539.07948	0.11886
538.11512	0.11787
537.15076	0.11708
536.18639	0.11754
535.22203	0.11849
534.25766	0.11823
533.2933	0.11669
532.32894	0.11551
531.36457	0.11562
530.40021	0.11612
529.43584	0.11583
528.47148	0.11461
527.50712	0.11308
526.54275	0.11209
525.57839	0.11202
524.61402	0.1116
523.64966	0.11003
522.6853	0.10833
521.72093	0.1073
520.75657	0.10597
519.7922	0.10332
518.82784	0.10014
517.86348	0.09787
516.89911	0.09736
515.93475	0.09774
514.97038	0.09685
514.00602	0.09482
513.04166	0.09332
512.07729	0.09287
511.11293	0.09233
510.14856	0.09066
509.1842	0.08831
508.21984	0.08669
507.25547	0.08656
506.29111	0.08676
505.32674	0.08575
504.36238	0.084
503.39802	0.08289
502.43365	0.0831
501.46929	0.08358
500.50492	0.08259
499.54056	0.08087
498.5762	0.08061
497.61183	0.08186
496.64747	0.0824
495.6831	0.08147
494.71874	0.08044
493.75437	0.08031
492.79001	0.08079
491.82565	0.08111
490.86128	0.08059
489.89692	0.07956
488.93255	0.07926
487.96819	0.07987
487.00383	0.07939
486.03946	0.07679
485.0751	0.07441
484.11073	0.07476
483.14637	0.07649
482.18201	0.07607
481.21764	0.07326
480.25328	0.07136
479.28891	0.07226
478.32455	0.0731
477.36019	0.07085
476.39582	0.06731
475.43146	0.06566
474.46709	0.06535
473.50273	0.06343
472.53837	0.05914
471.574	0.05658
470.60964	0.05694
469.64527	0.05801
468.68091	0.05807
467.71655	0.05614
466.75218	0.05356
465.78782	0.05254
464.82345	0.05316
463.85909	0.05294
462.89473	0.04991
461.93036	0.04584
460.966	0.04498
460.00163	0.04703
459.03727	0.04715
458.07291	0.04377
457.10854	0.04222
456.14418	0.04503
455.17981	0.04763
454.21545	0.04697
453.25109	0.04365
452.28672	0.04269
451.32236	0.04625
450.35799	0.0495
449.39363	0.04828
448.42927	0.04378
447.4649	0.04048
446.50054	0.04179
445.53617	0.04508
444.57181	0.04515
443.60745	0.04207
442.64308	0.04127
441.67872	0.04502
440.71435	0.04766
439.74999	0.04568
438.78563	0.04267
437.82126	0.04299
436.8569	0.04564
435.89253	0.04618
434.92817	0.04301
433.96381	0.03974
432.99944	0.04003
432.03508	0.04193
431.07071	0.04056
430.10635	0.03657
429.14199	0.03488
428.17762	0.03648
427.21326	0.03772
426.24889	0.0355
425.28453	0.03105
424.32017	0.02868
423.3558	0.03036
422.39144	0.03255
421.42707	0.03053
420.46271	0.02502
419.49835	0.0191
418.53398	0.0201
417.56962	0.02376
416.60525	0.02298
415.64089	0.02074
414.67653	0.02162
413.71216	0.02578
412.7478	0.02659
411.78343	0.02117
410.81907	0.01571
409.85471	0.01544
408.89034	0.01779
407.92598	0.01694
406.96161	0.01312
405.99725	0.01174
405.03289	0.01372
404.06852	0.01441
403.10416	0.01103
402.13979	0.00607
401.17543	0.00361
400.21107	0.00361