3996.41167	0.01354
3994.4829	0.01355
3992.55413	0.01355
3990.62536	0.01356
3988.69659	0.01358
3986.76782	0.01359
3984.83905	0.01361
3982.91028	0.01362
3980.98151	0.01364
3979.05274	0.01366
3977.12397	0.01368
3975.1952	0.0137
3973.26643	0.01372
3971.33766	0.01374
3969.40889	0.01374
3967.48012	0.01378
3965.55135	0.01381
3963.62258	0.01383
3961.69381	0.01388
3959.76504	0.01396
3957.83627	0.01404
3955.9075	0.01411
3953.97873	0.01416
3952.04996	0.01423
3950.12119	0.01433
3948.19242	0.01442
3946.26365	0.01451
3944.33488	0.0146
3942.40611	0.01464
3940.47734	0.01455
3938.54857	0.01441
3936.6198	0.0143
3934.69103	0.01427
3932.76226	0.01432
3930.83349	0.01441
3928.90472	0.01442
3926.97595	0.01421
3925.04718	0.01386
3923.11841	0.01358
3921.18964	0.01344
3919.26087	0.01338
3917.3321	0.01335
3915.40333	0.01329
3913.47456	0.01323
3911.54579	0.01324
3909.61702	0.01329
3907.68825	0.0133
3905.75948	0.0133
3903.83071	0.01329
3901.90194	0.01332
3899.97317	0.01345
3898.0444	0.01363
3896.11563	0.01376
3894.18686	0.01384
3892.25809	0.01392
3890.32932	0.01403
3888.40055	0.01409
3886.47178	0.014
3884.54301	0.01374
3882.61424	0.01339
3880.68547	0.01306
3878.7567	0.01288
3876.82792	0.01275
3874.89915	0.01255
3872.97038	0.01239
3871.04161	0.01235
3869.11284	0.01242
3867.18407	0.01259
3865.2553	0.0128
3863.32653	0.01301
3861.39776	0.01317
3859.46899	0.01326
3857.54022	0.01334
3855.61145	0.01347
3853.68268	0.01366
3851.75391	0.01384
3849.82514	0.01396
3847.89637	0.01403
3845.9676	0.01402
3844.03883	0.01386
3842.11006	0.01358
3840.18129	0.01325
3838.25252	0.01298
3836.32375	0.01283
3834.39498	0.0128
3832.46621	0.01273
3830.53744	0.01252
3828.60867	0.01233
3826.6799	0.01233
3824.75113	0.01238
3822.82236	0.0124
3820.89359	0.01245
3818.96482	0.01257
3817.03605	0.01276
3815.10728	0.0129
3813.17851	0.01298
3811.24974	0.01306
3809.32097	0.01318
3807.3922	0.01334
3805.46343	0.01351
3803.53466	0.01362
3801.60589	0.0136
3799.67712	0.01345
3797.74835	0.01327
3795.81958	0.01318
3793.89081	0.01314
3791.96204	0.01302
3790.03327	0.01287
3788.1045	0.01276
3786.17573	0.01265
3784.24696	0.01252
3782.31819	0.01233
3780.38942	0.01214
3778.46065	0.01203
3776.53188	0.01209
3774.60311	0.01212
3772.67434	0.01195
3770.74557	0.0118
3768.8168	0.01178
3766.88803	0.01184
3764.95926	0.01203
3763.03049	0.01228
3761.10172	0.01256
3759.17295	0.01288
3757.24418	0.01299
3755.31541	0.01306
3753.38664	0.01331
3751.45787	0.01362
3749.5291	0.01384
3747.60033	0.01366
3745.67156	0.01328
3743.74279	0.01272
3741.81402	0.0122
3739.88525	0.01163
3737.95648	0.01103
3736.02771	0.01077
3734.09894	0.01058
3732.17017	0.0106
3730.2414	0.01053
3728.31263	0.01028
3726.38386	0.00991
3724.45509	0.00956
3722.52632	0.0093
3720.59755	0.00919
3718.66878	0.00928
3716.74001	0.00957
3714.81124	0.00972
3712.88247	0.00969
3710.9537	0.00952
3709.02493	0.00983
3707.09616	0.01051
3705.16739	0.01128
3703.23861	0.01196
3701.30984	0.0125
3699.38107	0.01295
3697.4523	0.01332
3695.52353	0.01396
3693.59476	0.01477
3691.66599	0.0158
3689.73722	0.01724
3687.80845	0.01876
3685.87968	0.02053
3683.95091	0.02225
3682.02214	0.02388
3680.09337	0.0253
3678.1646	0.02665
3676.23583	0.0283
3674.30706	0.03017
3672.37829	0.0319
3670.44952	0.03352
3668.52075	0.03522
3666.59198	0.03746
3664.66321	0.0403
3662.73444	0.04372
3660.80567	0.04735
3658.8769	0.05108
3656.94813	0.05492
3655.01936	0.05874
3653.09059	0.06219
3651.16182	0.06536
3649.23305	0.06874
3647.30428	0.07224
3645.37551	0.07598
3643.44674	0.07996
3641.51797	0.08371
3639.5892	0.08734
3637.66043	0.09091
3635.73166	0.09439
3633.80289	0.0981
3631.87412	0.10196
3629.94535	0.10581
3628.01658	0.10976
3626.08781	0.1138
3624.15904	0.11805
3622.23027	0.12264
3620.3015	0.12757
3618.37273	0.13243
3616.44396	0.13738
3614.51519	0.14244
3612.58642	0.14767
3610.65765	0.15252
3608.72888	0.15684
3606.80011	0.16111
3604.87134	0.16582
3602.94257	0.17106
3601.0138	0.17637
3599.08503	0.18154
3597.15626	0.18644
3595.22749	0.1913
3593.29872	0.19666
3591.36995	0.20205
3589.44118	0.20711
3587.51241	0.21228
3585.58364	0.21762
3583.65487	0.22324
3581.7261	0.22925
3579.79733	0.23536
3577.86856	0.24134
3575.93979	0.24726
3574.01102	0.25331
3572.08225	0.25936
3570.15348	0.26544
3568.22471	0.27122
3566.29594	0.2769
3564.36717	0.28259
3562.4384	0.28883
3560.50963	0.29564
3558.58086	0.30257
3556.65209	0.30941
3554.72332	0.31611
3552.79455	0.32262
3550.86578	0.32898
3548.93701	0.33524
3547.00824	0.34123
3545.07947	0.3468
3543.1507	0.35236
3541.22193	0.35852
3539.29316	0.3652
3537.36439	0.37205
3535.43562	0.37889
3533.50685	0.38562
3531.57807	0.39219
3529.6493	0.39873
3527.72053	0.40532
3525.79176	0.41185
3523.86299	0.41834
3521.93422	0.42516
3520.00545	0.43254
3518.07668	0.44028
3516.14791	0.44808
3514.21914	0.4558
3512.29037	0.46342
3510.3616	0.47096
3508.43283	0.47835
3506.50406	0.48548
3504.57529	0.49232
3502.64652	0.49908
3500.71775	0.50594
3498.78898	0.51287
3496.86021	0.51976
3494.93144	0.52657
3493.00267	0.5333
3491.0739	0.53987
3489.14513	0.5462
3487.21636	0.5523
3485.28759	0.55825
3483.35882	0.56411
3481.43005	0.56992
3479.50128	0.57576
3477.57251	0.58178
3475.64374	0.58793
3473.71497	0.59402
3471.7862	0.59992
3469.85743	0.60555
3467.92866	0.61106
3465.99989	0.61659
3464.07112	0.62216
3462.14235	0.62784
3460.21358	0.63356
3458.28481	0.63932
3456.35604	0.64525
3454.42727	0.65134
3452.4985	0.65752
3450.56973	0.66388
3448.64096	0.67049
3446.71219	0.67719
3444.78342	0.68371
3442.85465	0.68999
3440.92588	0.69623
3438.99711	0.70255
3437.06834	0.70894
3435.13957	0.71533
3433.2108	0.72157
3431.28203	0.7276
3429.35326	0.73346
3427.42449	0.73905
3425.49572	0.74428
3423.56695	0.74929
3421.63818	0.75437
3419.70941	0.75947
3417.78064	0.76448
3415.85187	0.76944
3413.9231	0.77445
3411.99433	0.77959
3410.06556	0.78484
3408.13679	0.79014
3406.20802	0.79551
3404.27925	0.80096
3402.35048	0.80636
3400.42171	0.8116
3398.49294	0.8167
3396.56417	0.82181
3394.6354	0.82708
3392.70663	0.83238
3390.77786	0.83755
3388.84909	0.84256
3386.92032	0.84748
3384.99155	0.85233
3383.06278	0.85705
3381.13401	0.86157
3379.20524	0.86588
3377.27647	0.87001
3375.3477	0.87396
3373.41893	0.87777
3371.49016	0.88148
3369.56139	0.88508
3367.63262	0.88866
3365.70385	0.89222
3363.77508	0.89562
3361.84631	0.89879
3359.91753	0.90181
3357.98876	0.90474
3356.05999	0.90751
3354.13122	0.91013
3352.20245	0.91257
3350.27368	0.91478
3348.34491	0.91669
3346.41614	0.91833
3344.48737	0.91973
3342.5586	0.92091
3340.62983	0.92186
3338.70106	0.92259
3336.77229	0.92305
3334.84352	0.92313
3332.91475	0.92281
3330.98598	0.92224
3329.05721	0.92164
3327.12844	0.92112
3325.19967	0.92061
3323.2709	0.92009
3321.34213	0.91957
3319.41336	0.91905
3317.48459	0.91854
3315.55582	0.91813
3313.62705	0.91785
3311.69828	0.91776
3309.76951	0.91785
3307.84074	0.91808
3305.91197	0.91838
3303.9832	0.91874
3302.05443	0.91913
3300.12566	0.9195
3298.19689	0.91981
3296.26812	0.92
3294.33935	0.92013
3292.41058	0.92021
3290.48181	0.92011
3288.55304	0.91973
3286.62427	0.91913
3284.6955	0.91845
3282.76673	0.9177
3280.83796	0.91683
3278.90919	0.91579
3276.98042	0.91453
3275.05165	0.91303
3273.12288	0.91138
3271.19411	0.90965
3269.26534	0.90781
3267.33657	0.90584
3265.4078	0.90379
3263.47903	0.90163
3261.55026	0.89928
3259.62149	0.89666
3257.69272	0.89371
3255.76395	0.89043
3253.83518	0.88684
3251.90641	0.88297
3249.97764	0.87892
3248.04887	0.87475
3246.1201	0.87038
3244.19133	0.8657
3242.26256	0.86071
3240.33379	0.85551
3238.40502	0.85016
3236.47625	0.8447
3234.54748	0.83922
3232.61871	0.83368
3230.68994	0.82807
3228.76117	0.82249
3226.8324	0.817
3224.90363	0.81157
3222.97486	0.80613
3221.04609	0.80066
3219.11732	0.79518
3217.18855	0.7897
3215.25978	0.78417
3213.33101	0.77863
3211.40224	0.77309
3209.47347	0.76754
3207.5447	0.76197
3205.61593	0.75643
3203.68716	0.75092
3201.75839	0.74529
3199.82962	0.7394
3197.90085	0.73328
3195.97208	0.72699
3194.04331	0.72056
3192.11454	0.71391
3190.18577	0.707
3188.257	0.69988
3186.32822	0.69256
3184.39945	0.68511
3182.47068	0.67757
3180.54191	0.66993
3178.61314	0.66215
3176.68437	0.65423
3174.7556	0.6462
3172.82683	0.63819
3170.89806	0.6303
3168.96929	0.6225
3167.04052	0.61476
3165.11175	0.60706
3163.18298	0.59942
3161.25421	0.59191
3159.32544	0.58455
3157.39667	0.57718
3155.4679	0.56974
3153.53913	0.5623
3151.61036	0.55497
3149.68159	0.54769
3147.75282	0.5404
3145.82405	0.53305
3143.89528	0.52569
3141.96651	0.51839
3140.03774	0.5112
3138.10897	0.5041
3136.1802	0.49716
3134.25143	0.49038
3132.32266	0.48368
3130.39389	0.47704
3128.46512	0.47043
3126.53635	0.46386
3124.60758	0.45725
3122.67881	0.4506
3120.75004	0.44395
3118.82127	0.43735
3116.8925	0.43078
3114.96373	0.42425
3113.03496	0.41775
3111.10619	0.41129
3109.17742	0.40494
3107.24865	0.39873
3105.31988	0.39265
3103.39111	0.38666
3101.46234	0.38083
3099.53357	0.3752
3097.6048	0.36983
3095.67603	0.36468
3093.74726	0.35974
3091.81849	0.35504
3089.88972	0.35056
3087.96095	0.34624
3086.03218	0.34204
3084.10341	0.33796
3082.17464	0.33396
3080.24587	0.32995
3078.3171	0.32595
3076.38833	0.32208
3074.45956	0.31835
3072.53079	0.31471
3070.60202	0.3111
3068.67325	0.30755
3066.74448	0.30414
3064.81571	0.30089
3062.88694	0.29778
3060.95817	0.29478
3059.0294	0.29182
3057.10063	0.28891
3055.17186	0.28608
3053.24309	0.28331
3051.31432	0.28057
3049.38555	0.27782
3047.45678	0.275
3045.52801	0.2721
3043.59924	0.26911
3041.67047	0.26609
3039.7417	0.26307
3037.81293	0.25998
3035.88416	0.25677
3033.95539	0.25351
3032.02662	0.25034
3030.09785	0.24727
3028.16908	0.24425
3026.24031	0.24124
3024.31154	0.23827
3022.38277	0.23542
3020.454	0.23271
3018.52523	0.23013
3016.59646	0.2277
3014.66768	0.22545
3012.73891	0.22333
3010.81014	0.2213
3008.88137	0.21935
3006.9526	0.21749
3005.02383	0.21572
3003.09506	0.21407
3001.16629	0.21259
2999.23752	0.21134
2997.30875	0.21037
2995.37998	0.20972
2993.45121	0.20937
2991.52244	0.20927
2989.59367	0.20943
2987.6649	0.20982
2985.73613	0.21035
2983.80736	0.21096
2981.87859	0.21165
2979.94982	0.21247
2978.02105	0.21347
2976.09228	0.21468
2974.16351	0.21616
2972.23474	0.218
2970.30597	0.22036
2968.3772	0.22336
2966.44843	0.22701
2964.51966	0.23135
2962.59089	0.23645
2960.66212	0.24232
2958.73335	0.24893
2956.80458	0.2562
2954.87581	0.26396
2952.94704	0.27203
2951.01827	0.28024
2949.0895	0.28834
2947.16073	0.2961
2945.23196	0.30328
2943.30319	0.3096
2941.37442	0.31477
2939.44565	0.31872
2937.51688	0.32148
2935.58811	0.32309
2933.65934	0.32356
2931.73057	0.32291
2929.8018	0.32122
2927.87303	0.31868
2925.94426	0.31553
2924.01549	0.31197
2922.08672	0.30816
2920.15795	0.30428
2918.22918	0.30051
2916.30041	0.29698
2914.37164	0.29371
2912.44287	0.29069
2910.5141	0.28792
2908.58533	0.28538
2906.65656	0.28304
2904.72779	0.28083
2902.79902	0.27865
2900.87025	0.27642
2898.94148	0.27404
2897.01271	0.27146
2895.08394	0.26872
2893.15517	0.26587
2891.2264	0.26286
2889.29763	0.25966
2887.36886	0.2562
2885.44009	0.25244
2883.51132	0.24841
2881.58255	0.24421
2879.65378	0.23989
2877.72501	0.23544
2875.79624	0.23091
2873.86747	0.22638
2871.9387	0.22195
2870.00993	0.21762
2868.08116	0.21339
2866.15239	0.20929
2864.22362	0.20535
2862.29485	0.2016
2860.36608	0.19809
2858.43731	0.19485
2856.50854	0.19189
2854.57977	0.18919
2852.651	0.18675
2850.72223	0.18459
2848.79346	0.18269
2846.86469	0.18098
2844.93592	0.17944
2843.00714	0.1781
2841.07837	0.1769
2839.1496	0.1758
2837.22083	0.17474
2835.29206	0.17369
2833.36329	0.1726
2831.43452	0.17146
2829.50575	0.1702
2827.57698	0.16877
2825.64821	0.16719
2823.71944	0.16549
2821.79067	0.16369
2819.8619	0.16185
2817.93313	0.16001
2816.00436	0.15814
2814.07559	0.15626
2812.14682	0.15443
2810.21805	0.1527
2808.28928	0.15102
2806.36051	0.14936
2804.43174	0.14775
2802.50297	0.14623
2800.5742	0.14479
2798.64543	0.14345
2796.71666	0.14224
2794.78789	0.14117
2792.85912	0.14017
2790.93035	0.13919
2789.00158	0.13824
2787.07281	0.13736
2785.14404	0.13652
2783.21527	0.13564
2781.2865	0.13473
2779.35773	0.13384
2777.42896	0.13302
2775.50019	0.13224
2773.57142	0.13149
2771.64265	0.13074
2769.71388	0.13
2767.78511	0.12931
2765.85634	0.1287
2763.92757	0.12808
2761.9988	0.12739
2760.07003	0.12665
2758.14126	0.12591
2756.21249	0.12517
2754.28372	0.12439
2752.35495	0.12357
2750.42618	0.12278
2748.49741	0.12202
2746.56864	0.12128
2744.63987	0.12056
2742.7111	0.11984
2740.78233	0.11911
2738.85356	0.11837
2736.92479	0.11765
2734.99602	0.11694
2733.06725	0.11624
2731.13848	0.11557
2729.20971	0.11491
2727.28094	0.11428
2725.35217	0.11369
2723.4234	0.11311
2721.49463	0.11249
2719.56586	0.1118
2717.63709	0.11107
2715.70832	0.11032
2713.77955	0.10959
2711.85078	0.10884
2709.92201	0.10804
2707.99324	0.10719
2706.06447	0.10631
2704.1357	0.10545
2702.20693	0.10471
2700.27816	0.10407
2698.34939	0.10347
2696.42062	0.10289
2694.49185	0.10233
2692.56308	0.1018
2690.63431	0.10127
2688.70554	0.1007
2686.77677	0.10016
2684.848	0.09963
2682.91923	0.09908
2680.99046	0.0985
2679.06169	0.09787
2677.13292	0.09719
2675.20415	0.09646
2673.27538	0.09571
2671.34661	0.09494
2669.41783	0.09415
2667.48906	0.0933
2665.56029	0.09243
2663.63152	0.09151
2661.70275	0.09055
2659.77398	0.0896
2657.84521	0.08873
2655.91644	0.08794
2653.98767	0.0872
2652.0589	0.08647
2650.13013	0.08572
2648.20136	0.08496
2646.27259	0.08418
2644.34382	0.08336
2642.41505	0.08252
2640.48628	0.08165
2638.55751	0.08076
2636.62874	0.07988
2634.69997	0.079
2632.7712	0.0781
2630.84243	0.07719
2628.91366	0.07627
2626.98489	0.07538
2625.05612	0.07451
2623.12735	0.07366
2621.19858	0.07282
2619.26981	0.07198
2617.34104	0.07115
2615.41227	0.07036
2613.4835	0.06965
2611.55473	0.06896
2609.62596	0.06828
2607.69719	0.06765
2605.76842	0.0671
2603.83965	0.06664
2601.91088	0.06625
2599.98211	0.06587
2598.05334	0.06549
2596.12457	0.06514
2594.1958	0.06484
2592.26703	0.06462
2590.33826	0.06447
2588.40949	0.06436
2586.48072	0.06422
2584.55195	0.06408
2582.62318	0.06395
2580.69441	0.06385
2578.76564	0.06375
2576.83687	0.06365
2574.9081	0.06353
2572.97933	0.06339
2571.05056	0.06323
2569.12179	0.06305
2567.19302	0.06284
2565.26425	0.0626
2563.33548	0.06237
2561.40671	0.06216
2559.47794	0.06195
2557.54917	0.06172
2555.6204	0.06147
2553.69163	0.06121
2551.76286	0.06095
2549.83409	0.06067
2547.90532	0.06037
2545.97655	0.06006
2544.04778	0.05973
2542.11901	0.05936
2540.19024	0.05899
2538.26147	0.05869
2536.3327	0.05845
2534.40393	0.05824
2532.47516	0.05804
2530.54639	0.05786
2528.61762	0.05769
2526.68885	0.05752
2524.76008	0.05736
2522.83131	0.05718
2520.90254	0.05697
2518.97377	0.05672
2517.045	0.05645
2515.11623	0.05614
2513.18746	0.05579
2511.25869	0.05545
2509.32992	0.05512
2507.40115	0.05477
2505.47238	0.0544
2503.54361	0.05403
2501.61484	0.0537
2499.68607	0.05338
2497.75729	0.05308
2495.82852	0.05282
2493.89975	0.05265
2491.97098	0.05257
2490.04221	0.05252
2488.11344	0.05244
2486.18467	0.05233
2484.2559	0.0522
2482.32713	0.05208
2480.39836	0.05199
2478.46959	0.05195
2476.54082	0.0519
2474.61205	0.0518
2472.68328	0.05167
2470.75451	0.05154
2468.82574	0.05141
2466.89697	0.05124
2464.9682	0.05105
2463.03943	0.05089
2461.11066	0.05077
2459.18189	0.05067
2457.25312	0.05059
2455.32435	0.05049
2453.39558	0.05033
2451.46681	0.05011
2449.53804	0.04987
2447.60927	0.04965
2445.6805	0.04943
2443.75173	0.04917
2441.82296	0.04885
2439.89419	0.04851
2437.96542	0.0482
2436.03665	0.04794
2434.10788	0.04775
2432.17911	0.04759
2430.25034	0.04742
2428.32157	0.04726
2426.3928	0.04714
2424.46403	0.04705
2422.53526	0.04696
2420.60649	0.04688
2418.67772	0.04683
2416.74895	0.04684
2414.82018	0.04688
2412.89141	0.04693
2410.96264	0.04699
2409.03387	0.04703
2407.1051	0.04703
2405.17633	0.04702
2403.24756	0.04701
2401.31879	0.04702
2399.39002	0.04702
2397.46125	0.04701
2395.53248	0.04699
2393.60371	0.04698
2391.67494	0.04698
2389.74617	0.04698
2387.8174	0.04699
2385.88863	0.04699
2383.95986	0.04699
2382.03109	0.04699
2380.10232	0.04699
2378.17355	0.04699
2376.24478	0.04699
2374.31601	0.04699
2372.38724	0.04699
2370.45847	0.04699
2368.5297	0.04699
2366.60093	0.04699
2364.67216	0.04699
2362.74339	0.04699
2360.81462	0.04699
2358.88585	0.04699
2356.95708	0.04699
2355.02831	0.04699
2353.09954	0.04699
2351.17077	0.04699
2349.242	0.04699
2347.31323	0.04699
2345.38446	0.04699
2343.45569	0.04699
2341.52692	0.04699
2339.59815	0.04699
2337.66938	0.04699
2335.74061	0.04699
2333.81184	0.04699
2331.88307	0.04699
2329.9543	0.04699
2328.02553	0.04699
2326.09675	0.04699
2324.16798	0.04699
2322.23921	0.04699
2320.31044	0.04699
2318.38167	0.04699
2316.4529	0.04699
2314.52413	0.04699
2312.59536	0.04699
2310.66659	0.04699
2308.73782	0.04699
2306.80905	0.04699
2304.88028	0.04699
2302.95151	0.04699
2301.02274	0.04699
2299.09397	0.04699
2297.1652	0.04699
2295.23643	0.04699
2293.30766	0.04699
2291.37889	0.04699
2289.45012	0.04699
2287.52135	0.04699
2285.59258	0.04699
2283.66381	0.04699
2281.73504	0.04699
2279.80627	0.04729
2277.8775	0.04756
2275.94873	0.04767
2274.01996	0.04763
2272.09119	0.04744
2270.16242	0.04709
2268.23365	0.04664
2266.30488	0.0461
2264.37611	0.04549
2262.44734	0.04479
2260.51857	0.04403
2258.5898	0.04327
2256.66103	0.04253
2254.73226	0.04181
2252.80349	0.04108
2250.87472	0.04039
2248.94595	0.03978
2247.01718	0.03924
2245.08841	0.03875
2243.15964	0.03838
2241.23087	0.03818
2239.3021	0.03809
2237.37333	0.03808
2235.44456	0.03824
2233.51579	0.0386
2231.58702	0.03873
2229.65825	0.03877
2227.72948	0.03882
2225.80071	0.03885
2223.87194	0.03878
2221.94317	0.03867
2220.0144	0.0385
2218.08563	0.03825
2216.15686	0.038
2214.22809	0.03784
2212.29932	0.03779
2210.37055	0.0378
2208.44178	0.03782
2206.51301	0.03788
2204.58424	0.038
2202.65547	0.03811
2200.7267	0.03814
2198.79793	0.03816
2196.86916	0.03824
2194.94039	0.03832
2193.01162	0.03838
2191.08285	0.03844
2189.15408	0.0385
2187.22531	0.0385
2185.29654	0.03849
2183.36777	0.03852
2181.439	0.03846
2179.51023	0.03815
2177.58146	0.03766
2175.65269	0.0371
2173.72392	0.03648
2171.79515	0.03583
2169.86638	0.03522
2167.93761	0.03472
2166.00884	0.03438
2164.08007	0.03417
2162.1513	0.03402
2160.22253	0.03396
2158.29376	0.034
2156.36499	0.03414
2154.43622	0.03439
2152.50744	0.0348
2150.57867	0.03537
2148.6499	0.03607
2146.72113	0.03684
2144.79236	0.03762
2142.86359	0.03837
2140.93482	0.03915
2139.00605	0.03998
2137.07728	0.04078
2135.14851	0.04143
2133.21974	0.04196
2131.29097	0.04247
2129.3622	0.04294
2127.43343	0.04328
2125.50466	0.04352
2123.57589	0.04376
2121.64712	0.04399
2119.71835	0.04414
2117.78958	0.04416
2115.86081	0.04406
2113.93204	0.04394
2112.00327	0.04382
2110.0745	0.04366
2108.14573	0.04346
2106.21696	0.04329
2104.28819	0.04317
2102.35942	0.04303
2100.43065	0.04283
2098.50188	0.0426
2096.57311	0.04237
2094.64434	0.04218
2092.71557	0.04203
2090.7868	0.04192
2088.85803	0.04184
2086.92926	0.0417
2085.00049	0.04146
2083.07172	0.04113
2081.14295	0.04078
2079.21418	0.04047
2077.28541	0.04017
2075.35664	0.03981
2073.42787	0.03936
2071.4991	0.03891
2069.57033	0.03847
2067.64156	0.03798
2065.71279	0.03737
2063.78402	0.03667
2061.85525	0.03597
2059.92648	0.0353
2057.99771	0.03466
2056.06894	0.03406
2054.14017	0.03344
2052.2114	0.03273
2050.28263	0.03198
2048.35386	0.0312
2046.42509	0.03042
2044.49632	0.02968
2042.56755	0.02892
2040.63878	0.0281
2038.71001	0.02726
2036.78124	0.0265
2034.85247	0.02576
2032.9237	0.025
2030.99493	0.02421
2029.06616	0.02348
2027.13739	0.02281
2025.20862	0.02215
2023.27985	0.02147
2021.35108	0.02079
2019.42231	0.02016
2017.49354	0.01966
2015.56477	0.01931
2013.636	0.01906
2011.70723	0.01893
2009.77846	0.01887
2007.84969	0.01878
2005.92092	0.01872
2003.99215	0.01882
2002.06338	0.01903
2000.13461	0.01922
1998.20584	0.01935
1996.27707	0.0194
1994.3483	0.0193
1992.41953	0.01904
1990.49076	0.01862
1988.56199	0.01803
1986.63322	0.01738
1984.70445	0.01683
1982.77568	0.01638
1980.8469	0.01593
1978.91813	0.01547
1976.98936	0.01509
1975.06059	0.01486
1973.13182	0.0148
1971.20305	0.01488
1969.27428	0.01511
1967.34551	0.01552
1965.41674	0.01613
1963.48797	0.01684
1961.5592	0.01762
1959.63043	0.01849
1957.70166	0.01939
1955.77289	0.02019
1953.84412	0.02084
1951.91535	0.02138
1949.98658	0.02184
1948.05781	0.0222
1946.12904	0.02247
1944.20027	0.02266
1942.2715	0.02275
1940.34273	0.0228
1938.41396	0.02283
1936.48519	0.02282
1934.55642	0.02275
1932.62765	0.02266
1930.69888	0.02256
1928.77011	0.02246
1926.84134	0.02239
1924.91257	0.02238
1922.9838	0.02241
1921.05503	0.02245
1919.12626	0.02241
1917.19749	0.02226
1915.26872	0.02205
1913.33995	0.02181
1911.41118	0.02155
1909.48241	0.02124
1907.55364	0.02088
1905.62487	0.0205
1903.6961	0.02015
1901.76733	0.01982
1899.83856	0.0195
1897.90979	0.01917
1895.98102	0.01885
1894.05225	0.01857
1892.12348	0.0183
1890.19471	0.01797
1888.26594	0.01757
1886.33717	0.01715
1884.4084	0.01676
1882.47963	0.01642
1880.55086	0.01612
1878.62209	0.01582
1876.69332	0.0155
1874.76455	0.01515
1872.83578	0.0148
1870.90701	0.01446
1868.97824	0.01414
1867.04947	0.01382
1865.1207	0.01346
1863.19193	0.01312
1861.26316	0.01284
1859.33439	0.01261
1857.40562	0.01245
1855.47685	0.01236
1853.54808	0.01234
1851.61931	0.01233
1849.69054	0.0123
1847.76177	0.01224
1845.833	0.01214
1843.90423	0.01207
1841.97546	0.01209
1840.04669	0.01222
1838.11792	0.01241
1836.18915	0.01265
1834.26038	0.01289
1832.33161	0.01317
1830.40284	0.01365
1828.47407	0.0145
1826.5453	0.01576
1824.61653	0.0174
1822.68776	0.01948
1820.75899	0.02239
1818.83022	0.02647
1816.90145	0.03171
1814.97268	0.038
1813.04391	0.04579
1811.11514	0.05574
1809.18636	0.068
1807.25759	0.08252
1805.32882	0.09935
1803.40005	0.1184
1801.47128	0.13919
1799.54251	0.16092
1797.61374	0.18241
1795.68497	0.20241
1793.7562	0.2208
1791.82743	0.23841
1789.89866	0.25561
1787.96989	0.27201
1786.04112	0.28701
1784.11235	0.30018
1782.18358	0.31123
1780.25481	0.31991
1778.32604	0.32613
1776.39727	0.33006
1774.4685	0.33186
1772.53973	0.33149
1770.61096	0.32906
1768.68219	0.32522
1766.75342	0.32086
1764.82465	0.31635
1762.89588	0.31167
1760.96711	0.30705
1759.03834	0.3026
1757.10957	0.29784
1755.1808	0.29242
1753.25203	0.28633
1751.32326	0.2797
1749.39449	0.27322
1747.46572	0.26834
1745.53695	0.2661
1743.60818	0.26627
1741.67941	0.26811
1739.75064	0.27131
1737.82187	0.27599
1735.8931	0.28193
1733.96433	0.28841
1732.03556	0.29468
1730.10679	0.30002
1728.17802	0.30392
1726.24925	0.30623
1724.32048	0.30695
1722.39171	0.30611
1720.46294	0.30388
1718.53417	0.30049
1716.6054	0.29612
1714.67663	0.29081
1712.74786	0.28448
1710.81909	0.27723
1708.89032	0.26946
1706.96155	0.2614
1705.03278	0.25354
1703.10401	0.2467
1701.17524	0.24143
1699.24647	0.23792
1697.3177	0.23611
1695.38893	0.2359
1693.46016	0.23715
1691.53139	0.23957
1689.60262	0.24264
1687.67385	0.24576
1685.74508	0.24835
1683.81631	0.25015
1681.88754	0.25131
1679.95877	0.2522
1678.03	0.25307
1676.10123	0.25429
1674.17246	0.25614
1672.24369	0.2583
1670.31492	0.26009
1668.38615	0.26095
1666.45738	0.26061
1664.52861	0.25908
1662.59984	0.25632
1660.67107	0.25242
1658.7423	0.24781
1656.81353	0.24284
1654.88476	0.23755
1652.95599	0.23188
1651.02722	0.22589
1649.09845	0.21965
1647.16968	0.21314
1645.24091	0.20647
1643.31214	0.19977
1641.38337	0.19289
1639.4546	0.1857
1637.52583	0.17858
1635.59705	0.17214
1633.66828	0.16671
1631.73951	0.16237
1629.81074	0.15906
1627.88197	0.15644
1625.9532	0.15398
1624.02443	0.15134
1622.09566	0.14844
1620.16689	0.14537
1618.23812	0.14217
1616.30935	0.13877
1614.38058	0.13515
1612.45181	0.13145
1610.52304	0.12798
1608.59427	0.12478
1606.6655	0.12161
1604.73673	0.11825
1602.80796	0.11463
1600.87919	0.11062
1598.95042	0.10614
1597.02165	0.10128
1595.09288	0.09614
1593.16411	0.09078
1591.23534	0.08547
1589.30657	0.08052
1587.3778	0.0761
1585.44903	0.07233
1583.52026	0.06915
1581.59149	0.06632
1579.66272	0.06393
1577.73395	0.06225
1575.80518	0.06138
1573.87641	0.06125
1571.94764	0.06179
1570.01887	0.06295
1568.0901	0.06461
1566.16133	0.06657
1564.23256	0.06855
1562.30379	0.07044
1560.37502	0.07238
1558.44625	0.07432
1556.51748	0.07597
1554.58871	0.07724
1552.65994	0.07842
1550.73117	0.07981
1548.8024	0.08149
1546.87363	0.08345
1544.94486	0.08572
1543.01609	0.08822
1541.08732	0.09065
1539.15855	0.09268
1537.22978	0.09401
1535.30101	0.09455
1533.37224	0.09455
1531.44347	0.09404
1529.5147	0.0927
1527.58593	0.09041
1525.65716	0.08725
1523.72839	0.08327
1521.79962	0.07843
1519.87085	0.07268
1517.94208	0.06621
1516.01331	0.05943
1514.08454	0.05257
1512.15577	0.04544
1510.227	0.03826
1508.29823	0.03178
1506.36946	0.02659
1504.44069	0.02292
1502.51192	0.02091
1500.58315	0.02049
1498.65438	0.02125
1496.72561	0.02257
1494.79684	0.0241
1492.86807	0.02596
1490.9393	0.02826
1489.01053	0.03085
1487.08176	0.03361
1485.15299	0.03667
1483.22422	0.04007
1481.29545	0.04358
1479.36668	0.04699
1477.43791	0.05053
1475.50914	0.05432
1473.58037	0.05822
1471.6516	0.06205
1469.72283	0.06572
1467.79406	0.06926
1465.86529	0.07294
1463.93651	0.07714
1462.00774	0.08193
1460.07897	0.08701
1458.1502	0.0921
1456.22143	0.09708
1454.29266	0.1016
1452.36389	0.10527
1450.43512	0.10798
1448.50635	0.10998
1446.57758	0.11158
1444.64881	0.11275
1442.72004	0.11327
1440.79127	0.11329
1438.8625	0.11333
1436.93373	0.11356
1435.00496	0.11399
1433.07619	0.11511
1431.14742	0.11749
1429.21865	0.12094
1427.28988	0.12506
1425.36111	0.1298
1423.43234	0.13529
1421.50357	0.14156
1419.5748	0.1484
1417.64603	0.15548
1415.71726	0.16252
1413.78849	0.16938
1411.85972	0.17598
1409.93095	0.18225
1408.00218	0.18806
1406.07341	0.19331
1404.14464	0.19783
1402.21587	0.20141
1400.2871	0.20399
1398.35833	0.20572
1396.42956	0.20691
1394.50079	0.20809
1392.57202	0.20962
1390.64325	0.21133
1388.71448	0.21286
1386.78571	0.2139
1384.85694	0.21408
1382.92817	0.21301
1380.9994	0.21062
1379.07063	0.20697
1377.14186	0.20219
1375.21309	0.19649
1373.28432	0.19024
1371.35555	0.18383
1369.42678	0.17756
1367.49801	0.17161
1365.56924	0.16601
1363.64047	0.16078
1361.7117	0.15609
1359.78293	0.15229
1357.85416	0.14983
1355.92539	0.14918
1353.99662	0.15094
1352.06785	0.15562
1350.13908	0.16344
1348.21031	0.17406
1346.28154	0.18668
1344.35277	0.20026
1342.424	0.21378
1340.49523	0.22635
1338.56646	0.23723
1336.63769	0.24591
1334.70892	0.25206
1332.78015	0.25556
1330.85138	0.25653
1328.92261	0.25523
1326.99384	0.25194
1325.06507	0.24693
1323.1363	0.24046
1321.20753	0.23281
1319.27876	0.22423
1317.34999	0.21499
1315.42122	0.20544
1313.49245	0.19597
1311.56368	0.1868
1309.63491	0.17808
1307.70614	0.17
1305.77737	0.16269
1303.8486	0.15608
1301.91983	0.14989
1299.99106	0.14375
1298.06229	0.13737
1296.13352	0.13054
1294.20475	0.12321
1292.27597	0.11547
1290.3472	0.10754
1288.41843	0.09968
1286.48966	0.09212
1284.56089	0.08511
1282.63212	0.07902
1280.70335	0.07431
1278.77458	0.07134
1276.84581	0.0702
1274.91704	0.07075
1272.98827	0.0728
1271.0595	0.07617
1269.13073	0.08062
1267.20196	0.08581
1265.27319	0.09137
1263.34442	0.09698
1261.41565	0.1024
1259.48688	0.10741
1257.55811	0.11194
1255.62934	0.11606
1253.70057	0.11987
1251.7718	0.12337
1249.84303	0.12635
1247.91426	0.12858
1245.98549	0.12983
1244.05672	0.12989
1242.12795	0.12858
1240.19918	0.12596
1238.27041	0.1223
1236.34164	0.1181
1234.41287	0.11385
1232.4841	0.1099
1230.55533	0.10648
1228.62656	0.10378
1226.69779	0.10191
1224.76902	0.10076
1222.84025	0.09995
1220.91148	0.09906
1218.98271	0.09778
1217.05394	0.09601
1215.12517	0.09383
1213.1964	0.0914
1211.26763	0.08887
1209.33886	0.08627
1207.41009	0.08341
1205.48132	0.07987
1203.55255	0.07527
1201.62378	0.06939
1199.69501	0.06223
1197.76624	0.05395
1195.83747	0.04489
1193.9087	0.03545
1191.97993	0.02606
1190.05116	0.01717
1188.12239	0.00934
1186.19362	0.00332
1184.26485	0
1182.33608	3.10664E-4
1180.40731	0.0051
1178.47854	0.01499
1176.54977	0.03023
1174.621	0.05055
1172.69223	0.07523
1170.76346	0.10322
1168.83469	0.13329
1166.90592	0.16411
1164.97715	0.19427
1163.04838	0.22234
1161.11961	0.24702
1159.19084	0.26728
1157.26207	0.28237
1155.3333	0.29187
1153.40453	0.29564
1151.47576	0.29384
1149.54699	0.28678
1147.61822	0.27493
1145.68945	0.25893
1143.76068	0.2398
1141.83191	0.21889
1139.90314	0.1979
1137.97437	0.17861
1136.0456	0.16254
1134.11683	0.15068
1132.18806	0.14336
1130.25929	0.14036
1128.33052	0.14124
1126.40175	0.14559
1124.47298	0.15304
1122.54421	0.16307
1120.61544	0.17487
1118.68666	0.18736
1116.75789	0.19939
1114.82912	0.21007
1112.90035	0.21886
1110.97158	0.22554
1109.04281	0.23026
1107.11404	0.23352
1105.18527	0.23622
1103.2565	0.23972
1101.32773	0.24555
1099.39896	0.25519
1097.47019	0.26952
1095.54142	0.28823
1093.61265	0.30973
1091.68388	0.33201
1089.75511	0.3534
1087.82634	0.37288
1085.89757	0.39007
1083.9688	0.40505
1082.04003	0.41809
1080.11126	0.42948
1078.18249	0.4394
1076.25372	0.44773
1074.32495	0.45421
1072.39618	0.45856
1070.46741	0.46077
1068.53864	0.4613
1066.60987	0.46094
1064.6811	0.46071
1062.75233	0.46165
1060.82356	0.46482
1058.89479	0.47128
1056.96602	0.4819
1055.03725	0.4972
1053.10848	0.51708
1051.17971	0.54073
1049.25094	0.56691
1047.32217	0.59478
1045.3934	0.62432
1043.46463	0.65605
1041.53586	0.69028
1039.60709	0.72669
1037.67832	0.7644
1035.74955	0.80234
1033.82078	0.83936
1031.89201	0.87419
1029.96324	0.90557
1028.03447	0.93254
1026.1057	0.95468
1024.17693	0.97206
1022.24816	0.98495
1020.31939	0.99372
1018.39062	0.99869
1016.46185	1
1014.53308	0.99743
1012.60431	0.99041
1010.67554	0.97846
1008.74677	0.96159
1006.818	0.94034
1004.88923	0.91551
1002.96046	0.88796
1001.03169	0.85837
999.10292	0.82703
997.17415	0.79374
995.24538	0.75803
993.31661	0.71928
991.38784	0.67711
989.45907	0.63142
987.5303	0.58231
985.60153	0.53024
983.67276	0.47615
981.74399	0.42149
979.81522	0.36797
977.88645	0.31713
975.95768	0.27021
974.02891	0.22818
972.10014	0.19169
970.17137	0.16115
968.2426	0.13691
966.31383	0.11936
964.38506	0.10859
962.45629	0.10418
960.52752	0.10532
958.59875	0.11105
956.66998	0.12049
954.74121	0.13286
952.81244	0.14724
950.88367	0.16255
948.9549	0.17768
947.02612	0.19169
945.09735	0.20387
943.16858	0.21372
941.23981	0.22082
939.31104	0.22485
937.38227	0.22551
935.4535	0.2226
933.52473	0.21598
931.59596	0.20561
929.66719	0.1916
927.73842	0.17442
925.80965	0.15501
923.88088	0.13477
921.95211	0.11515
920.02334	0.09709
918.09457	0.08077
916.1658	0.06596
914.23703	0.05254
912.30826	0.04059
910.37949	0.0305
908.45072	0.02289
906.52195	0.01803
904.59318	0.01546
902.66441	0.01447
900.73564	0.01454
898.80687	0.01549
896.8781	0.01728
894.94933	0.01991
893.02056	0.02332
891.09179	0.0274
889.16302	0.03196
887.23425	0.03684
885.30548	0.04191
883.37671	0.04709
881.44794	0.05234
879.51917	0.05752
877.5904	0.06241
875.66163	0.06679
873.73286	0.07049
871.80409	0.0734
869.87532	0.07543
867.94655	0.07665
866.01778	0.07738
864.08901	0.07815
862.16024	0.07933
860.23147	0.08061
858.3027	0.08126
856.37393	0.08079
854.44516	0.07911
852.51639	0.07639
850.58762	0.0728
848.65885	0.06848
846.73008	0.06357
844.80131	0.05825
842.87254	0.05282
840.94377	0.04764
839.015	0.04299
837.08623	0.03903
835.15746	0.03568
833.22869	0.03273
831.29992	0.02993
829.37115	0.02714
827.44238	0.02432
825.51361	0.02149
823.58484	0.01876
821.65607	0.01628
819.7273	0.01414
817.79853	0.01245
815.86976	0.01122
813.94099	0.0104
812.01222	0.0099
810.08345	0.0096
808.15468	0.00944
806.22591	0.00939
804.29714	0.00944
802.36837	0.00963
800.4396	0.01014
798.51083	0.01124
796.58206	0.01307
794.65329	0.01561
792.72452	0.01865
790.79575	0.022
788.86698	0.02552
786.93821	0.02924
785.00944	0.03327
783.08067	0.03781
781.1519	0.04308
779.22313	0.04934
777.29436	0.05672
775.36558	0.06505
773.43681	0.07395
771.50804	0.08291
769.57927	0.09159
767.6505	0.09981
765.72173	0.10747
763.79296	0.11434
761.86419	0.12006
759.93542	0.12438
758.00665	0.12716
756.07788	0.12843
754.14911	0.12833
752.22034	0.12693
750.29157	0.12425
748.3628	0.12029
746.43403	0.11512
744.50526	0.10904
742.57649	0.10233
740.64772	0.0955
738.71895	0.08899
736.79018	0.08314
734.86141	0.07827
732.93264	0.07466
731.00387	0.07241
729.0751	0.07147
727.14633	0.07177
725.21756	0.07335
723.28879	0.07624
721.36002	0.08033
719.43125	0.08529
717.50248	0.0906
715.57371	0.09586
713.64494	0.10083
711.71617	0.10534
709.7874	0.10932
707.85863	0.11273
705.92986	0.11558
704.00109	0.11783
702.07232	0.11943
700.14355	0.12035
698.21478	0.1206
696.28601	0.11971
694.35724	0.11714
692.42847	0.11546
690.4997	0.11663
688.57093	0.11324
686.64216	0.11001
684.71339	0.10793
682.78462	0.10628
680.85585	0.10499
678.92708	0.10418
676.99831	0.10359
675.06954	0.10315
673.14077	0.10276
671.212	0.10234
669.28323	0.10194
667.35446	0.10155
665.42569	0.10115
663.49692	0.10074
661.56815	0.10033
659.63938	0.09989
657.71061	0.09934
655.78184	0.09868
653.85307	0.09788
651.9243	0.09688
649.99553	0.09559
648.06676	0.09455
646.13799	0.09515
644.20922	0.09501
642.28045	0.09032
640.35168	0.08873
638.42291	0.08746
636.49414	0.08577
634.56537	0.08445
632.6366	0.08393
630.70783	0.08427
628.77906	0.08564
626.85029	0.08794
624.92152	0.09101
622.99275	0.09464
621.06398	0.09851
619.13521	0.10248
617.20644	0.10651
615.27767	0.1106
613.3489	0.11479
611.42013	0.1191
609.49136	0.1235
607.56259	0.1279
605.63382	0.13226
603.70505	0.13656
601.77627	0.14089
599.8475	0.14531
597.91873	0.14978
595.98996	0.15423
594.06119	0.15853
592.13242	0.16266
590.20365	0.16654
588.27488	0.17008
586.34611	0.17315
584.41734	0.17558
582.48857	0.17714
580.5598	0.1776
578.63103	0.17677
576.70226	0.17456
574.77349	0.17104
572.84472	0.16638
570.91595	0.16078
568.98718	0.15446
567.05841	0.14762
565.12964	0.1405
563.20087	0.13329
561.2721	0.12626
559.34333	0.1197
557.41456	0.11384
555.48579	0.10889
553.55702	0.105
551.62825	0.10226
549.69948	0.10067
547.77071	0.10017
545.84194	0.10067
543.91317	0.10204
541.9844	0.10409
540.05563	0.10658
538.12686	0.10925
536.19809	0.11185
534.26932	0.11416
532.34055	0.11598
530.41178	0.11715
528.48301	0.11759
526.55424	0.11727
524.62547	0.11617
522.6967	0.11432
520.76793	0.11176
518.83916	0.10855
516.91039	0.10474
514.98162	0.10046
513.05285	0.0959
511.12408	0.09129
509.19531	0.08686
507.26654	0.08286
505.33777	0.07944
503.409	0.07668
501.48023	0.07462
499.55146	0.07326
497.62269	0.07254
495.69392	0.07232
493.76515	0.0724
491.83638	0.07258
489.90761	0.0727
487.97884	0.07265
486.05007	0.0724
484.1213	0.07191
482.19253	0.0711
480.26376	0.0699
478.33499	0.06829
476.40622	0.06625
474.47745	0.06378
472.54868	0.06092
470.61991	0.0578
468.69114	0.05457
466.76237	0.05136
464.8336	0.04825
462.90483	0.04532
460.97606	0.04266
459.04729	0.04035
457.11852	0.03846
455.18975	0.03706
453.26098	0.03619
451.33221	0.03583
449.40344	0.03583
447.47467	0.03604
445.5459	0.03635
443.61713	0.03672
441.68836	0.03708
439.75959	0.0374
437.83082	0.03766
435.90205	0.03785
433.97328	0.03792
432.04451	0.03787
430.11573	0.03768
428.18696	0.03736
426.25819	0.0369
424.32942	0.03626
422.40065	0.03539
420.47188	0.03433
418.54311	0.03314
416.61434	0.03181
414.68557	0.03034
412.7568	0.02875
410.82803	0.02701
408.89926	0.02515
406.97049	0.02314
405.04172	0.02101
403.11295	0.01873
401.18418	0.01632
399.25541	0.01378