3996.41167	0.01851
3994.4829	0.01878
3992.55413	0.01904
3990.62536	0.01928
3988.69659	0.0195
3986.76782	0.01971
3984.83905	0.0199
3982.91028	0.02008
3980.98151	0.02024
3979.05274	0.02038
3977.12397	0.02051
3975.1952	0.02063
3973.26643	0.02072
3971.33766	0.02057
3969.40889	0.02049
3967.48012	0.0205
3965.55135	0.02062
3963.62258	0.02092
3961.69381	0.02136
3959.76504	0.02175
3957.83627	0.02191
3955.9075	0.02184
3953.97873	0.02178
3952.04996	0.02191
3950.12119	0.02216
3948.19242	0.02229
3946.26365	0.02226
3944.33488	0.02216
3942.40611	0.02195
3940.47734	0.02172
3938.54857	0.02168
3936.6198	0.02189
3934.69103	0.02217
3932.76226	0.02231
3930.83349	0.02219
3928.90472	0.0216
3926.97595	0.02059
3925.04718	0.01962
3923.11841	0.01919
3921.18964	0.01938
3919.26087	0.02005
3917.3321	0.02091
3915.40333	0.02157
3913.47456	0.02192
3911.54579	0.02213
3909.61702	0.02229
3907.68825	0.02247
3905.75948	0.02272
3903.83071	0.02292
3901.90194	0.02313
3899.97317	0.02357
3898.0444	0.02407
3896.11563	0.02434
3894.18686	0.02435
3892.25809	0.02441
3890.32932	0.02466
3888.40055	0.02485
3886.47178	0.02465
3884.54301	0.02409
3882.61424	0.0235
3880.68547	0.02327
3878.7567	0.02357
3876.82792	0.02389
3874.89915	0.02384
3872.97038	0.02372
3871.04161	0.02369
3869.11284	0.02366
3867.18407	0.02359
3865.2553	0.02341
3863.32653	0.023
3861.39776	0.02244
3859.46899	0.02199
3857.54022	0.02172
3855.61145	0.0215
3853.68268	0.02117
3851.75391	0.02059
3849.82514	0.01986
3847.89637	0.01927
3845.9676	0.01892
3844.03883	0.0185
3842.11006	0.01785
3840.18129	0.0172
3838.25252	0.01682
3836.32375	0.01677
3834.39498	0.01686
3832.46621	0.01666
3830.53744	0.01591
3828.60867	0.01513
3826.6799	0.01484
3824.75113	0.01464
3822.82236	0.0141
3820.89359	0.01336
3818.96482	0.01269
3817.03605	0.01219
3815.10728	0.01186
3813.17851	0.0117
3811.24974	0.01165
3809.32097	0.0116
3807.3922	0.01154
3805.46343	0.01153
3803.53466	0.01149
3801.60589	0.01138
3799.67712	0.0112
3797.74835	0.01106
3795.81958	0.01116
3793.89081	0.0114
3791.96204	0.01158
3790.03327	0.01186
3788.1045	0.01228
3786.17573	0.01268
3784.24696	0.0128
3782.31819	0.01261
3780.38942	0.01228
3778.46065	0.01201
3776.53188	0.01193
3774.60311	0.01189
3772.67434	0.01164
3770.74557	0.0115
3768.8168	0.01148
3766.88803	0.01147
3764.95926	0.01184
3763.03049	0.01281
3761.10172	0.01395
3759.17295	0.01482
3757.24418	0.01559
3755.31541	0.0167
3753.38664	0.01826
3751.45787	0.01997
3749.5291	0.02158
3747.60033	0.02323
3745.67156	0.02526
3743.74279	0.02773
3741.81402	0.03044
3739.88525	0.0331
3737.95648	0.03548
3736.02771	0.03725
3734.09894	0.03808
3732.17017	0.03825
3730.2414	0.03819
3728.31263	0.03799
3726.38386	0.03771
3724.45509	0.03737
3722.52632	0.03681
3720.59755	0.03636
3718.66878	0.03648
3716.74001	0.03692
3714.81124	0.03717
3712.88247	0.03726
3710.9537	0.03782
3709.02493	0.03927
3707.09616	0.04151
3705.16739	0.04432
3703.23861	0.04761
3701.30984	0.05119
3699.38107	0.05469
3697.4523	0.05813
3695.52353	0.06181
3693.59476	0.06554
3691.66599	0.06901
3689.73722	0.07213
3687.80845	0.07503
3685.87968	0.07825
3683.95091	0.08188
3682.02214	0.0854
3680.09337	0.08836
3678.1646	0.09088
3676.23583	0.09345
3674.30706	0.09596
3672.37829	0.09771
3670.44952	0.09881
3668.52075	0.0999
3666.59198	0.1012
3664.66321	0.10266
3662.73444	0.1042
3660.80567	0.10555
3658.8769	0.10632
3656.94813	0.10636
3655.01936	0.10573
3653.09059	0.10455
3651.16182	0.10332
3649.23305	0.10275
3647.30428	0.10281
3645.37551	0.10328
3643.44674	0.10392
3641.51797	0.10437
3639.5892	0.10474
3637.66043	0.10528
3635.73166	0.10607
3633.80289	0.10703
3631.87412	0.10809
3629.94535	0.10918
3628.01658	0.11024
3626.08781	0.11141
3624.15904	0.11324
3622.23027	0.11579
3620.3015	0.1184
3618.37273	0.12074
3616.44396	0.12299
3614.51519	0.1254
3612.58642	0.12783
3610.65765	0.13008
3608.72888	0.13236
3606.80011	0.13498
3604.87134	0.13824
3602.94257	0.1422
3601.0138	0.14626
3599.08503	0.14982
3597.15626	0.15278
3595.22749	0.15544
3593.29872	0.15813
3591.36995	0.16071
3589.44118	0.16318
3587.51241	0.16594
3585.58364	0.16925
3583.65487	0.17316
3581.7261	0.17749
3579.79733	0.18182
3577.86856	0.18585
3575.93979	0.18964
3574.01102	0.19338
3572.08225	0.1972
3570.15348	0.20112
3568.22471	0.20528
3566.29594	0.20985
3564.36717	0.21497
3562.4384	0.22064
3560.50963	0.22649
3558.58086	0.2321
3556.65209	0.23744
3554.72332	0.24252
3552.79455	0.24729
3550.86578	0.25175
3548.93701	0.25605
3547.00824	0.26044
3545.07947	0.2652
3543.1507	0.2706
3541.22193	0.27665
3539.29316	0.28298
3537.36439	0.28929
3535.43562	0.29547
3533.50685	0.30146
3531.57807	0.30732
3529.6493	0.31323
3527.72053	0.31931
3525.79176	0.32572
3523.86299	0.33298
3521.93422	0.34159
3520.00545	0.35153
3518.07668	0.36223
3516.14791	0.37323
3514.21914	0.38432
3512.29037	0.39539
3510.3616	0.40626
3508.43283	0.41674
3506.50406	0.42665
3504.57529	0.43599
3502.64652	0.44499
3500.71775	0.45375
3498.78898	0.46202
3496.86021	0.46945
3494.93144	0.47597
3493.00267	0.48168
3491.0739	0.48665
3489.14513	0.49087
3487.21636	0.49445
3485.28759	0.49759
3483.35882	0.50057
3481.43005	0.50371
3479.50128	0.50732
3477.57251	0.51158
3475.64374	0.51635
3473.71497	0.52137
3471.7862	0.52643
3469.85743	0.53143
3467.92866	0.53637
3465.99989	0.5413
3464.07112	0.54623
3462.14235	0.55112
3460.21358	0.55597
3458.28481	0.56092
3456.35604	0.56613
3454.42727	0.57153
3452.4985	0.57699
3450.56973	0.58257
3448.64096	0.58839
3446.71219	0.59436
3444.78342	0.60041
3442.85465	0.60664
3440.92588	0.61319
3438.99711	0.62008
3437.06834	0.62727
3435.13957	0.63473
3433.2108	0.64228
3431.28203	0.64979
3429.35326	0.65718
3427.42449	0.66435
3425.49572	0.67123
3423.56695	0.67787
3421.63818	0.6843
3419.70941	0.69036
3417.78064	0.69581
3415.85187	0.70057
3413.9231	0.70478
3411.99433	0.70857
3410.06556	0.71186
3408.13679	0.71457
3406.20802	0.71679
3404.27925	0.7186
3402.35048	0.72006
3400.42171	0.72127
3398.49294	0.72245
3396.56417	0.72386
3394.6354	0.72556
3392.70663	0.72751
3390.77786	0.72982
3388.84909	0.73262
3386.92032	0.73585
3384.99155	0.73943
3383.06278	0.74334
3381.13401	0.74762
3379.20524	0.75224
3377.27647	0.75718
3375.3477	0.76235
3373.41893	0.76761
3371.49016	0.77286
3369.56139	0.77805
3367.63262	0.78309
3365.70385	0.78783
3363.77508	0.79211
3361.84631	0.79589
3359.91753	0.79917
3357.98876	0.802
3356.05999	0.80439
3354.13122	0.80636
3352.20245	0.8079
3350.27368	0.80899
3348.34491	0.80963
3346.41614	0.80988
3344.48737	0.8098
3342.5586	0.80939
3340.62983	0.80867
3338.70106	0.80776
3336.77229	0.8068
3334.84352	0.80591
3332.91475	0.80515
3330.98598	0.80469
3329.05721	0.80469
3327.12844	0.8053
3325.19967	0.80657
3323.2709	0.80838
3321.34213	0.81061
3319.41336	0.81317
3317.48459	0.81594
3315.55582	0.81877
3313.62705	0.82161
3311.69828	0.82447
3309.76951	0.82724
3307.84074	0.82979
3305.91197	0.83203
3303.9832	0.83395
3302.05443	0.83554
3300.12566	0.8368
3298.19689	0.83771
3296.26812	0.83832
3294.33935	0.83867
3292.41058	0.83881
3290.48181	0.83874
3288.55304	0.83848
3286.62427	0.83811
3284.6955	0.83777
3282.76673	0.83749
3280.83796	0.83723
3278.90919	0.83685
3276.98042	0.83619
3275.05165	0.8351
3273.12288	0.83346
3271.19411	0.83114
3269.26534	0.8281
3267.33657	0.82439
3265.4078	0.82003
3263.47903	0.81503
3261.55026	0.80947
3259.62149	0.80342
3257.69272	0.79695
3255.76395	0.79013
3253.83518	0.78305
3251.90641	0.7758
3249.97764	0.76845
3248.04887	0.76099
3246.1201	0.75347
3244.19133	0.74596
3242.26256	0.7386
3240.33379	0.73159
3238.40502	0.72513
3236.47625	0.71933
3234.54748	0.71418
3232.61871	0.70952
3230.68994	0.70525
3228.76117	0.70124
3226.8324	0.69735
3224.90363	0.69346
3222.97486	0.68949
3221.04609	0.68538
3219.11732	0.68113
3217.18855	0.67678
3215.25978	0.6723
3213.33101	0.66762
3211.40224	0.66269
3209.47347	0.65744
3207.5447	0.65183
3205.61593	0.64581
3203.68716	0.63937
3201.75839	0.63255
3199.82962	0.62549
3197.90085	0.61831
3195.97208	0.61113
3194.04331	0.60411
3192.11454	0.59731
3190.18577	0.59062
3188.257	0.58388
3186.32822	0.57701
3184.39945	0.57001
3182.47068	0.56287
3180.54191	0.5556
3178.61314	0.54828
3176.68437	0.54103
3174.7556	0.53398
3172.82683	0.5272
3170.89806	0.52072
3168.96929	0.51447
3167.04052	0.5084
3165.11175	0.50248
3163.18298	0.49669
3161.25421	0.49102
3159.32544	0.4855
3157.39667	0.48009
3155.4679	0.47478
3153.53913	0.46953
3151.61036	0.4643
3149.68159	0.45908
3147.75282	0.45383
3145.82405	0.44848
3143.89528	0.44308
3141.96651	0.43771
3140.03774	0.43244
3138.10897	0.42725
3136.1802	0.42209
3134.25143	0.41692
3132.32266	0.41178
3130.39389	0.40668
3128.46512	0.40159
3126.53635	0.39642
3124.60758	0.39107
3122.67881	0.38557
3120.75004	0.38004
3118.82127	0.37457
3116.8925	0.36912
3114.96373	0.36373
3113.03496	0.35841
3111.10619	0.35312
3109.17742	0.34785
3107.24865	0.34261
3105.31988	0.33744
3103.39111	0.33237
3101.46234	0.32746
3099.53357	0.32284
3097.6048	0.3186
3095.67603	0.31468
3093.74726	0.31095
3091.81849	0.30733
3089.88972	0.30381
3087.96095	0.30039
3086.03218	0.29711
3084.10341	0.29395
3082.17464	0.29079
3080.24587	0.28758
3078.3171	0.28442
3076.38833	0.28146
3074.45956	0.27871
3072.53079	0.27614
3070.60202	0.27371
3068.67325	0.27145
3066.74448	0.26938
3064.81571	0.26746
3062.88694	0.26568
3060.95817	0.26404
3059.0294	0.26251
3057.10063	0.26111
3055.17186	0.25991
3053.24309	0.2589
3051.31432	0.25802
3049.38555	0.25718
3047.45678	0.25637
3045.52801	0.25573
3043.59924	0.2553
3041.67047	0.25511
3039.7417	0.25513
3037.81293	0.25538
3035.88416	0.25596
3033.95539	0.25701
3032.02662	0.25867
3030.09785	0.26098
3028.16908	0.26396
3026.24031	0.26765
3024.31154	0.27209
3022.38277	0.27733
3020.454	0.28337
3018.52523	0.29026
3016.59646	0.29776
3014.66768	0.30541
3012.73891	0.31321
3010.81014	0.32187
3008.88137	0.33184
3006.9526	0.34281
3005.02383	0.35422
3003.09506	0.3656
3001.16629	0.37678
2999.23752	0.38765
2997.30875	0.39811
2995.37998	0.40817
2993.45121	0.41793
2991.52244	0.42746
2989.59367	0.4366
2987.6649	0.445
2985.73613	0.45223
2983.80736	0.45794
2981.87859	0.462
2979.94982	0.46443
2978.02105	0.46535
2976.09228	0.46491
2974.16351	0.46332
2972.23474	0.46074
2970.30597	0.45721
2968.3772	0.4531
2966.44843	0.44943
2964.51966	0.44708
2962.59089	0.44596
2960.66212	0.44568
2958.73335	0.44615
2956.80458	0.44757
2954.87581	0.45002
2952.94704	0.45353
2951.01827	0.45814
2949.0895	0.46385
2947.16073	0.47046
2945.23196	0.47753
2943.30319	0.48456
2941.37442	0.49104
2939.44565	0.49657
2937.51688	0.5009
2935.58811	0.504
2933.65934	0.50603
2931.73057	0.50709
2929.8018	0.50713
2927.87303	0.50604
2925.94426	0.50387
2924.01549	0.50119
2922.08672	0.49884
2920.15795	0.49709
2918.22918	0.49567
2916.30041	0.49437
2914.37164	0.49316
2912.44287	0.49192
2910.5141	0.4904
2908.58533	0.48847
2906.65656	0.48623
2904.72779	0.48387
2902.79902	0.48134
2900.87025	0.47845
2898.94148	0.47501
2897.01271	0.47092
2895.08394	0.4661
2893.15517	0.46052
2891.2264	0.45415
2889.29763	0.44709
2887.36886	0.43947
2885.44009	0.43124
2883.51132	0.42233
2881.58255	0.41289
2879.65378	0.40328
2877.72501	0.3939
2875.79624	0.3847
2873.86747	0.37515
2871.9387	0.365
2870.00993	0.35451
2868.08116	0.3439
2866.15239	0.33311
2864.22362	0.3222
2862.29485	0.31145
2860.36608	0.30117
2858.43731	0.29142
2856.50854	0.28209
2854.57977	0.27311
2852.651	0.2645
2850.72223	0.25635
2848.79346	0.24876
2846.86469	0.24177
2844.93592	0.23543
2843.00714	0.22979
2841.07837	0.22479
2839.1496	0.22033
2837.22083	0.21632
2835.29206	0.21264
2833.36329	0.20925
2831.43452	0.20617
2829.50575	0.20334
2827.57698	0.20073
2825.64821	0.19829
2823.71944	0.19597
2821.79067	0.19366
2819.8619	0.19129
2817.93313	0.18892
2816.00436	0.18661
2814.07559	0.18437
2812.14682	0.18217
2810.21805	0.18004
2808.28928	0.17793
2806.36051	0.17578
2804.43174	0.17355
2802.50297	0.17131
2800.5742	0.1691
2798.64543	0.16699
2796.71666	0.16503
2794.78789	0.16323
2792.85912	0.16154
2790.93035	0.1599
2789.00158	0.15834
2787.07281	0.15692
2785.14404	0.15561
2783.21527	0.15431
2781.2865	0.153
2779.35773	0.15164
2777.42896	0.15025
2775.50019	0.14885
2773.57142	0.14748
2771.64265	0.14619
2769.71388	0.14502
2767.78511	0.14399
2765.85634	0.14307
2763.92757	0.14216
2761.9988	0.14118
2760.07003	0.14014
2758.14126	0.13913
2756.21249	0.13818
2754.28372	0.13727
2752.35495	0.1364
2750.42618	0.1356
2748.49741	0.13486
2746.56864	0.13415
2744.63987	0.13345
2742.7111	0.13278
2740.78233	0.13212
2738.85356	0.13145
2736.92479	0.13074
2734.99602	0.12997
2733.06725	0.12917
2731.13848	0.12838
2729.20971	0.12758
2727.28094	0.12681
2725.35217	0.12607
2723.4234	0.12534
2721.49463	0.12456
2719.56586	0.12369
2717.63709	0.12273
2715.70832	0.12175
2713.77955	0.12079
2711.85078	0.11986
2709.92201	0.1189
2707.99324	0.11784
2706.06447	0.11672
2704.1357	0.11562
2702.20693	0.11463
2700.27816	0.11377
2698.34939	0.113
2696.42062	0.11231
2694.49185	0.11166
2692.56308	0.111
2690.63431	0.11032
2688.70554	0.10961
2686.77677	0.10889
2684.848	0.10818
2682.91923	0.10747
2680.99046	0.10672
2679.06169	0.10595
2677.13292	0.10516
2675.20415	0.10437
2673.27538	0.10356
2671.34661	0.10272
2669.41783	0.10187
2667.48906	0.10105
2665.56029	0.10023
2663.63152	0.09938
2661.70275	0.09849
2659.77398	0.09764
2657.84521	0.09687
2655.91644	0.09619
2653.98767	0.09556
2652.0589	0.09496
2650.13013	0.09432
2648.20136	0.09363
2646.27259	0.0929
2644.34382	0.09214
2642.41505	0.09135
2640.48628	0.09053
2638.55751	0.08969
2636.62874	0.08884
2634.69997	0.08796
2632.7712	0.08704
2630.84243	0.08606
2628.91366	0.08504
2626.98489	0.08401
2625.05612	0.08298
2623.12735	0.08194
2621.19858	0.08091
2619.26981	0.0799
2617.34104	0.07894
2615.41227	0.078
2613.4835	0.07714
2611.55473	0.07633
2609.62596	0.07556
2607.69719	0.07479
2605.76842	0.07402
2603.83965	0.07328
2601.91088	0.07266
2599.98211	0.07214
2598.05334	0.07168
2596.12457	0.07128
2594.1958	0.07093
2592.26703	0.07063
2590.33826	0.07039
2588.40949	0.07017
2586.48072	0.06997
2584.55195	0.0698
2582.62318	0.06965
2580.69441	0.06949
2578.76564	0.06927
2576.83687	0.06904
2574.9081	0.06886
2572.97933	0.06871
2571.05056	0.06849
2569.12179	0.06822
2567.19302	0.06794
2565.26425	0.06761
2563.33548	0.06721
2561.40671	0.06673
2559.47794	0.06623
2557.54917	0.06577
2555.6204	0.06533
2553.69163	0.06488
2551.76286	0.06443
2549.83409	0.06401
2547.90532	0.06357
2545.97655	0.06312
2544.04778	0.06272
2542.11901	0.06242
2540.19024	0.06221
2538.26147	0.06206
2536.3327	0.06193
2534.40393	0.06179
2532.47516	0.06171
2530.54639	0.0617
2528.61762	0.06171
2526.68885	0.06165
2524.76008	0.06152
2522.83131	0.06137
2520.90254	0.06119
2518.97377	0.06097
2517.045	0.06072
2515.11623	0.06043
2513.18746	0.06012
2511.25869	0.05981
2509.32992	0.0595
2507.40115	0.05917
2505.47238	0.05879
2503.54361	0.05838
2501.61484	0.05796
2499.68607	0.05759
2497.75729	0.05729
2495.82852	0.05701
2493.89975	0.05674
2491.97098	0.05646
2490.04221	0.05618
2488.11344	0.05594
2486.18467	0.05578
2484.2559	0.05566
2482.32713	0.05552
2480.39836	0.05535
2478.46959	0.05517
2476.54082	0.055
2474.61205	0.05486
2472.68328	0.05476
2470.75451	0.05468
2468.82574	0.05458
2466.89697	0.05443
2464.9682	0.05423
2463.03943	0.05398
2461.11066	0.05366
2459.18189	0.05331
2457.25312	0.05295
2455.32435	0.05254
2453.39558	0.05206
2451.46681	0.05154
2449.53804	0.051
2447.60927	0.05046
2445.6805	0.04994
2443.75173	0.04949
2441.82296	0.04911
2439.89419	0.04879
2437.96542	0.0485
2436.03665	0.04825
2434.10788	0.04805
2432.17911	0.04793
2430.25034	0.04789
2428.32157	0.0479
2426.3928	0.04794
2424.46403	0.04798
2422.53526	0.04801
2420.60649	0.04802
2418.67772	0.04802
2416.74895	0.04804
2414.82018	0.04807
2412.89141	0.0481
2410.96264	0.04811
2409.03387	0.04809
2407.1051	0.04808
2405.17633	0.04809
2403.24756	0.04809
2401.31879	0.04809
2399.39002	0.04809
2397.46125	0.04809
2395.53248	0.04809
2393.60371	0.04809
2391.67494	0.04809
2389.74617	0.04809
2387.8174	0.04809
2385.88863	0.04809
2383.95986	0.04809
2382.03109	0.04809
2380.10232	0.04809
2378.17355	0.04809
2376.24478	0.04809
2374.31601	0.04809
2372.38724	0.04809
2370.45847	0.04809
2368.5297	0.04809
2366.60093	0.04809
2364.67216	0.04809
2362.74339	0.04809
2360.81462	0.04809
2358.88585	0.04809
2356.95708	0.04809
2355.02831	0.04809
2353.09954	0.04809
2351.17077	0.04809
2349.242	0.04809
2347.31323	0.04809
2345.38446	0.04809
2343.45569	0.04809
2341.52692	0.04809
2339.59815	0.04809
2337.66938	0.04809
2335.74061	0.04809
2333.81184	0.04809
2331.88307	0.04809
2329.9543	0.04809
2328.02553	0.04809
2326.09675	0.04809
2324.16798	0.04809
2322.23921	0.04809
2320.31044	0.04809
2318.38167	0.04809
2316.4529	0.04809
2314.52413	0.04809
2312.59536	0.04809
2310.66659	0.04809
2308.73782	0.04809
2306.80905	0.04813
2304.88028	0.04835
2302.95151	0.04859
2301.02274	0.04875
2299.09397	0.04878
2297.1652	0.04862
2295.23643	0.04826
2293.30766	0.04774
2291.37889	0.0471
2289.45012	0.04638
2287.52135	0.0456
2285.59258	0.04475
2283.66381	0.04389
2281.73504	0.04315
2279.80627	0.04262
2277.8775	0.0422
2275.94873	0.04174
2274.01996	0.04134
2272.09119	0.0413
2270.16242	0.04139
2268.23365	0.04159
2266.30488	0.04192
2264.37611	0.04238
2262.44734	0.04297
2260.51857	0.04367
2258.5898	0.04438
2256.66103	0.04489
2254.73226	0.04522
2252.80349	0.04532
2250.87472	0.04511
2248.94595	0.04462
2247.01718	0.04391
2245.08841	0.04304
2243.15964	0.04207
2241.23087	0.04102
2239.3021	0.03992
2237.37333	0.03889
2235.44456	0.03802
2233.51579	0.03726
2231.58702	0.03642
2229.65825	0.03549
2227.72948	0.03476
2225.80071	0.03435
2223.87194	0.03394
2221.94317	0.03362
2220.0144	0.03338
2218.08563	0.03329
2216.15686	0.03337
2214.22809	0.03354
2212.29932	0.03367
2210.37055	0.03377
2208.44178	0.03388
2206.51301	0.03405
2204.58424	0.03428
2202.65547	0.03454
2200.7267	0.03483
2198.79793	0.03519
2196.86916	0.03557
2194.94039	0.03587
2193.01162	0.03603
2191.08285	0.03609
2189.15408	0.03614
2187.22531	0.03621
2185.29654	0.03624
2183.36777	0.03627
2181.439	0.03634
2179.51023	0.03618
2177.58146	0.03554
2175.65269	0.03447
2173.72392	0.03313
2171.79515	0.03166
2169.86638	0.03013
2167.93761	0.02853
2166.00884	0.02688
2164.08007	0.0254
2162.1513	0.02425
2160.22253	0.02346
2158.29376	0.02295
2156.36499	0.02261
2154.43622	0.0224
2152.50744	0.0223
2150.57867	0.02227
2148.6499	0.02236
2146.72113	0.02266
2144.79236	0.02328
2142.86359	0.02425
2140.93482	0.02551
2139.00605	0.02688
2137.07728	0.02827
2135.14851	0.02949
2133.21974	0.03038
2131.29097	0.03108
2129.3622	0.03174
2127.43343	0.03234
2125.50466	0.03288
2123.57589	0.03341
2121.64712	0.03391
2119.71835	0.03436
2117.78958	0.03474
2115.86081	0.03505
2113.93204	0.03524
2112.00327	0.03528
2110.0745	0.03518
2108.14573	0.03497
2106.21696	0.03464
2104.28819	0.03427
2102.35942	0.03388
2100.43065	0.0335
2098.50188	0.03317
2096.57311	0.03292
2094.64434	0.03278
2092.71557	0.03273
2090.7868	0.0327
2088.85803	0.03265
2086.92926	0.03259
2085.00049	0.03256
2083.07172	0.03253
2081.14295	0.03245
2079.21418	0.03228
2077.28541	0.03195
2075.35664	0.03147
2073.42787	0.03096
2071.4991	0.03052
2069.57033	0.03016
2067.64156	0.02983
2065.71279	0.02945
2063.78402	0.02894
2061.85525	0.02836
2059.92648	0.02785
2057.99771	0.02743
2056.06894	0.02697
2054.14017	0.02636
2052.2114	0.02559
2050.28263	0.02476
2048.35386	0.02393
2046.42509	0.02298
2044.49632	0.02176
2042.56755	0.02035
2040.63878	0.01895
2038.71001	0.01766
2036.78124	0.01645
2034.85247	0.01519
2032.9237	0.01387
2030.99493	0.01253
2029.06616	0.01131
2027.13739	0.01028
2025.20862	0.00947
2023.27985	0.00887
2021.35108	0.00836
2019.42231	0.00785
2017.49354	0.00747
2015.56477	0.00739
2013.636	0.00762
2011.70723	0.00796
2009.77846	0.00821
2007.84969	0.00842
2005.92092	0.00874
2003.99215	0.0093
2002.06338	0.01005
2000.13461	0.01073
1998.20584	0.01117
1996.27707	0.01136
1994.3483	0.01141
1992.41953	0.01127
1990.49076	0.01089
1988.56199	0.01033
1986.63322	0.00971
1984.70445	0.0091
1982.77568	0.00847
1980.8469	0.00786
1978.91813	0.00732
1976.98936	0.00689
1975.06059	0.00655
1973.13182	0.00636
1971.20305	0.00637
1969.27428	0.0066
1967.34551	0.00705
1965.41674	0.00771
1963.48797	0.0086
1961.5592	0.0097
1959.63043	0.01098
1957.70166	0.01234
1955.77289	0.01364
1953.84412	0.01469
1951.91535	0.01546
1949.98658	0.01599
1948.05781	0.01638
1946.12904	0.0167
1944.20027	0.01702
1942.2715	0.0174
1940.34273	0.01779
1938.41396	0.01814
1936.48519	0.01841
1934.55642	0.01861
1932.62765	0.01878
1930.69888	0.01902
1928.77011	0.01932
1926.84134	0.01959
1924.91257	0.01977
1922.9838	0.01987
1921.05503	0.01993
1919.12626	0.01995
1917.19749	0.01992
1915.26872	0.01983
1913.33995	0.01965
1911.41118	0.01939
1909.48241	0.01907
1907.55364	0.01874
1905.62487	0.01842
1903.6961	0.01809
1901.76733	0.01777
1899.83856	0.01746
1897.90979	0.01719
1895.98102	0.01694
1894.05225	0.0167
1892.12348	0.0165
1890.19471	0.01636
1888.26594	0.01629
1886.33717	0.01628
1884.4084	0.01629
1882.47963	0.01627
1880.55086	0.0162
1878.62209	0.01611
1876.69332	0.01599
1874.76455	0.01582
1872.83578	0.01562
1870.90701	0.01542
1868.97824	0.01521
1867.04947	0.01495
1865.1207	0.0147
1863.19193	0.01452
1861.26316	0.01441
1859.33439	0.01429
1857.40562	0.01419
1855.47685	0.01416
1853.54808	0.01417
1851.61931	0.0142
1849.69054	0.01424
1847.76177	0.01431
1845.833	0.01445
1843.90423	0.01473
1841.97546	0.01511
1840.04669	0.01553
1838.11792	0.01599
1836.18915	0.01649
1834.26038	0.01702
1832.33161	0.01765
1830.40284	0.01851
1828.47407	0.01971
1826.5453	0.02132
1824.61653	0.02337
1822.68776	0.02604
1820.75899	0.02967
1818.83022	0.03448
1816.90145	0.04035
1814.97268	0.04706
1813.04391	0.05494
1811.11514	0.06446
1809.18636	0.07557
1807.25759	0.08815
1805.32882	0.10264
1803.40005	0.11979
1801.47128	0.14049
1799.54251	0.16512
1797.61374	0.1931
1795.68497	0.22326
1793.7562	0.25464
1791.82743	0.28665
1789.89866	0.31835
1787.96989	0.34839
1786.04112	0.3755
1784.11235	0.39871
1782.18358	0.4172
1780.25481	0.43038
1778.32604	0.43813
1776.39727	0.44067
1774.4685	0.43839
1772.53973	0.43242
1770.61096	0.42456
1768.68219	0.41618
1766.75342	0.40792
1764.82465	0.3997
1762.89588	0.39126
1760.96711	0.38302
1759.03834	0.37583
1757.10957	0.37036
1755.1808	0.36696
1753.25203	0.36532
1751.32326	0.36464
1749.39449	0.36433
1747.46572	0.3643
1745.53695	0.36447
1743.60818	0.36411
1741.67941	0.36199
1739.75064	0.3576
1737.82187	0.3523
1735.8931	0.34795
1733.96433	0.34585
1732.03556	0.34706
1730.10679	0.35251
1728.17802	0.36258
1726.24925	0.37686
1724.32048	0.39426
1722.39171	0.4126
1720.46294	0.42924
1718.53417	0.44242
1716.6054	0.45129
1714.67663	0.45551
1712.74786	0.45512
1710.81909	0.4504
1708.89032	0.44173
1706.96155	0.42929
1705.03278	0.41353
1703.10401	0.39526
1701.17524	0.3752
1699.24647	0.35395
1697.3177	0.33201
1695.38893	0.31009
1693.46016	0.28971
1691.53139	0.273
1689.60262	0.26105
1687.67385	0.25374
1685.74508	0.25056
1683.81631	0.25113
1681.88754	0.25489
1679.95877	0.26099
1678.03	0.26911
1676.10123	0.27903
1674.17246	0.28995
1672.24369	0.30135
1670.31492	0.31311
1668.38615	0.32442
1666.45738	0.33411
1664.52861	0.34159
1662.59984	0.34661
1660.67107	0.34909
1658.7423	0.34914
1656.81353	0.3468
1654.88476	0.34196
1652.95599	0.33451
1651.02722	0.32457
1649.09845	0.31251
1647.16968	0.29892
1645.24091	0.28439
1643.31214	0.26933
1641.38337	0.25382
1639.4546	0.23826
1637.52583	0.22412
1635.59705	0.21283
1633.66828	0.20503
1631.73951	0.20089
1629.81074	0.2
1627.88197	0.20123
1625.9532	0.20348
1624.02443	0.20584
1622.09566	0.20719
1620.16689	0.207
1618.23812	0.20557
1616.30935	0.20306
1614.38058	0.19946
1612.45181	0.19479
1610.52304	0.18921
1608.59427	0.18295
1606.6655	0.17609
1604.73673	0.16883
1602.80796	0.16142
1600.87919	0.15382
1598.95042	0.14566
1597.02165	0.1367
1595.09288	0.12716
1593.16411	0.11763
1591.23534	0.10896
1589.30657	0.10173
1587.3778	0.09595
1585.44903	0.09142
1583.52026	0.08768
1581.59149	0.08427
1579.66272	0.08128
1577.73395	0.07911
1575.80518	0.0779
1573.87641	0.07762
1571.94764	0.07818
1570.01887	0.07946
1568.0901	0.08132
1566.16133	0.08357
1564.23256	0.08583
1562.30379	0.08798
1560.37502	0.09063
1558.44625	0.09411
1556.51748	0.09828
1554.58871	0.10307
1552.65994	0.10868
1550.73117	0.11524
1548.8024	0.12277
1546.87363	0.13115
1544.94486	0.14019
1543.01609	0.14953
1541.08732	0.15861
1539.15855	0.16698
1537.22978	0.17418
1535.30101	0.17988
1533.37224	0.18417
1531.44347	0.18704
1529.5147	0.1882
1527.58593	0.18717
1525.65716	0.18373
1523.72839	0.17792
1521.79962	0.16989
1519.87085	0.15979
1517.94208	0.14801
1516.01331	0.13535
1514.08454	0.12259
1512.15577	0.10973
1510.227	0.0971
1508.29823	0.08576
1506.36946	0.0767
1504.44069	0.07042
1502.51192	0.06696
1500.58315	0.06594
1498.65438	0.06658
1496.72561	0.06804
1494.79684	0.06996
1492.86807	0.0726
1490.9393	0.07612
1489.01053	0.08045
1487.08176	0.08567
1485.15299	0.09189
1483.22422	0.09884
1481.29545	0.10585
1479.36668	0.11261
1477.43791	0.11927
1475.50914	0.12586
1473.58037	0.13222
1471.6516	0.13829
1469.72283	0.14392
1467.79406	0.14896
1465.86529	0.15348
1463.93651	0.15794
1462.00774	0.16268
1460.07897	0.16763
1458.1502	0.17248
1456.22143	0.17673
1454.29266	0.17981
1452.36389	0.18136
1450.43512	0.18147
1448.50635	0.18052
1446.57758	0.17901
1444.64881	0.17742
1442.72004	0.17625
1440.79127	0.17624
1438.8625	0.17795
1436.93373	0.18119
1435.00496	0.18548
1433.07619	0.19086
1431.14742	0.19776
1429.21865	0.2063
1427.28988	0.21639
1425.36111	0.2278
1423.43234	0.23998
1421.50357	0.25226
1419.5748	0.2641
1417.64603	0.27538
1415.71726	0.28616
1413.78849	0.29637
1411.85972	0.30576
1409.93095	0.31428
1408.00218	0.32209
1406.07341	0.32922
1404.14464	0.33545
1402.21587	0.34045
1400.2871	0.34414
1398.35833	0.34678
1396.42956	0.34892
1394.50079	0.35116
1392.57202	0.35354
1390.64325	0.35541
1388.71448	0.35614
1386.78571	0.35558
1384.85694	0.35375
1382.92817	0.35053
1380.9994	0.3456
1379.07063	0.33867
1377.14186	0.32959
1375.21309	0.31851
1373.28432	0.30598
1371.35555	0.29271
1369.42678	0.27926
1367.49801	0.26595
1365.56924	0.25309
1363.64047	0.24128
1361.7117	0.23142
1359.78293	0.22453
1357.85416	0.22136
1355.92539	0.22227
1353.99662	0.22743
1352.06785	0.23687
1350.13908	0.25039
1348.21031	0.2672
1346.28154	0.28589
1344.35277	0.30494
1342.424	0.3231
1340.49523	0.33948
1338.56646	0.35324
1336.63769	0.36362
1334.70892	0.37011
1332.78015	0.37259
1330.85138	0.37125
1328.92261	0.36664
1326.99384	0.35949
1325.06507	0.35054
1323.1363	0.34043
1321.20753	0.32964
1319.27876	0.31866
1317.34999	0.30819
1315.42122	0.29918
1313.49245	0.29232
1311.56368	0.28741
1309.63491	0.28377
1307.70614	0.28066
1305.77737	0.2774
1303.8486	0.27337
1301.91983	0.26812
1299.99106	0.2613
1298.06229	0.25278
1296.13352	0.24255
1294.20475	0.23093
1292.27597	0.21849
1290.3472	0.20601
1288.41843	0.19429
1286.48966	0.18408
1284.56089	0.17608
1282.63212	0.17085
1280.70335	0.16851
1278.77458	0.16874
1276.84581	0.17104
1274.91704	0.17501
1272.98827	0.18039
1271.0595	0.18687
1269.13073	0.194
1267.20196	0.2013
1265.27319	0.20852
1263.34442	0.21559
1261.41565	0.22218
1259.48688	0.22784
1257.55811	0.23231
1255.62934	0.23548
1253.70057	0.2374
1251.7718	0.23828
1249.84303	0.23847
1247.91426	0.23844
1245.98549	0.23894
1244.05672	0.24072
1242.12795	0.24409
1240.19918	0.24874
1238.27041	0.25394
1236.34164	0.25892
1234.41287	0.26314
1232.4841	0.26634
1230.55533	0.26857
1228.62656	0.27004
1226.69779	0.27091
1224.76902	0.27113
1222.84025	0.27051
1220.91148	0.26887
1218.98271	0.26611
1217.05394	0.26209
1215.12517	0.25655
1213.1964	0.24938
1211.26763	0.2407
1209.33886	0.23063
1207.41009	0.21925
1205.48132	0.20673
1203.55255	0.19331
1201.62378	0.17949
1199.69501	0.166
1197.76624	0.1535
1195.83747	0.14228
1193.9087	0.13233
1191.97993	0.12351
1190.05116	0.11572
1188.12239	0.109
1186.19362	0.10362
1184.26485	0.10024
1182.33608	0.09986
1180.40731	0.10349
1178.47854	0.11193
1176.54977	0.12544
1174.621	0.1438
1172.69223	0.16647
1170.76346	0.19271
1168.83469	0.22147
1166.90592	0.25135
1164.97715	0.28076
1163.04838	0.30816
1161.11961	0.3322
1159.19084	0.35183
1157.26207	0.36641
1155.3333	0.37572
1153.40453	0.38
1151.47576	0.37969
1149.54699	0.37521
1147.61822	0.36668
1145.68945	0.35419
1143.76068	0.33817
1141.83191	0.31959
1139.90314	0.29988
1137.97437	0.28075
1136.0456	0.26378
1134.11683	0.25031
1132.18806	0.24128
1130.25929	0.23719
1128.33052	0.23817
1126.40175	0.24422
1124.47298	0.25519
1122.54421	0.27064
1120.61544	0.2896
1118.68666	0.31068
1116.75789	0.33234
1114.82912	0.35312
1112.90035	0.37194
1110.97158	0.38824
1109.04281	0.40184
1107.11404	0.41282
1105.18527	0.42165
1103.2565	0.42931
1101.32773	0.43739
1099.39896	0.44771
1097.47019	0.46165
1095.54142	0.47939
1093.61265	0.49971
1091.68388	0.52056
1089.75511	0.54031
1087.82634	0.5585
1085.89757	0.57539
1083.9688	0.59149
1082.04003	0.60769
1080.11126	0.6252
1078.18249	0.64485
1076.25372	0.66642
1074.32495	0.68856
1072.39618	0.70934
1070.46741	0.72709
1068.53864	0.74134
1066.60987	0.75301
1064.6811	0.76355
1062.75233	0.77415
1060.82356	0.78561
1058.89479	0.79857
1056.96602	0.81354
1055.03725	0.83072
1053.10848	0.84986
1051.17971	0.87013
1049.25094	0.89018
1047.32217	0.9082
1045.3934	0.9227
1043.46463	0.93347
1041.53586	0.9413
1039.60709	0.9471
1037.67832	0.95186
1035.74955	0.95688
1033.82078	0.96326
1031.89201	0.97108
1029.96324	0.97934
1028.03447	0.98671
1026.1057	0.99221
1024.17693	0.99573
1022.24816	0.99792
1020.31939	0.99938
1018.39062	1
1016.46185	0.99889
1014.53308	0.99489
1012.60431	0.98708
1010.67554	0.97522
1008.74677	0.95971
1006.818	0.94125
1004.88923	0.92044
1002.96046	0.89729
1001.03169	0.87118
999.10292	0.84151
997.17415	0.8083
995.24538	0.77194
993.31661	0.73305
991.38784	0.69235
989.45907	0.65056
987.5303	0.60813
985.60153	0.56517
983.67276	0.52183
981.74399	0.47871
979.81522	0.43677
977.88645	0.39693
975.95768	0.35994
974.02891	0.32643
972.10014	0.29679
970.17137	0.27115
968.2426	0.24985
966.31383	0.2337
964.38506	0.22358
962.45629	0.21969
960.52752	0.22122
958.59875	0.22686
956.66998	0.23532
954.74121	0.24557
952.81244	0.25671
950.88367	0.26782
948.9549	0.27801
947.02612	0.28661
945.09735	0.29328
943.16858	0.29783
941.23981	0.30004
939.31104	0.29966
937.38227	0.29665
935.4535	0.29108
933.52473	0.283
931.59596	0.27236
929.66719	0.25921
927.73842	0.24384
925.80965	0.2267
923.88088	0.20857
921.95211	0.19052
920.02334	0.17351
918.09457	0.15794
916.1658	0.14348
914.23703	0.12951
912.30826	0.11579
910.37949	0.10309
908.45072	0.09287
906.52195	0.08584
904.59318	0.08156
902.66441	0.07934
900.73564	0.07882
898.80687	0.07969
896.8781	0.08151
894.94933	0.08375
893.02056	0.0861
891.09179	0.08863
889.16302	0.09169
887.23425	0.09568
885.30548	0.10081
883.37671	0.10711
881.44794	0.11428
879.51917	0.1218
877.5904	0.12904
875.66163	0.13554
873.73286	0.14097
871.80409	0.14504
869.87532	0.14761
867.94655	0.14887
866.01778	0.14959
864.08901	0.15076
862.16024	0.15268
860.23147	0.15436
858.3027	0.15459
856.37393	0.15279
854.44516	0.14879
852.51639	0.14252
850.58762	0.13419
848.65885	0.12421
846.73008	0.11323
844.80131	0.10212
842.87254	0.09176
840.94377	0.08271
839.015	0.07505
837.08623	0.06856
835.15746	0.06287
833.22869	0.05759
831.29992	0.05251
829.37115	0.04761
827.44238	0.04288
825.51361	0.03834
823.58484	0.03412
821.65607	0.03049
819.7273	0.02757
817.79853	0.02529
815.86976	0.02341
813.94099	0.02173
812.01222	0.02009
810.08345	0.01842
808.15468	0.0167
806.22591	0.015
804.29714	0.01339
802.36837	0.01206
800.4396	0.01155
798.51083	0.01247
796.58206	0.01503
794.65329	0.01887
792.72452	0.02353
790.79575	0.02873
788.86698	0.03441
786.93821	0.04056
785.00944	0.04714
783.08067	0.05408
781.1519	0.06141
779.22313	0.06917
777.29436	0.07733
775.36558	0.08581
773.43681	0.09456
771.50804	0.10358
769.57927	0.11279
767.6505	0.12194
765.72173	0.13065
763.79296	0.13859
761.86419	0.1454
759.93542	0.1508
758.00665	0.15464
756.07788	0.15699
754.14911	0.15805
752.22034	0.15779
750.29157	0.15593
748.3628	0.1523
746.43403	0.14691
744.50526	0.14029
742.57649	0.13281
740.64772	0.12477
738.71895	0.11652
736.79018	0.10844
734.86141	0.10093
732.93264	0.09437
731.00387	0.08913
729.0751	0.08552
727.14633	0.08375
725.21756	0.08379
723.28879	0.0853
721.36002	0.08788
719.43125	0.09114
717.50248	0.09477
715.57371	0.09855
713.64494	0.10227
711.71617	0.10576
709.7874	0.10887
707.85863	0.11154
705.92986	0.1137
704.00109	0.1153
702.07232	0.11628
700.14355	0.11664
698.21478	0.11672
696.28601	0.11679
694.35724	0.1171
692.42847	0.11698
690.4997	0.11618
688.57093	0.11565
686.64216	0.11493
684.71339	0.11424
682.78462	0.11381
680.85585	0.11356
678.92708	0.11338
676.99831	0.11328
675.06954	0.11332
673.14077	0.11349
671.212	0.11377
669.28323	0.11411
667.35446	0.1145
665.42569	0.11489
663.49692	0.11527
661.56815	0.1157
659.63938	0.11617
657.71061	0.11669
655.78184	0.11726
653.85307	0.11794
651.9243	0.1188
649.99553	0.11984
648.06676	0.1206
646.13799	0.12045
644.20922	0.11988
642.28045	0.11944
640.35168	0.11845
638.42291	0.11768
636.49414	0.11717
634.56537	0.11672
632.6366	0.11645
630.70783	0.11659
628.77906	0.11728
626.85029	0.11858
624.92152	0.12047
622.99275	0.12293
621.06398	0.12594
619.13521	0.12936
617.20644	0.13305
615.27767	0.13703
613.3489	0.14145
611.42013	0.14643
609.49136	0.15194
607.56259	0.15785
605.63382	0.16406
603.70505	0.17046
601.77627	0.17691
599.8475	0.1833
597.91873	0.18946
595.98996	0.19521
594.06119	0.20042
592.13242	0.20492
590.20365	0.20846
588.27488	0.21097
586.34611	0.21245
584.41734	0.21285
582.48857	0.21205
580.5598	0.20996
578.63103	0.20655
576.70226	0.20189
574.77349	0.19606
572.84472	0.18919
570.91595	0.18152
568.98718	0.17347
567.05841	0.16544
565.12964	0.15764
563.20087	0.15019
561.2721	0.14329
559.34333	0.13726
557.41456	0.13237
555.48579	0.12874
553.55702	0.12629
551.62825	0.12481
549.69948	0.12418
547.77071	0.12438
545.84194	0.12538
543.91317	0.12701
541.9844	0.12903
540.05563	0.13124
538.12686	0.13347
536.19809	0.13556
534.26932	0.13733
532.34055	0.13863
530.41178	0.13932
528.48301	0.13919
526.55424	0.13813
524.62547	0.13614
522.6967	0.13335
520.76793	0.12986
518.83916	0.12576
516.91039	0.1212
514.98162	0.11647
513.05285	0.11193
511.12408	0.10782
509.19531	0.10422
507.26654	0.1011
505.33777	0.09848
503.409	0.09642
501.48023	0.09494
499.55146	0.09399
497.62269	0.09351
495.69392	0.09344
493.76515	0.0937
491.83638	0.0941
489.90761	0.09445
487.97884	0.09453
486.05007	0.09414
484.1213	0.09316
482.19253	0.09152
480.26376	0.08921
478.33499	0.08628
476.40622	0.08277
474.47745	0.07877
472.54868	0.07445
470.61991	0.07005
468.69114	0.06576
466.76237	0.06173
464.8336	0.05798
462.90483	0.05452
460.97606	0.05137
459.04729	0.04865
457.11852	0.04644
455.18975	0.04475
453.26098	0.04353
451.33221	0.04276
449.40344	0.04252
447.47467	0.0429
445.5459	0.04391
443.61713	0.04541
441.68836	0.04717
439.75959	0.049
437.83082	0.05069
435.90205	0.05207
433.97328	0.05296
432.04451	0.05325
430.11573	0.05294
428.18696	0.0521
426.25819	0.05079
424.32942	0.04893
422.40065	0.04646
420.47188	0.04445
418.54311	0.0421
416.61434	0.03941
414.68557	0.03639
412.7568	0.03302
410.82803	0.02932
408.89926	0.02528
406.97049	0.0209
405.04172	0.01618
403.11295	0.01113
401.18418	0.00573
399.25541	0