401	0.03594
402	0.03518
403	0.03026
404	0.02291
405	0.01737
406	0.01716
407	0.02079
408	0.02376
409	0.02193
410	0.01777
411	0.01671
412	0.01889
413	0.01886
414	0.01591
415	0.01553
416	0.01842
417	0.01878
418	0.01176
419	0.00427
420	0.00908
421	0.01858
422	0.02193
423	0.01973
424	0.01623
425	0.01661
426	0.02112
427	0.02355
428	0.02111
429	0.01922
430	0.02204
431	0.02611
432	0.0278
433	0.02812
434	0.02988
435	0.03323
436	0.03495
437	0.03434
438	0.03394
439	0.034
440	0.03319
441	0.03087
442	0.02776
443	0.02628
444	0.027
445	0.02759
446	0.02685
447	0.0251
448	0.02408
449	0.02378
450	0.02141
451	0.01746
452	0.01546
453	0.0159
454	0.01605
455	0.01578
456	0.01679
457	0.01775
458	0.01573
459	0.01351
460	0.01308
461	0.01295
462	0.01379
463	0.01598
464	0.01688
465	0.0158
466	0.01531
467	0.01696
468	0.02003
469	0.02324
470	0.02529
471	0.02593
472	0.02598
473	0.02654
474	0.02812
475	0.03004
476	0.03127
477	0.03196
478	0.03274
479	0.03331
480	0.03334
481	0.03339
482	0.0335
483	0.03341
484	0.03393
485	0.03509
486	0.03563
487	0.0355
488	0.0358
489	0.03688
490	0.03804
491	0.03902
492	0.04008
493	0.04172
494	0.04386
495	0.04512
496	0.04464
497	0.04411
498	0.04537
499	0.04708
500	0.04735
501	0.04636
502	0.04599
503	0.04688
504	0.04701
505	0.04571
506	0.04494
507	0.04632
508	0.04876
509	0.04975
510	0.04921
511	0.04965
512	0.05177
513	0.05427
514	0.05634
515	0.05834
516	0.06124
517	0.06488
518	0.06832
519	0.07094
520	0.07286
521	0.07527
522	0.0785
523	0.08093
524	0.08164
525	0.0817
526	0.08224
527	0.08328
528	0.08438
529	0.08483
530	0.08456
531	0.08434
532	0.08423
533	0.08344
534	0.08218
535	0.08124
536	0.08013
537	0.07772
538	0.07433
539	0.07142
540	0.06936
541	0.06768
542	0.06561
543	0.0628
544	0.06062
545	0.06047
546	0.06126
547	0.06126
548	0.06078
549	0.06126
550	0.06291
551	0.06441
552	0.06492
553	0.06533
554	0.06724
555	0.07053
556	0.07299
557	0.07374
558	0.07463
559	0.07734
560	0.08133
561	0.08458
562	0.08648
563	0.08921
564	0.0946
565	0.1013
566	0.10661
567	0.11046
568	0.11535
569	0.12315
570	0.13212
571	0.13836
572	0.14137
573	0.1447
574	0.15048
575	0.15608
576	0.1589
577	0.15996
578	0.16133
579	0.16299
580	0.16288
581	0.15984
582	0.15593
583	0.15382
584	0.15296
585	0.15048
586	0.14496
587	0.13881
588	0.13513
589	0.13349
590	0.13084
591	0.12544
592	0.11979
593	0.11747
594	0.11701
595	0.11502
596	0.11143
597	0.10939
598	0.11083
599	0.11372
600	0.11498
601	0.11472
602	0.11577
603	0.11975
604	0.12496
605	0.12825
606	0.12939
607	0.13106
608	0.13408
609	0.13578
610	0.13352
611	0.12811
612	0.12279
613	0.11943
614	0.11601
615	0.10957
616	0.10094
617	0.09417
618	0.09177
619	0.09109
620	0.08793
621	0.08283
622	0.08004
623	0.07991
624	0.07821
625	0.0733
626	0.06885
627	0.06814
628	0.06938
629	0.06908
630	0.06645
631	0.06398
632	0.06446
633	0.06712
634	0.06833
635	0.06701
636	0.06607
637	0.06741
638	0.06916
639	0.06862
640	0.06628
641	0.06536
642	0.06688
643	0.06826
644	0.06736
645	0.06518
646	0.0644
647	0.06588
648	0.06721
649	0.06654
650	0.06507
651	0.06505
652	0.06713
653	0.06927
654	0.06927
655	0.06811
656	0.06841
657	0.07028
658	0.07126
659	0.07006
660	0.06847
661	0.06879
662	0.07049
663	0.07156
664	0.07142
665	0.07066
666	0.06904
667	0.06345
668	0.05013
669	0.04657
670	0.05388
671	0.06078
672	0.06426
673	0.06437
674	0.06225
675	0.06035
676	0.06021
677	0.06118
678	0.0613
679	0.06
680	0.05895
681	0.05934
682	0.06037
683	0.06054
684	0.05967
685	0.05915
686	0.06001
687	0.06127
688	0.06173
689	0.06204
690	0.06352
691	0.06608
692	0.06875
693	0.07108
694	0.07357
695	0.07716
696	0.08194
697	0.08698
698	0.09176
699	0.09642
700	0.10117
701	0.1056
702	0.10872
703	0.10996
704	0.10968
705	0.10837
706	0.10613
707	0.10277
708	0.09839
709	0.09373
710	0.08955
711	0.08581
712	0.08218
713	0.07849
714	0.07509
715	0.07262
716	0.07109
717	0.06971
718	0.06772
719	0.06511
720	0.0629
721	0.06239
722	0.06288
723	0.06281
724	0.06198
725	0.06082
726	0.05963
727	0.05839
728	0.05686
729	0.05516
730	0.05383
731	0.05338
732	0.05322
733	0.05246
734	0.05139
735	0.05089
736	0.05117
737	0.05183
738	0.05251
739	0.05324
740	0.05454
741	0.05671
742	0.05933
743	0.06167
744	0.06392
745	0.06708
746	0.07186
747	0.07809
748	0.08514
749	0.0927
750	0.10076
751	0.10842
752	0.11411
753	0.11716
754	0.11818
755	0.11835
756	0.11836
757	0.11785
758	0.11625
759	0.1137
760	0.11082
761	0.10728
762	0.10247
763	0.09654
764	0.09036
765	0.08502
766	0.08073
767	0.07712
768	0.07423
769	0.07267
770	0.07276
771	0.07351
772	0.07336
773	0.07185
774	0.06954
775	0.06702
776	0.06418
777	0.06051
778	0.05619
779	0.05226
780	0.04908
781	0.04617
782	0.04312
783	0.04031
784	0.03856
785	0.03834
786	0.0387
787	0.03856
788	0.03848
789	0.03953
790	0.04131
791	0.04264
792	0.04295
793	0.0431
794	0.04407
795	0.04554
796	0.0464
797	0.04651
798	0.04667
799	0.04723
800	0.04746
801	0.04625
802	0.04387
803	0.04194
804	0.0415
805	0.04178
806	0.04117
807	0.03954
808	0.0385
809	0.03891
810	0.03959
811	0.0388
812	0.03684
813	0.03591
814	0.03675
815	0.03764
816	0.0369
817	0.03482
818	0.03298
819	0.03204
820	0.03104
821	0.02891
822	0.02624
823	0.02486
824	0.02491
825	0.02452
826	0.02287
827	0.02149
828	0.0219
829	0.02381
830	0.02544
831	0.02601
832	0.02681
833	0.02946
834	0.03365
835	0.03748
836	0.03992
837	0.04226
838	0.04597
839	0.05005
840	0.05236
841	0.0528
842	0.05351
843	0.05607
844	0.05937
845	0.06132
846	0.06181
847	0.06284
848	0.06546
849	0.06812
850	0.06885
851	0.06784
852	0.06706
853	0.06764
854	0.06828
855	0.06718
856	0.06479
857	0.0632
858	0.0633
859	0.06342
860	0.0617
861	0.05878
862	0.0568
863	0.05652
864	0.05592
865	0.0528
866	0.04779
867	0.04384
868	0.04182
869	0.03967
870	0.03565
871	0.03087
872	0.0278
873	0.02674
874	0.02556
875	0.0231
876	0.02075
877	0.02019
878	0.02081
879	0.0205
880	0.01843
881	0.01624
882	0.01599
883	0.01737
884	0.01831
885	0.0179
886	0.01757
887	0.01869
888	0.02052
889	0.02111
890	0.01981
891	0.01831
892	0.01829
893	0.01909
894	0.01855
895	0.01648
896	0.01498
897	0.01563
898	0.01736
899	0.01837
900	0.01852
901	0.01945
902	0.02217
903	0.02548
904	0.02766
905	0.02888
906	0.03088
907	0.03434
908	0.03788
909	0.04007
910	0.04128
911	0.0429
912	0.04531
913	0.04731
914	0.04795
915	0.04794
916	0.04895
917	0.05164
918	0.05491
919	0.05757
920	0.06007
921	0.06394
922	0.06929
923	0.07488
924	0.07997
925	0.08513
926	0.09147
927	0.0993
928	0.10772
929	0.11618
930	0.12533
931	0.13551
932	0.14586
933	0.15444
934	0.15997
935	0.16282
936	0.16405
937	0.16385
938	0.16191
939	0.15862
940	0.15532
941	0.15355
942	0.15393
943	0.15571
944	0.15754
945	0.1586
946	0.15803
947	0.15433
948	0.14644
949	0.13574
950	0.12471
951	0.11564
952	0.10947
953	0.10588
954	0.10427
955	0.10437
956	0.10572
957	0.10743
958	0.10891
959	0.11046
960	0.11282
961	0.11648
962	0.12141
963	0.12703
964	0.13291
965	0.13896
966	0.14515
967	0.15122
968	0.15691
969	0.16242
970	0.16845
971	0.17563
972	0.18407
973	0.19361
974	0.20393
975	0.21492
976	0.22669
977	0.23915
978	0.2518
979	0.26421
980	0.27617
981	0.28782
982	0.29911
983	0.30948
984	0.31863
985	0.32704
986	0.33581
987	0.34616
988	0.35868
989	0.37333
990	0.38986
991	0.40765
992	0.42536
993	0.44129
994	0.4542
995	0.46379
996	0.47056
997	0.47543
998	0.47888
999	0.48102
1000	0.48207
1001	0.48267
1002	0.48285
1003	0.48148
1004	0.4778
1005	0.47217
1006	0.46556
1007	0.45924
1008	0.45488
1009	0.45467
1010	0.46038
1011	0.47279
1012	0.4912
1013	0.51406
1014	0.54018
1015	0.56938
1016	0.60191
1017	0.6375
1018	0.67546
1019	0.71518
1020	0.756
1021	0.7971
1022	0.83716
1023	0.87456
1024	0.90828
1025	0.93808
1026	0.96324
1027	0.98253
1028	0.99484
1029	1
1030	0.99955
1031	0.99503
1032	0.98677
1033	0.9747
1034	0.95932
1035	0.94186
1036	0.92333
1037	0.90407
1038	0.88473
1039	0.8664
1040	0.84997
1041	0.83562
1042	0.82285
1043	0.81116
1044	0.80083
1045	0.79207
1046	0.78432
1047	0.77656
1048	0.76835
1049	0.76022
1050	0.75311
1051	0.74704
1052	0.74098
1053	0.73374
1054	0.72468
1055	0.71334
1056	0.69848
1057	0.67901
1058	0.65513
1059	0.62837
1060	0.60058
1061	0.57291
1062	0.54569
1063	0.51908
1064	0.49364
1065	0.46999
1066	0.44815
1067	0.42792
1068	0.40984
1069	0.39555
1070	0.38716
1071	0.38616
1072	0.39305
1073	0.40785
1074	0.43027
1075	0.4586
1076	0.48921
1077	0.51769
1078	0.54063
1079	0.55644
1080	0.56467
1081	0.56477
1082	0.55648
1083	0.54094
1084	0.52105
1085	0.4998
1086	0.47869
1087	0.45835
1088	0.44001
1089	0.42526
1090	0.41485
1091	0.40792
1092	0.40283
1093	0.39905
1094	0.39694
1095	0.39657
1096	0.39696
1097	0.39706
1098	0.39685
1099	0.39735
1100	0.399
1101	0.40082
1102	0.40131
1103	0.40036
1104	0.39857
1105	0.39621
1106	0.39279
1107	0.38752
1108	0.38057
1109	0.37272
1110	0.36483
1111	0.35677
1112	0.34814
1113	0.33936
1114	0.33143
1115	0.32486
1116	0.31929
1117	0.3143
1118	0.31051
1119	0.30904
1120	0.31005
1121	0.31241
1122	0.31513
1123	0.31827
1124	0.32197
1125	0.32566
1126	0.32813
1127	0.32838
1128	0.32683
1129	0.32498
1130	0.32373
1131	0.32246
1132	0.32048
1133	0.31854
1134	0.31817
1135	0.3198
1136	0.32248
1137	0.32562
1138	0.32993
1139	0.33646
1140	0.34524
1141	0.35564
1142	0.36718
1143	0.37996
1144	0.39395
1145	0.4083
1146	0.422
1147	0.43472
1148	0.44702
1149	0.45957
1150	0.47215
1151	0.48381
1152	0.49387
1153	0.50236
1154	0.50931
1155	0.5137
1156	0.51385
1157	0.5086
1158	0.49786
1159	0.48243
1160	0.46278
1161	0.43929
1162	0.41302
1163	0.38578
1164	0.35891
1165	0.33256
1166	0.30651
1167	0.28151
1168	0.25865
1169	0.23846
1170	0.22059
1171	0.20448
1172	0.19023
1173	0.17817
1174	0.16823
1175	0.15998
1176	0.15292
1177	0.1469
1178	0.14206
1179	0.13827
1180	0.13494
1181	0.13157
1182	0.12843
1183	0.12595
1184	0.12405
1185	0.12238
1186	0.12072
1187	0.11907
1188	0.11762
1189	0.1166
1190	0.11573
1191	0.11478
1192	0.11389
1193	0.11321
1194	0.11263
1195	0.11202
1196	0.11138
1197	0.11082
1198	0.11048
1199	0.11032
1200	0.11038
1201	0.11057
1202	0.11073
1203	0.1108
1204	0.11088
1205	0.11106
1206	0.11134
1207	0.1116
1208	0.1119
1209	0.11233
1210	0.11295
1211	0.11394
1212	0.11543
1213	0.11744
1214	0.11999
1215	0.123
1216	0.12632
1217	0.1296
1218	0.1327
1219	0.13545
1220	0.13768
1221	0.1391
1222	0.13955
1223	0.13888
1224	0.13713
1225	0.13466
1226	0.1319
1227	0.12903
1228	0.12622
1229	0.12375
1230	0.12177
1231	0.12019
1232	0.11883
1233	0.11774
1234	0.11723
1235	0.11741
1236	0.11805
1237	0.1188
1238	0.11936
1239	0.11968
1240	0.11968
1241	0.11896
1242	0.11726
1243	0.11484
1244	0.11219
1245	0.10967
1246	0.10715
1247	0.10444
1248	0.10173
1249	0.09934
1250	0.0974
1251	0.09575
1252	0.09412
1253	0.09273
1254	0.0919
1255	0.09171
1256	0.09193
1257	0.09224
1258	0.09258
1259	0.09321
1260	0.09414
1261	0.09494
1262	0.09517
1263	0.09504
1264	0.09506
1265	0.09534
1266	0.09576
1267	0.09628
1268	0.09721
1269	0.09878
1270	0.10088
1271	0.1032
1272	0.10555
1273	0.10787
1274	0.11008
1275	0.11212
1276	0.11361
1277	0.11461
1278	0.11553
1279	0.11663
1280	0.11765
1281	0.11807
1282	0.11777
1283	0.11708
1284	0.11632
1285	0.11538
1286	0.11412
1287	0.11284
1288	0.11205
1289	0.11207
1290	0.11266
1291	0.11342
1292	0.11433
1293	0.11571
1294	0.11767
1295	0.11978
1296	0.12169
1297	0.12351
1298	0.12558
1299	0.12796
1300	0.1301
1301	0.13147
1302	0.13223
1303	0.13267
1304	0.13257
1305	0.13159
1306	0.12984
1307	0.12805
1308	0.12693
1309	0.1266
1310	0.12659
1311	0.12669
1312	0.12723
1313	0.12849
1314	0.13029
1315	0.13207
1316	0.13363
1317	0.13527
1318	0.13712
1319	0.13899
1320	0.14063
1321	0.14205
1322	0.14369
1323	0.1459
1324	0.14835
1325	0.15043
1326	0.15203
1327	0.15356
1328	0.15503
1329	0.15611
1330	0.15638
1331	0.15588
1332	0.15502
1333	0.15407
1334	0.15261
1335	0.15021
1336	0.147
1337	0.14348
1338	0.13988
1339	0.13605
1340	0.13215
1341	0.12887
1342	0.1266
1343	0.12514
1344	0.12417
1345	0.12353
1346	0.12341
1347	0.12412
1348	0.12562
1349	0.12749
1350	0.1293
1351	0.13112
1352	0.13326
1353	0.13559
1354	0.13756
1355	0.13906
1356	0.14056
1357	0.14257
1358	0.14509
1359	0.14758
1360	0.14983
1361	0.1524
1362	0.15587
1363	0.16073
1364	0.16605
1365	0.17024
1366	0.1736
1367	0.17682
1368	0.1798
1369	0.18208
1370	0.18323
1371	0.18342
1372	0.18304
1373	0.18236
1374	0.18149
1375	0.18089
1376	0.18079
1377	0.18091
1378	0.18091
1379	0.18041
1380	0.17929
1381	0.17751
1382	0.17447
1383	0.16996
1384	0.16646
1385	0.16687
1386	0.17091
1387	0.17606
1388	0.17953
1389	0.17968
1390	0.17756
1391	0.1746
1392	0.17165
1393	0.16888
1394	0.16631
1395	0.16477
1396	0.16493
1397	0.16578
1398	0.16605
1399	0.16536
1400	0.16401
1401	0.1625
1402	0.16085
1403	0.159
1404	0.15722
1405	0.15634
1406	0.157
1407	0.15813
1408	0.15877
1409	0.15863
1410	0.15806
1411	0.15747
1412	0.15668
1413	0.15524
1414	0.15305
1415	0.15062
1416	0.14838
1417	0.14627
1418	0.14387
1419	0.14088
1420	0.13821
1421	0.13669
1422	0.13529
1423	0.1331
1424	0.13055
1425	0.12881
1426	0.1278
1427	0.12669
1428	0.12506
1429	0.12312
1430	0.1216
1431	0.12097
1432	0.12055
1433	0.11978
1434	0.11876
1435	0.11762
1436	0.11617
1437	0.11481
1438	0.11382
1439	0.11266
1440	0.11142
1441	0.11033
1442	0.10935
1443	0.10819
1444	0.10688
1445	0.10582
1446	0.10512
1447	0.10445
1448	0.10362
1449	0.10298
1450	0.10284
1451	0.10328
1452	0.10435
1453	0.10575
1454	0.10711
1455	0.10856
1456	0.11072
1457	0.11438
1458	0.11767
1459	0.11917
1460	0.11959
1461	0.1188
1462	0.1167
1463	0.11338
1464	0.10903
1465	0.10327
1466	0.09792
1467	0.09357
1468	0.08862
1469	0.08298
1470	0.07727
1471	0.07147
1472	0.06479
1473	0.05807
1474	0.05348
1475	0.05088
1476	0.04975
1477	0.05025
1478	0.05197
1479	0.0544
1480	0.05724
1481	0.0598
1482	0.06067
1483	0.05867
1484	0.05408
1485	0.04815
1486	0.04215
1487	0.03613
1488	0.03055
1489	0.02609
1490	0.02229
1491	0.01964
1492	0.01799
1493	0.01637
1494	0.01452
1495	0.01268
1496	0.01144
1497	0.01088
1498	0.01051
1499	0.01037
1500	0.01034
1501	0.01035
1502	0.01067
1503	0.01092
1504	0.01056
1505	0.00971
1506	0.00988
1507	0.01336
1508	0.01726
1509	0.02039
1510	0.02346
1511	0.02658
1512	0.03085
1513	0.03592
1514	0.03979
1515	0.04304
1516	0.04675
1517	0.05299
1518	0.05915
1519	0.0609
1520	0.06087
1521	0.06123
1522	0.06223
1523	0.06199
1524	0.06067
1525	0.05927
1526	0.05834
1527	0.05783
1528	0.05769
1529	0.0577
1530	0.05742
1531	0.05679
1532	0.05589
1533	0.05524
1534	0.05529
1535	0.05518
1536	0.05438
1537	0.05292
1538	0.05093
1539	0.04856
1540	0.04709
1541	0.04653
1542	0.04616
1543	0.04559
1544	0.04473
1545	0.0444
1546	0.04456
1547	0.0443
1548	0.04341
1549	0.04241
1550	0.04211
1551	0.04247
1552	0.04234
1553	0.04184
1554	0.04191
1555	0.04253
1556	0.04242
1557	0.04141
1558	0.04034
1559	0.04231
1560	0.04651
1561	0.04862
1562	0.04898
1563	0.04908
1564	0.04968
1565	0.05142
1566	0.05352
1567	0.05477
1568	0.05521
1569	0.05632
1570	0.0597
1571	0.06189
1572	0.06215
1573	0.06132
1574	0.05935
1575	0.0565
1576	0.0528
1577	0.04863
1578	0.04504
1579	0.04157
1580	0.03807
1581	0.03472
1582	0.03155
1583	0.02852
1584	0.02581
1585	0.02355
1586	0.02161
1587	0.01976
1588	0.01803
1589	0.01668
1590	0.0159
1591	0.01572
1592	0.01573
1593	0.01566
1594	0.01566
1595	0.01592
1596	0.01614
1597	0.01571
1598	0.01448
1599	0.01266
1600	0.01076
1601	0.00893
1602	0.00699
1603	0.00501
1604	0.00334
1605	0.00216
1606	0.00133
1607	6.94118E-4
1608	1.49502E-4
1609	0
1610	6.08688E-4
1611	0.0016
1612	0.0025
1613	0.0034
1614	0.00438
1615	0.00536
1616	0.00759
1617	0.01289
1618	0.01783
1619	0.02168
1620	0.02622
1621	0.03111
1622	0.03554
1623	0.04147
1624	0.05053
1625	0.0577
1626	0.06286
1627	0.06826
1628	0.07506
1629	0.08167
1630	0.08686
1631	0.09184
1632	0.09693
1633	0.10147
1634	0.10529
1635	0.11141
1636	0.12099
1637	0.12897
1638	0.1344
1639	0.13878
1640	0.14207
1641	0.14425
1642	0.14511
1643	0.14476
1644	0.14362
1645	0.14185
1646	0.13956
1647	0.13754
1648	0.13683
1649	0.13673
1650	0.13639
1651	0.13548
1652	0.13387
1653	0.13185
1654	0.13233
1655	0.13333
1656	0.13315
1657	0.13234
1658	0.13134
1659	0.13031
1660	0.12903
1661	0.12734
1662	0.12529
1663	0.12328
1664	0.12174
1665	0.1203
1666	0.11848
1667	0.11632
1668	0.11413
1669	0.11256
1670	0.1122
1671	0.11255
1672	0.11333
1673	0.11413
1674	0.11478
1675	0.11649
1676	0.11987
1677	0.12251
1678	0.12461
1679	0.12671
1680	0.12885
1681	0.13038
1682	0.1302
1683	0.12818
1684	0.12412
1685	0.11884
1686	0.11459
1687	0.10983
1688	0.10368
1689	0.09664
1690	0.08965
1691	0.08306
1692	0.07709
1693	0.07169
1694	0.06682
1695	0.06194
1696	0.05601
1697	0.05132
1698	0.04836
1699	0.0458
1700	0.04329
1701	0.04194
1702	0.04108
1703	0.04022
1704	0.03975
1705	0.03978
1706	0.04043
1707	0.04183
1708	0.04328
1709	0.0447
1710	0.04659
1711	0.04891
1712	0.05101
1713	0.05292
1714	0.05541
1715	0.05889
1716	0.06202
1717	0.06497
1718	0.07069
1719	0.07747
1720	0.08214
1721	0.08606
1722	0.09056
1723	0.09601
1724	0.10239
1725	0.10873
1726	0.11489
1727	0.12119
1728	0.12737
1729	0.13396
1730	0.14272
1731	0.15141
1732	0.157
1733	0.1625
1734	0.17628
1735	0.19508
1736	0.20532
1737	0.21343
1738	0.22184
1739	0.23008
1740	0.23809
1741	0.24256
1742	0.24228
1743	0.2395
1744	0.23539
1745	0.23079
1746	0.22598
1747	0.22156
1748	0.21887
1749	0.21851
1750	0.21988
1751	0.22363
1752	0.22908
1753	0.23384
1754	0.23815
1755	0.24215
1756	0.24598
1757	0.25045
1758	0.25424
1759	0.25661
1760	0.25796
1761	0.25891
1762	0.26051
1763	0.26225
1764	0.2636
1765	0.26506
1766	0.26634
1767	0.26718
1768	0.26785
1769	0.26745
1770	0.26472
1771	0.25939
1772	0.2512
1773	0.24201
1774	0.23467
1775	0.22866
1776	0.22325
1777	0.21935
1778	0.21743
1779	0.21728
1780	0.2191
1781	0.22285
1782	0.22726
1783	0.23152
1784	0.23607
1785	0.24099
1786	0.24438
1787	0.24493
1788	0.24314
1789	0.23913
1790	0.23288
1791	0.22433
1792	0.21353
1793	0.20109
1794	0.18984
1795	0.17964
1796	0.16834
1797	0.15683
1798	0.14661
1799	0.13679
1800	0.12678
1801	0.11753
1802	0.10918
1803	0.10159
1804	0.09502
1805	0.08907
1806	0.08343
1807	0.07817
1808	0.07336
1809	0.06909
1810	0.06524
1811	0.0617
1812	0.05863
1813	0.05602
1814	0.05369
1815	0.05145
1816	0.04924
1817	0.04724
1818	0.04557
1819	0.0441
1820	0.04265
1821	0.04123
1822	0.03986
1823	0.03843
1824	0.03715
1825	0.0363
1826	0.03559
1827	0.03446
1828	0.03301
1829	0.03198
1830	0.03177
1831	0.03151
1832	0.03075
1833	0.02999
1834	0.02936
1835	0.02867
1836	0.028
1837	0.02747
1838	0.02704
1839	0.02657
1840	0.02598
1841	0.02534
1842	0.02441
1843	0.02344
1844	0.02343
1845	0.024
1846	0.02363
1847	0.02301
1848	0.02281
1849	0.02272
1850	0.02246
1851	0.02216
1852	0.02187
1853	0.02161
1854	0.02136
1855	0.02112
1856	0.02091
1857	0.02072
1858	0.02057
1859	0.02041
1860	0.02023
1861	0.02014
1862	0.0201
1863	0.01996
1864	0.01967
1865	0.01929
1866	0.01884
1867	0.01836
1868	0.01811
1869	0.01859
1870	0.01922
1871	0.01929
1872	0.0192
1873	0.0192
1874	0.01913
1875	0.01903
1876	0.01902
1877	0.01907
1878	0.01911
1879	0.01911
1880	0.01909
1881	0.01908
1882	0.01907
1883	0.01897
1884	0.01884
1885	0.01883
1886	0.01886
1887	0.01872
1888	0.01837
1889	0.01835
1890	0.01882
1891	0.01902
1892	0.01887
1893	0.01865
1894	0.01838
1895	0.01842
1896	0.01869
1897	0.01882
1898	0.01881
1899	0.01869
1900	0.01862
1901	0.01871
1902	0.01882
1903	0.01872
1904	0.01856
1905	0.01836
1906	0.01813
1907	0.01787
1908	0.01756
1909	0.01732
1910	0.01732
1911	0.01742
1912	0.01733
1913	0.0171
1914	0.01683
1915	0.01654
1916	0.01609
1917	0.01579
1918	0.01609
1919	0.01639
1920	0.01611
1921	0.0156
1922	0.01535
1923	0.01557
1924	0.01576
1925	0.01561
1926	0.01553
1927	0.01549
1928	0.01543
1929	0.01527
1930	0.01514
1931	0.01506
1932	0.01495
1933	0.01486
1934	0.01478
1935	0.01466
1936	0.01453
1937	0.01443
1938	0.01428
1939	0.01406
1940	0.01371
1941	0.01326
1942	0.01315
1943	0.0134
1944	0.01332
1945	0.01302
1946	0.01299
1947	0.01305
1948	0.01287
1949	0.01268
1950	0.0126
1951	0.01255
1952	0.01248
1953	0.01231
1954	0.01211
1955	0.01202
1956	0.012
1957	0.01193
1958	0.0118
1959	0.01166
1960	0.01154
1961	0.0115
1962	0.01151
1963	0.01144
1964	0.01119
1965	0.01086
1966	0.01061
1967	0.01065
1968	0.01083
1969	0.01079
1970	0.0106
1971	0.0105
1972	0.0105
1973	0.0105
1974	0.01036
1975	0.01018
1976	0.01008
1977	0.01005
1978	0.00991
1979	0.00971
1980	0.00958
1981	0.00959
1982	0.00969
1983	0.00966
1984	0.00948
1985	0.00929
1986	0.00918
1987	0.00916
1988	0.00918
1989	0.00911
1990	0.00883
1991	0.00862
1992	0.00878
1993	0.00902
1994	0.00891
1995	0.00872
1996	0.00875
1997	0.00886
1998	0.00891
1999	0.00872
2000	0.00854
2001	0.00853
2002	0.00867
2003	0.0087
2004	0.00854
2005	0.00836
2006	0.00836
2007	0.00849
2008	0.00854
2009	0.0084
2010	0.0082
2011	0.00816
2012	0.00825
2013	0.00828
2014	0.00813
2015	0.00789
2016	0.00785
2017	0.00807
2018	0.00825
2019	0.00823
2020	0.00819
2021	0.00828
2022	0.00849
2023	0.00856
2024	0.0084
2025	0.00822
2026	0.00833
2027	0.00864
2028	0.0088
2029	0.00868
2030	0.00853
2031	0.00866
2032	0.00897
2033	0.00914
2034	0.009
2035	0.00883
2036	0.00891
2037	0.00922
2038	0.00935
2039	0.00911
2040	0.00882
2041	0.00893
2042	0.00931
2043	0.00941
2044	0.00915
2045	0.00895
2046	0.0091
2047	0.00946
2048	0.00958
2049	0.00932
2050	0.00907
2051	0.00912
2052	0.0094
2053	0.00947
2054	0.00923
2055	0.00896
2056	0.00903
2057	0.00932
2058	0.0094
2059	0.00916
2060	0.00893
2061	0.009
2062	0.00922
2063	0.00919
2064	0.00891
2065	0.00872
2066	0.00888
2067	0.00911
2068	0.00912
2069	0.00888
2070	0.00868
2071	0.00872
2072	0.0089
2073	0.0089
2074	0.00864
2075	0.00841
2076	0.00843
2077	0.00856
2078	0.00858
2079	0.00838
2080	0.00825
2081	0.0084
2082	0.00865
2083	0.00867
2084	0.00839
2085	0.00817
2086	0.00828
2087	0.00851
2088	0.00854
2089	0.00835
2090	0.00822
2091	0.00835
2092	0.00856
2093	0.00859
2094	0.0084
2095	0.00824
2096	0.0083
2097	0.00844
2098	0.00844
2099	0.0083
2100	0.00819
2101	0.00824
2102	0.00836
2103	0.00837
2104	0.00832
2105	0.00831
2106	0.00843
2107	0.00854
2108	0.0085
2109	0.00833
2110	0.00819
2111	0.00828
2112	0.00847
2113	0.00846
2114	0.00832
2115	0.00832
2116	0.00845
2117	0.00864
2118	0.00872
2119	0.00866
2120	0.00863
2121	0.00876
2122	0.00891
2123	0.00895
2124	0.00896
2125	0.00903
2126	0.00911
2127	0.00916
2128	0.00916
2129	0.00917
2130	0.0093
2131	0.00947
2132	0.00958
2133	0.00958
2134	0.00956
2135	0.00961
2136	0.00977
2137	0.00987
2138	0.00982
2139	0.00975
2140	0.00981
2141	0.00995
2142	0.01003
2143	0.01
2144	0.00994
2145	0.00995
2146	0.01001
2147	0.00998
2148	0.00988
2149	0.00982
2150	0.0099
2151	0.00994
2152	0.00982
2153	0.00965
2154	0.0096
2155	0.00963
2156	0.00964
2157	0.00954
2158	0.00934
2159	0.00919
2160	0.00917
2161	0.00919
2162	0.00914
2163	0.00904
2164	0.00896
2165	0.00895
2166	0.00886
2167	0.00871
2168	0.00858
2169	0.00856
2170	0.00862
2171	0.00862
2172	0.00845
2173	0.00827
2174	0.00821
2175	0.00825
2176	0.00827
2177	0.0083
2178	0.0083
2179	0.0083
2180	0.0083
2181	0.0083
2182	0.0083
2183	0.0083
2184	0.0083
2185	0.0083
2186	0.0083
2187	0.0083
2188	0.0083
2189	0.0083
2190	0.0083
2191	0.0083
2192	0.0083
2193	0.0083
2194	0.0083
2195	0.0083
2196	0.0083
2197	0.0083
2198	0.0083
2199	0.0083
2200	0.0083
2201	0.0083
2202	0.0083
2203	0.0083
2204	0.0083
2205	0.0083
2206	0.0083
2207	0.0083
2208	0.0083
2209	0.0083
2210	0.0083
2211	0.0083
2212	0.0083
2213	0.0083
2214	0.0083
2215	0.0083
2216	0.0083
2217	0.0083
2218	0.0083
2219	0.0083
2220	0.0083
2221	0.0083
2222	0.0083
2223	0.0083
2224	0.0083
2225	0.0083
2226	0.0083
2227	0.0083
2228	0.0083
2229	0.0083
2230	0.0083
2231	0.0083
2232	0.0083
2233	0.0083
2234	0.0083
2235	0.0083
2236	0.0083
2237	0.0083
2238	0.0083
2239	0.0083
2240	0.0083
2241	0.0083
2242	0.0083
2243	0.0083
2244	0.0083
2245	0.0083
2246	0.0083
2247	0.0083
2248	0.0083
2249	0.0083
2250	0.0083
2251	0.0083
2252	0.0083
2253	0.0083
2254	0.0083
2255	0.0083
2256	0.0083
2257	0.0083
2258	0.0083
2259	0.0083
2260	0.0083
2261	0.0083
2262	0.0083
2263	0.0083
2264	0.0083
2265	0.0083
2266	0.0083
2267	0.0083
2268	0.0083
2269	0.0083
2270	0.0083
2271	0.0083
2272	0.0083
2273	0.0083
2274	0.0083
2275	0.0083
2276	0.0083
2277	0.0083
2278	0.0083
2279	0.0083
2280	0.0083
2281	0.0083
2282	0.0083
2283	0.0083
2284	0.0083
2285	0.0083
2286	0.0083
2287	0.0083
2288	0.0083
2289	0.0083
2290	0.0083
2291	0.0083
2292	0.0083
2293	0.0083
2294	0.0083
2295	0.0083
2296	0.0083
2297	0.0083
2298	0.0083
2299	0.0083
2300	0.0083
2301	0.0083
2302	0.0083
2303	0.0083
2304	0.0083
2305	0.0083
2306	0.0083
2307	0.0083
2308	0.0083
2309	0.0083
2310	0.0083
2311	0.0083
2312	0.0083
2313	0.0083
2314	0.0083
2315	0.0083
2316	0.0083
2317	0.0083
2318	0.0083
2319	0.0083
2320	0.0083
2321	0.0083
2322	0.0083
2323	0.0083
2324	0.0083
2325	0.0083
2326	0.0083
2327	0.0083
2328	0.0083
2329	0.0083
2330	0.0083
2331	0.0083
2332	0.0083
2333	0.0083
2334	0.0083
2335	0.0083
2336	0.0083
2337	0.0083
2338	0.0083
2339	0.0083
2340	0.0083
2341	0.0083
2342	0.0083
2343	0.0083
2344	0.0083
2345	0.0083
2346	0.0083
2347	0.0083
2348	0.0083
2349	0.0083
2350	0.0083
2351	0.0083
2352	0.0083
2353	0.0083
2354	0.0083
2355	0.0083
2356	0.0083
2357	0.0083
2358	0.0083
2359	0.0083
2360	0.0083
2361	0.0083
2362	0.0083
2363	0.0083
2364	0.0083
2365	0.0083
2366	0.0083
2367	0.0083
2368	0.0083
2369	0.0083
2370	0.0083
2371	0.0083
2372	0.0083
2373	0.0083
2374	0.0083
2375	0.0083
2376	0.0083
2377	0.0083
2378	0.0083
2379	0.0083
2380	0.0083
2381	0.0083
2382	0.0083
2383	0.0083
2384	0.0083
2385	0.0083
2386	0.0083
2387	0.0083
2388	0.0083
2389	0.0083
2390	0.0083
2391	0.0083
2392	0.0083
2393	0.0083
2394	0.0083
2395	0.0083
2396	0.0083
2397	0.0083
2398	0.0083
2399	0.0083
2400	0.0083
2401	0.0083
2402	0.0083
2403	0.0083
2404	0.0083
2405	0.0083
2406	0.0083
2407	0.00841
2408	0.00851
2409	0.00854
2410	0.00858
2411	0.00869
2412	0.00881
2413	0.00893
2414	0.00903
2415	0.00915
2416	0.00928
2417	0.0094
2418	0.00946
2419	0.00947
2420	0.00953
2421	0.00961
2422	0.00973
2423	0.00988
2424	0.00997
2425	0.01004
2426	0.01011
2427	0.01024
2428	0.0104
2429	0.01059
2430	0.01072
2431	0.0108
2432	0.01097
2433	0.01121
2434	0.01142
2435	0.01148
2436	0.01157
2437	0.0117
2438	0.01182
2439	0.01191
2440	0.01198
2441	0.0121
2442	0.01225
2443	0.01241
2444	0.01259
2445	0.01276
2446	0.0129
2447	0.01303
2448	0.01316
2449	0.01326
2450	0.01334
2451	0.01338
2452	0.01347
2453	0.01365
2454	0.01387
2455	0.01398
2456	0.014
2457	0.01411
2458	0.01426
2459	0.01439
2460	0.01451
2461	0.0146
2462	0.01472
2463	0.0148
2464	0.01492
2465	0.01501
2466	0.0151
2467	0.01525
2468	0.01544
2469	0.0156
2470	0.01575
2471	0.01591
2472	0.01604
2473	0.01609
2474	0.01612
2475	0.0162
2476	0.01629
2477	0.01637
2478	0.01643
2479	0.01643
2480	0.01647
2481	0.01658
2482	0.01674
2483	0.01689
2484	0.01699
2485	0.01713
2486	0.01727
2487	0.01735
2488	0.01737
2489	0.01738
2490	0.01744
2491	0.01762
2492	0.01778
2493	0.01788
2494	0.01789
2495	0.01794
2496	0.01807
2497	0.01824
2498	0.01838
2499	0.01843
2500	0.01843
2501	0.01854
2502	0.01873
2503	0.01885
2504	0.01884
2505	0.01887
2506	0.01907
2507	0.01932
2508	0.01944
2509	0.01938
2510	0.01936
2511	0.01951
2512	0.0197
2513	0.01982
2514	0.01982
2515	0.01983
2516	0.01997
2517	0.02023
2518	0.02044
2519	0.02057
2520	0.02064
2521	0.02074
2522	0.02089
2523	0.02095
2524	0.02094
2525	0.02099
2526	0.02121
2527	0.0215
2528	0.02167
2529	0.02169
2530	0.02174
2531	0.02191
2532	0.02216
2533	0.02235
2534	0.02241
2535	0.02252
2536	0.02274
2537	0.02301
2538	0.02323
2539	0.02329
2540	0.02331
2541	0.02345
2542	0.02366
2543	0.02385
2544	0.02383
2545	0.02391
2546	0.02414
2547	0.02441
2548	0.02453
2549	0.02457
2550	0.02463
2551	0.02482
2552	0.02507
2553	0.02522
2554	0.02524
2555	0.02529
2556	0.02548
2557	0.02574
2558	0.02589
2559	0.02594
2560	0.026
2561	0.02613
2562	0.02632
2563	0.02645
2564	0.02653
2565	0.02666
2566	0.02692
2567	0.0272
2568	0.02741
2569	0.02746
2570	0.02743
2571	0.02758
2572	0.02784
2573	0.02803
2574	0.02807
2575	0.02819
2576	0.02844
2577	0.02875
2578	0.02901
2579	0.02914
2580	0.02924
2581	0.02944
2582	0.02972
2583	0.02994
2584	0.0301
2585	0.03024
2586	0.03045
2587	0.03069
2588	0.03087
2589	0.031
2590	0.03116
2591	0.03144
2592	0.03179
2593	0.03205
2594	0.03214
2595	0.03222
2596	0.03236
2597	0.03258
2598	0.03278
2599	0.03294
2600	0.03311
2601	0.03333
2602	0.03357
2603	0.0338
2604	0.03393
2605	0.03401
2606	0.03417
2607	0.03443
2608	0.03463
2609	0.03474
2610	0.03489
2611	0.0352
2612	0.03551
2613	0.03572
2614	0.03588
2615	0.03606
2616	0.03635
2617	0.0367
2618	0.03708
2619	0.03738
2620	0.03766
2621	0.03794
2622	0.03823
2623	0.03856
2624	0.0389
2625	0.03916
2626	0.03939
2627	0.03968
2628	0.03999
2629	0.04031
2630	0.04052
2631	0.04073
2632	0.04102
2633	0.04139
2634	0.04176
2635	0.04208
2636	0.04238
2637	0.0427
2638	0.04301
2639	0.0433
2640	0.04359
2641	0.04387
2642	0.0442
2643	0.04458
2644	0.0449
2645	0.04513
2646	0.04533
2647	0.04558
2648	0.04592
2649	0.04622
2650	0.04646
2651	0.04671
2652	0.04702
2653	0.04738
2654	0.04766
2655	0.04784
2656	0.04805
2657	0.04831
2658	0.0486
2659	0.04889
2660	0.04916
2661	0.04944
2662	0.04971
2663	0.04998
2664	0.05021
2665	0.05043
2666	0.05066
2667	0.05091
2668	0.05116
2669	0.05142
2670	0.0517
2671	0.05196
2672	0.05224
2673	0.05252
2674	0.05279
2675	0.05302
2676	0.0532
2677	0.0534
2678	0.05366
2679	0.05397
2680	0.05425
2681	0.05442
2682	0.05451
2683	0.05465
2684	0.05491
2685	0.05513
2686	0.05535
2687	0.05559
2688	0.05586
2689	0.05607
2690	0.05626
2691	0.05646
2692	0.05666
2693	0.05686
2694	0.05702
2695	0.05715
2696	0.0573
2697	0.05757
2698	0.0579
2699	0.05823
2700	0.05851
2701	0.0587
2702	0.05888
2703	0.05913
2704	0.05948
2705	0.05982
2706	0.06013
2707	0.06044
2708	0.06075
2709	0.06109
2710	0.06141
2711	0.06176
2712	0.06209
2713	0.06246
2714	0.06286
2715	0.06325
2716	0.06362
2717	0.06397
2718	0.06432
2719	0.06476
2720	0.06522
2721	0.06562
2722	0.06601
2723	0.06639
2724	0.06682
2725	0.06722
2726	0.06753
2727	0.0678
2728	0.06812
2729	0.0685
2730	0.06887
2731	0.06917
2732	0.0694
2733	0.06966
2734	0.07007
2735	0.07046
2736	0.07077
2737	0.07102
2738	0.07128
2739	0.07153
2740	0.07172
2741	0.07188
2742	0.072
2743	0.07212
2744	0.07235
2745	0.07269
2746	0.07302
2747	0.07323
2748	0.07336
2749	0.07356
2750	0.0738
2751	0.07397
2752	0.07405
2753	0.0741
2754	0.07416
2755	0.07431
2756	0.07452
2757	0.07462
2758	0.07461
2759	0.07459
2760	0.07466
2761	0.0748
2762	0.07489
2763	0.07491
2764	0.07496
2765	0.0751
2766	0.07522
2767	0.07529
2768	0.07533
2769	0.0754
2770	0.07551
2771	0.07557
2772	0.07562
2773	0.07569
2774	0.07588
2775	0.07612
2776	0.07625
2777	0.07631
2778	0.07645
2779	0.07669
2780	0.07696
2781	0.07722
2782	0.07747
2783	0.07773
2784	0.07801
2785	0.07836
2786	0.07878
2787	0.07908
2788	0.07926
2789	0.07951
2790	0.07992
2791	0.08042
2792	0.08089
2793	0.08123
2794	0.08162
2795	0.08212
2796	0.08271
2797	0.08323
2798	0.08363
2799	0.084
2800	0.08447
2801	0.08501
2802	0.08555
2803	0.08609
2804	0.08669
2805	0.08731
2806	0.0879
2807	0.08848
2808	0.08915
2809	0.08991
2810	0.09069
2811	0.09137
2812	0.09193
2813	0.09254
2814	0.09332
2815	0.09423
2816	0.09502
2817	0.09577
2818	0.09651
2819	0.09737
2820	0.09832
2821	0.09938
2822	0.10034
2823	0.10114
2824	0.10193
2825	0.10277
2826	0.10356
2827	0.10427
2828	0.10498
2829	0.10575
2830	0.10652
2831	0.10718
2832	0.10777
2833	0.10842
2834	0.10922
2835	0.1101
2836	0.11095
2837	0.11185
2838	0.11285
2839	0.11397
2840	0.11513
2841	0.11627
2842	0.11742
2843	0.11878
2844	0.12035
2845	0.12214
2846	0.124
2847	0.1259
2848	0.1279
2849	0.13017
2850	0.13273
2851	0.13526
2852	0.13752
2853	0.1395
2854	0.14122
2855	0.14256
2856	0.14346
2857	0.14401
2858	0.14437
2859	0.14458
2860	0.14472
2861	0.14497
2862	0.1454
2863	0.14606
2864	0.14697
2865	0.14811
2866	0.14943
2867	0.15091
2868	0.15264
2869	0.15462
2870	0.15671
2871	0.15887
2872	0.16102
2873	0.1631
2874	0.16504
2875	0.16693
2876	0.16881
2877	0.1706
2878	0.1723
2879	0.17385
2880	0.17524
2881	0.17649
2882	0.17761
2883	0.17867
2884	0.17973
2885	0.18083
2886	0.18193
2887	0.18303
2888	0.18428
2889	0.18569
2890	0.1872
2891	0.18875
2892	0.19035
2893	0.19201
2894	0.19383
2895	0.19573
2896	0.19766
2897	0.19953
2898	0.20151
2899	0.20365
2900	0.20595
2901	0.20831
2902	0.21071
2903	0.21314
2904	0.2156
2905	0.21811
2906	0.22062
2907	0.22308
2908	0.22545
2909	0.2278
2910	0.23029
2911	0.2329
2912	0.23554
2913	0.23819
2914	0.2409
2915	0.24374
2916	0.24668
2917	0.24967
2918	0.25279
2919	0.25613
2920	0.25982
2921	0.26374
2922	0.26751
2923	0.2709
2924	0.27383
2925	0.27638
2926	0.27838
2927	0.27971
2928	0.2804
2929	0.28052
2930	0.28002
2931	0.27891
2932	0.27722
2933	0.27492
2934	0.27196
2935	0.26841
2936	0.26441
2937	0.26005
2938	0.25555
2939	0.25114
2940	0.24688
2941	0.24273
2942	0.23865
2943	0.23468
2944	0.23075
2945	0.22686
2946	0.22296
2947	0.219
2948	0.21506
2949	0.21134
2950	0.20793
2951	0.20491
2952	0.20228
2953	0.19996
2954	0.19798
2955	0.19645
2956	0.19526
2957	0.19416
2958	0.19295
2959	0.19164
2960	0.19032
2961	0.18895
2962	0.18739
2963	0.18564
2964	0.18397
2965	0.18254
2966	0.18121
2967	0.1799
2968	0.17871
2969	0.17765
2970	0.17674
2971	0.17592
2972	0.17517
2973	0.17438
2974	0.17356
2975	0.1729
2976	0.17243
2977	0.17189
2978	0.17093
2979	0.1696
2980	0.16802
2981	0.16618
2982	0.164
2983	0.16167
2984	0.15935
2985	0.15707
2986	0.15481
2987	0.15264
2988	0.15064
2989	0.14884
2990	0.14726
2991	0.14595
2992	0.14484
2993	0.14389
2994	0.14314
2995	0.14257
2996	0.14203
2997	0.14146
2998	0.14086
2999	0.14034
3000	0.14
3001	0.13975
3002	0.13958
3003	0.13953
3004	0.13962
3005	0.13982
3006	0.13991
3007	0.13992
3008	0.13992
3009	0.13999
3010	0.14005
3011	0.14009
3012	0.14016
3013	0.14032
3014	0.14057
3015	0.14088
3016	0.14119
3017	0.14151
3018	0.1419
3019	0.1423
3020	0.14268
3021	0.14307
3022	0.14353
3023	0.14399
3024	0.14438
3025	0.1448
3026	0.14543
3027	0.14615
3028	0.14673
3029	0.14719
3030	0.14762
3031	0.14832
3032	0.14921
3033	0.15013
3034	0.15092
3035	0.15168
3036	0.1525
3037	0.15344
3038	0.15436
3039	0.15512
3040	0.15583
3041	0.1567
3042	0.15765
3043	0.15853
3044	0.15927
3045	0.15995
3046	0.16064
3047	0.16141
3048	0.16225
3049	0.16311
3050	0.16389
3051	0.16463
3052	0.16551
3053	0.16639
3054	0.16708
3055	0.1677
3056	0.16843
3057	0.16929
3058	0.17014
3059	0.17093
3060	0.17166
3061	0.17234
3062	0.17308
3063	0.1739
3064	0.17475
3065	0.17555
3066	0.17631
3067	0.17724
3068	0.17824
3069	0.17907
3070	0.17974
3071	0.18044
3072	0.18127
3073	0.18214
3074	0.18293
3075	0.18369
3076	0.18443
3077	0.18516
3078	0.18587
3079	0.18659
3080	0.18745
3081	0.18841
3082	0.18931
3083	0.19015
3084	0.19089
3085	0.19166
3086	0.19255
3087	0.19356
3088	0.19459
3089	0.1955
3090	0.19629
3091	0.19714
3092	0.19817
3093	0.19931
3094	0.20034
3095	0.20121
3096	0.20212
3097	0.20317
3098	0.20412
3099	0.20486
3100	0.20564
3101	0.20667
3102	0.20785
3103	0.2089
3104	0.20975
3105	0.21063
3106	0.21161
3107	0.21271
3108	0.21379
3109	0.21472
3110	0.21554
3111	0.21656
3112	0.21776
3113	0.21883
3114	0.21973
3115	0.22065
3116	0.22178
3117	0.22308
3118	0.22431
3119	0.22541
3120	0.2265
3121	0.22776
3122	0.22923
3123	0.23074
3124	0.23205
3125	0.23317
3126	0.23432
3127	0.23565
3128	0.23695
3129	0.23811
3130	0.23933
3131	0.24076
3132	0.24231
3133	0.2438
3134	0.24516
3135	0.24647
3136	0.24785
3137	0.24921
3138	0.25036
3139	0.25146
3140	0.2527
3141	0.25426
3142	0.25594
3143	0.25741
3144	0.25865
3145	0.25996
3146	0.2615
3147	0.26302
3148	0.26443
3149	0.26573
3150	0.26696
3151	0.26821
3152	0.26956
3153	0.27106
3154	0.27262
3155	0.27412
3156	0.27556
3157	0.27702
3158	0.27845
3159	0.27983
3160	0.28115
3161	0.28244
3162	0.28381
3163	0.28518
3164	0.28645
3165	0.28761
3166	0.28881
3167	0.29017
3168	0.29167
3169	0.29307
3170	0.29428
3171	0.2954
3172	0.29647
3173	0.2977
3174	0.2991
3175	0.30044
3176	0.30161
3177	0.3027
3178	0.30387
3179	0.30516
3180	0.30649
3181	0.30784
3182	0.30917
3183	0.31056
3184	0.3119
3185	0.31313
3186	0.31433
3187	0.31567
3188	0.31705
3189	0.31841
3190	0.31976
3191	0.32112
3192	0.32254
3193	0.324
3194	0.3254
3195	0.32659
3196	0.32776
3197	0.32907
3198	0.33054
3199	0.33197
3200	0.33322
3201	0.33438
3202	0.33561
3203	0.33689
3204	0.33815
3205	0.33935
3206	0.34052
3207	0.34182
3208	0.34316
3209	0.34438
3210	0.3455
3211	0.34661
3212	0.34773
3213	0.34878
3214	0.34975
3215	0.35076
3216	0.35188
3217	0.35292
3218	0.35375
3219	0.35454
3220	0.35551
3221	0.3566
3222	0.35768
3223	0.35876
3224	0.35965
3225	0.36035
3226	0.36108
3227	0.36197
3228	0.36292
3229	0.3637
3230	0.36434
3231	0.36494
3232	0.36555
3233	0.36625
3234	0.36701
3235	0.36788
3236	0.36894
3237	0.36999
3238	0.37094
3239	0.37182
3240	0.3727
3241	0.37357
3242	0.37448
3243	0.37534
3244	0.37612
3245	0.37688
3246	0.37765
3247	0.37848
3248	0.37946
3249	0.38056
3250	0.38162
3251	0.38258
3252	0.38354
3253	0.38447
3254	0.38526
3255	0.38595
3256	0.38684
3257	0.38794
3258	0.38907
3259	0.39005
3260	0.39099
3261	0.39204
3262	0.39308
3263	0.39398
3264	0.39486
3265	0.3958
3266	0.39681
3267	0.39779
3268	0.39857
3269	0.39914
3270	0.39976
3271	0.40069
3272	0.40179
3273	0.40283
3274	0.40365
3275	0.40441
3276	0.40539
3277	0.40646
3278	0.40737
3279	0.40808
3280	0.40872
3281	0.40939
3282	0.41017
3283	0.41101
3284	0.41177
3285	0.41238
3286	0.41285
3287	0.41332
3288	0.41385
3289	0.41434
3290	0.41472
3291	0.41508
3292	0.41541
3293	0.41568
3294	0.41587
3295	0.41608
3296	0.41637
3297	0.41676
3298	0.41706
3299	0.41723
3300	0.41733
3301	0.41747
3302	0.41765
3303	0.41763
3304	0.41749
3305	0.41744
3306	0.41731
3307	0.41707
3308	0.41681
3309	0.41662
3310	0.4166
3311	0.41674
3312	0.41677
3313	0.41655
3314	0.41627
3315	0.41612
3316	0.41596
3317	0.41565
3318	0.41522
3319	0.41472
3320	0.41417
3321	0.41367
3322	0.41318
3323	0.41267
3324	0.41217
3325	0.4116
3326	0.41095
3327	0.41042
3328	0.40996
3329	0.40938
3330	0.40868
3331	0.40796
3332	0.40726
3333	0.40649
3334	0.40565
3335	0.4048
3336	0.40371
3337	0.40242
3338	0.40118
3339	0.40015
3340	0.39931
3341	0.39847
3342	0.39751
3343	0.39643
3344	0.39527
3345	0.39414
3346	0.39303
3347	0.39185
3348	0.3905
3349	0.38892
3350	0.38718
3351	0.38557
3352	0.38424
3353	0.38297
3354	0.38148
3355	0.37978
3356	0.37806
3357	0.37635
3358	0.37459
3359	0.37293
3360	0.37129
3361	0.36962
3362	0.36803
3363	0.3664
3364	0.36449
3365	0.36244
3366	0.36042
3367	0.3584
3368	0.3563
3369	0.3542
3370	0.35222
3371	0.35045
3372	0.34876
3373	0.34703
3374	0.34531
3375	0.34343
3376	0.34128
3377	0.33909
3378	0.33719
3379	0.33544
3380	0.33352
3381	0.33145
3382	0.32958
3383	0.32791
3384	0.32628
3385	0.32453
3386	0.32257
3387	0.32074
3388	0.3191
3389	0.31737
3390	0.3153
3391	0.313
3392	0.31086
3393	0.3091
3394	0.30749
3395	0.30584
3396	0.30423
3397	0.30261
3398	0.30062
3399	0.29827
3400	0.296
3401	0.29409
3402	0.29237
3403	0.29082
3404	0.28948
3405	0.28812
3406	0.28649
3407	0.28464
3408	0.28261
3409	0.2807
3410	0.27907
3411	0.27743
3412	0.27552
3413	0.27369
3414	0.27214
3415	0.27074
3416	0.26924
3417	0.26761
3418	0.26591
3419	0.26418
3420	0.26246
3421	0.26094
3422	0.25965
3423	0.25833
3424	0.25685
3425	0.25526
3426	0.25372
3427	0.25224
3428	0.25064
3429	0.24893
3430	0.24729
3431	0.24585
3432	0.24461
3433	0.24327
3434	0.24168
3435	0.24009
3436	0.23872
3437	0.23744
3438	0.23633
3439	0.23538
3440	0.23427
3441	0.23302
3442	0.2318
3443	0.23063
3444	0.22945
3445	0.22836
3446	0.22731
3447	0.22625
3448	0.2252
3449	0.22411
3450	0.22288
3451	0.22153
3452	0.22018
3453	0.21899
3454	0.21791
3455	0.21693
3456	0.21603
3457	0.21519
3458	0.21428
3459	0.21323
3460	0.21207
3461	0.21103
3462	0.21019
3463	0.20922
3464	0.20805
3465	0.20705
3466	0.20624
3467	0.20528
3468	0.20421
3469	0.20339
3470	0.20278
3471	0.2021
3472	0.20117
3473	0.20024
3474	0.19959
3475	0.19906
3476	0.19841
3477	0.19767
3478	0.19698
3479	0.19632
3480	0.1956
3481	0.19484
3482	0.19412
3483	0.19342
3484	0.19274
3485	0.19221
3486	0.19164
3487	0.19104
3488	0.19057
3489	0.1902
3490	0.18972
3491	0.18904
3492	0.18835
3493	0.18782
3494	0.18745
3495	0.18684
3496	0.18607
3497	0.18539
3498	0.18474
3499	0.18391
3500	0.18299
3501	0.18218
3502	0.18146
3503	0.18071
3504	0.17993
3505	0.17923
3506	0.17846
3507	0.1774
3508	0.17623
3509	0.17537
3510	0.17469
3511	0.17399
3512	0.17322
3513	0.17231
3514	0.17142
3515	0.17055
3516	0.16969
3517	0.16876
3518	0.1678
3519	0.16692
3520	0.1661
3521	0.16523
3522	0.16454
3523	0.16408
3524	0.1635
3525	0.16255
3526	0.16155
3527	0.16082
3528	0.16039
3529	0.16003
3530	0.15963
3531	0.15934
3532	0.15908
3533	0.15854
3534	0.15777
3535	0.15719
3536	0.15703
3537	0.15686
3538	0.15634
3539	0.15581
3540	0.1556
3541	0.15554
3542	0.15541
3543	0.15512
3544	0.15473
3545	0.15452
3546	0.1546
3547	0.15478
3548	0.1547
3549	0.15428
3550	0.15375
3551	0.15336
3552	0.15341
3553	0.15362
3554	0.15356
3555	0.15336
3556	0.15327
3557	0.15323
3558	0.15303
3559	0.15284
3560	0.15286
3561	0.15271
3562	0.15226
3563	0.15186
3564	0.15132
3565	0.15047
3566	0.14998
3567	0.15051
3568	0.15168
3569	0.15189
3570	0.15115
3571	0.15047
3572	0.15008
3573	0.14965
3574	0.1492
3575	0.14859
3576	0.14802
3577	0.1477
3578	0.14735
3579	0.14672
3580	0.146
3581	0.14537
3582	0.14475
3583	0.14399
3584	0.1429
3585	0.14163
3586	0.14093
3587	0.14094
3588	0.14111
3589	0.1408
3590	0.1397
3591	0.13823
3592	0.13697
3593	0.136
3594	0.13518
3595	0.1347
3596	0.13425
3597	0.13326
3598	0.13228
3599	0.13144
3600	0.13073
3601	0.13031
3602	0.12983
3603	0.12902
3604	0.12775
3605	0.12608
3606	0.12483
3607	0.12432
3608	0.12419
3609	0.12428
3610	0.12359
3611	0.12182
3612	0.12073
3613	0.12029
3614	0.1194
3615	0.11799
3616	0.11625
3617	0.11473
3618	0.11394
3619	0.11389
3620	0.11374
3621	0.11242
3622	0.11058
3623	0.10898
3624	0.1075
3625	0.10597
3626	0.10422
3627	0.10231
3628	0.10186
3629	0.10453
3630	0.10544
3631	0.10258
3632	0.10009
3633	0.09908
3634	0.09887
3635	0.09805
3636	0.09665
3637	0.09559
3638	0.09491
3639	0.09417
3640	0.09314
3641	0.09203
3642	0.09095
3643	0.08969
3644	0.08793
3645	0.08583
3646	0.08416
3647	0.08352
3648	0.08286
3649	0.08201
3650	0.0828
3651	0.08423
3652	0.0829
3653	0.08009
3654	0.07745
3655	0.07582
3656	0.07633
3657	0.07689
3658	0.07508
3659	0.07329
3660	0.07228
3661	0.07148
3662	0.07065
3663	0.06984
3664	0.0689
3665	0.06769
3666	0.06607
3667	0.06418
3668	0.06263
3669	0.06224
3670	0.06383
3671	0.0651
3672	0.06281
3673	0.05887
3674	0.05639
3675	0.05874
3676	0.0633
3677	0.06151
3678	0.05846
3679	0.05767
3680	0.0578
3681	0.05669
3682	0.05517
3683	0.05406
3684	0.05323
3685	0.05206
3686	0.04991
3687	0.04823
3688	0.04911
3689	0.05054
3690	0.05004
3691	0.05028
3692	0.05039
3693	0.04898
3694	0.04755
3695	0.04663
3696	0.04611
3697	0.04584
3698	0.04537
3699	0.04424
3700	0.04308
3701	0.04368
3702	0.04552
3703	0.0453
3704	0.04385
3705	0.04308
3706	0.04249
3707	0.04115
3708	0.03974
3709	0.03962
3710	0.03961
3711	0.04006
3712	0.0436
3713	0.04582
3714	0.04434
3715	0.04304
3716	0.04196
3717	0.04054
3718	0.03974
3719	0.03951
3720	0.03842
3721	0.03714
3722	0.03734
3723	0.03759
3724	0.03653
3725	0.03567
3726	0.03607
3727	0.03677
3728	0.03638
3729	0.03494
3730	0.03316
3731	0.03282
3732	0.03437
3733	0.03369
3734	0.03189
3735	0.03349
3736	0.03644
3737	0.03714
3738	0.0366
3739	0.03536
3740	0.03454
3741	0.03414
3742	0.03226
3743	0.03048
3744	0.03455
3745	0.04116
3746	0.03904
3747	0.03352
3748	0.0312
3749	0.03239
3750	0.03363
3751	0.03428
3752	0.03792
3753	0.03954
3754	0.03662
3755	0.03398
3756	0.03365
3757	0.03334
3758	0.032
3759	0.03289
3760	0.03573
3761	0.03546
3762	0.0336
3763	0.03231
3764	0.0316
3765	0.03248
3766	0.03417
3767	0.03326
3768	0.031
3769	0.03108
3770	0.03362
3771	0.03454
3772	0.03308
3773	0.03196
3774	0.03153
3775	0.03115
3776	0.03032
3777	0.02904
3778	0.02839
3779	0.02983
3780	0.03162
3781	0.03116
3782	0.02964
3783	0.02877
3784	0.02914
3785	0.03007
3786	0.03017
3787	0.02963
3788	0.02929
3789	0.02922
3790	0.02911
3791	0.02884
3792	0.02847
3793	0.02782
3794	0.02664
3795	0.02594
3796	0.02717
3797	0.0288
3798	0.02767
3799	0.0247
3800	0.02327
3801	0.02624
3802	0.0307
3803	0.03052
3804	0.02716
3805	0.02445
3806	0.02502
3807	0.02895
3808	0.03014
3809	0.02818
3810	0.02669
3811	0.02606
3812	0.02551
3813	0.02428
3814	0.02238
3815	0.0225
3816	0.02705
3817	0.02831
3818	0.02425
3819	0.02089
3820	0.02096
3821	0.02627
3822	0.0302
3823	0.02749
3824	0.02457
3825	0.02327
3826	0.02367
3827	0.02504
3828	0.02511
3829	0.02349
3830	0.02219
3831	0.02296
3832	0.02396
3833	0.02276
3834	0.02169
3835	0.0216
3836	0.02038
3837	0.02033
3838	0.02281
3839	0.02333
3840	0.02344
3841	0.02404
3842	0.02263
3843	0.02227
3844	0.02398
3845	0.02406
3846	0.0227
3847	0.02164
3848	0.02088
3849	0.02005
3850	0.0185
3851	0.01683
3852	0.01682
3853	0.02118
3854	0.02818
3855	0.02852
3856	0.02424
3857	0.02277
3858	0.02247
3859	0.02102
3860	0.01941
3861	0.0193
3862	0.01965
3863	0.01885
3864	0.01956
3865	0.02294
3866	0.02297
3867	0.01933
3868	0.01643
3869	0.01746
3870	0.02307
3871	0.02359
3872	0.01976
3873	0.0184
3874	0.02064
3875	0.02244
3876	0.02113
3877	0.0193
3878	0.01761
3879	0.0171
3880	0.01935
3881	0.02157
3882	0.02052
3883	0.01825
3884	0.01671
3885	0.01797
3886	0.02139
3887	0.02197
3888	0.01973
3889	0.01752
3890	0.01698
3891	0.01929
3892	0.02138
3893	0.02076
3894	0.01983
3895	0.01933
3896	0.0183
3897	0.0169
3898	0.01675
3899	0.01839
3900	0.01868
3901	0.01781
3902	0.01799
3903	0.0183
3904	0.01928
3905	0.02081
3906	0.02099
3907	0.02007
3908	0.0192
3909	0.01884
3910	0.01882
3911	0.01877
3912	0.0186
3913	0.01832
3914	0.0178
3915	0.01712
3916	0.01732
3917	0.01845
3918	0.01853
3919	0.0181
3920	0.01875
3921	0.01903
3922	0.01792
3923	0.01705
3924	0.01771
3925	0.01923
3926	0.01921
3927	0.01812
3928	0.01756
3929	0.01765
3930	0.0176
3931	0.01756
3932	0.01837
3933	0.01917
3934	0.01893
3935	0.01836
3936	0.0181
3937	0.01814
3938	0.01831
3939	0.01831
3940	0.01777
3941	0.01713
3942	0.01758
3943	0.01873
3944	0.01884
3945	0.01808
3946	0.01762
3947	0.01779
3948	0.01798
3949	0.01799
3950	0.0183
3951	0.01834
3952	0.01795
3953	0.01788
3954	0.01796
3955	0.01793
3956	0.01797
3957	0.018
3958	0.01785
3959	0.01758
3960	0.01726
3961	0.01732
3962	0.01785
3963	0.01819
3964	0.01803
3965	0.01769
3966	0.01738
3967	0.01724
3968	0.01732
3969	0.01737
3970	0.01718
3971	0.01708
3972	0.01727
3973	0.01744
3974	0.01737
3975	0.01742
3976	0.01763
3977	0.01766
3978	0.0175
3979	0.01741
3980	0.01736
3981	0.01724
3982	0.0171
3983	0.01704
3984	0.0171
3985	0.01725
3986	0.01734
3987	0.01727
3988	0.01715
3989	0.01719
3990	0.01747
3991	0.01767
3992	0.01757
3993	0.0174
3994	0.01748
3995	0.01773
3996	0.0178
3997	0.01765