4000.18193	0.02633
3999.21756	0.02625
3998.2532	0.0263
3997.28884	0.0265
3996.32447	0.02715
3995.36011	0.02772
3994.39574	0.02748
3993.43138	0.02704
3992.46702	0.02725
3991.50265	0.02776
3990.53829	0.02796
3989.57392	0.02768
3988.60956	0.02731
3987.6452	0.02719
3986.68083	0.02723
3985.71647	0.0272
3984.7521	0.0271
3983.78774	0.02728
3982.82338	0.02775
3981.85901	0.02791
3980.89465	0.02767
3979.93028	0.02738
3978.96592	0.02732
3978.00156	0.0277
3977.03719	0.02845
3976.07283	0.02903
3975.10846	0.02914
3974.1441	0.02913
3973.17974	0.02924
3972.21537	0.02904
3971.25101	0.02849
3970.28664	0.02842
3969.32228	0.02853
3968.35792	0.02813
3967.39355	0.02769
3966.42919	0.02778
3965.46482	0.02819
3964.50046	0.02865
3963.5361	0.02949
3962.57173	0.03047
3961.60737	0.0303
3960.643	0.0294
3959.67864	0.02922
3958.71428	0.02963
3957.74991	0.03002
3956.78555	0.02997
3955.82118	0.02948
3954.85682	0.02927
3953.89246	0.02962
3952.92809	0.02982
3951.96373	0.03027
3950.99936	0.03184
3950.035	0.03311
3949.07064	0.0333
3948.10627	0.03306
3947.14191	0.03163
3946.17754	0.03011
3945.21318	0.03072
3944.24882	0.0333
3943.28445	0.03525
3942.32009	0.03364
3941.35572	0.03077
3940.39136	0.02989
3939.427	0.03027
3938.46263	0.03041
3937.49827	0.02999
3936.5339	0.02982
3935.56954	0.03066
3934.60518	0.03247
3933.64081	0.03495
3932.67645	0.03661
3931.71208	0.036
3930.74772	0.03492
3929.78336	0.03413
3928.81899	0.03265
3927.85463	0.03158
3926.89026	0.03257
3925.9259	0.0358
3924.96154	0.03832
3923.99717	0.03645
3923.03281	0.03309
3922.06844	0.03232
3921.10408	0.03418
3920.13972	0.03522
3919.17535	0.03478
3918.21099	0.03634
3917.24662	0.0381
3916.28226	0.03566
3915.3179	0.03244
3914.35353	0.03138
3913.38917	0.03138
3912.4248	0.03137
3911.46044	0.0314
3910.49608	0.03144
3909.53171	0.03151
3908.56735	0.03215
3907.60298	0.0345
3906.63862	0.03896
3905.67426	0.04382
3904.70989	0.04575
3903.74553	0.04475
3902.78116	0.04405
3901.8168	0.04244
3900.85244	0.04097
3899.88807	0.04194
3898.92371	0.04089
3897.95934	0.03665
3896.99498	0.03399
3896.03062	0.03397
3895.06625	0.03566
3894.10189	0.03771
3893.13752	0.04049
3892.17316	0.04378
3891.2088	0.04184
3890.24443	0.03634
3889.28007	0.0341
3888.3157	0.03524
3887.35134	0.03926
3886.38698	0.04403
3885.42261	0.04297
3884.45825	0.03958
3883.49388	0.03874
3882.52952	0.04013
3881.56516	0.0442
3880.60079	0.04589
3879.63643	0.03986
3878.67206	0.0355
3877.7077	0.03505
3876.74333	0.03652
3875.77897	0.04027
3874.81461	0.04522
3873.85024	0.04438
3872.88588	0.04127
3871.92151	0.04397
3870.95715	0.05172
3869.99279	0.05386
3869.02842	0.04431
3868.06406	0.03904
3867.09969	0.04044
3866.13533	0.04618
3865.17097	0.05053
3864.2066	0.04748
3863.24224	0.04489
3862.27787	0.04412
3861.31351	0.04109
3860.34915	0.03834
3859.38478	0.03899
3858.42042	0.04241
3857.45605	0.04592
3856.49169	0.0481
3855.52733	0.05268
3854.56296	0.06238
3853.5986	0.06671
3852.63423	0.05744
3851.66987	0.04827
3850.70551	0.04412
3849.74114	0.04258
3848.77678	0.04088
3847.81241	0.03967
3846.84805	0.03994
3845.88369	0.04195
3844.91932	0.0457
3843.95496	0.04781
3842.99059	0.04671
3842.02623	0.04841
3841.06187	0.05367
3840.0975	0.05646
3839.13314	0.05681
3838.16877	0.05524
3837.20441	0.05033
3836.24005	0.04881
3835.27568	0.04895
3834.31132	0.04645
3833.34695	0.04568
3832.38259	0.04781
3831.41823	0.04693
3830.45386	0.04348
3829.4895	0.04305
3828.52513	0.04577
3827.56077	0.04896
3826.59641	0.04878
3825.63204	0.0466
3824.66768	0.04669
3823.70331	0.04976
3822.73895	0.05616
3821.77459	0.06435
3820.81022	0.0612
3819.84586	0.05198
3818.88149	0.04902
3817.91713	0.05142
3816.95277	0.05669
3815.9884	0.05544
3815.02404	0.04754
3814.05967	0.04404
3813.09531	0.04376
3812.13095	0.0442
3811.16658	0.04456
3810.20222	0.04526
3809.23785	0.04759
3808.27349	0.05273
3807.30913	0.05671
3806.34476	0.05225
3805.3804	0.04842
3804.41603	0.05026
3803.45167	0.05655
3802.48731	0.06485
3801.52294	0.06499
3800.55858	0.05546
3799.59421	0.05087
3798.62985	0.05178
3797.66549	0.05503
3796.70112	0.05505
3795.73676	0.05035
3794.77239	0.04709
3793.80803	0.0465
3792.84367	0.04668
3791.8793	0.04684
3790.91494	0.04713
3789.95057	0.04757
3788.98621	0.04795
3788.02185	0.04853
3787.05748	0.0501
3786.09312	0.0528
3785.12875	0.05424
3784.16439	0.05228
3783.20003	0.05011
3782.23566	0.05032
3781.2713	0.05282
3780.30693	0.05633
3779.34257	0.05635
3778.37821	0.05281
3777.41384	0.05067
3776.44948	0.05018
3775.48511	0.05026
3774.52075	0.05054
3773.55639	0.05121
3772.59202	0.05298
3771.62766	0.05665
3770.66329	0.06082
3769.69893	0.05948
3768.73457	0.05507
3767.7702	0.05485
3766.80584	0.05819
3765.84147	0.0597
3764.87711	0.05679
3763.91275	0.05467
3762.94838	0.05478
3761.98402	0.05647
3761.01965	0.06064
3760.05529	0.06517
3759.09093	0.06384
3758.12656	0.06151
3757.1622	0.06183
3756.19783	0.06127
3755.23347	0.06091
3754.26911	0.06461
3753.30474	0.07257
3752.34038	0.07979
3751.37601	0.07962
3750.41165	0.07869
3749.44729	0.0753
3748.48292	0.06923
3747.51856	0.06773
3746.55419	0.07112
3745.58983	0.07822
3744.62547	0.0775
3743.6611	0.06604
3742.69674	0.06382
3741.73237	0.06563
3740.76801	0.06582
3739.80365	0.06529
3738.83928	0.06753
3737.87492	0.07188
3736.91055	0.07744
3735.94619	0.08267
3734.98182	0.07886
3734.01746	0.07202
3733.0531	0.07055
3732.08873	0.06821
3731.12437	0.06245
3730.16	0.05956
3729.19564	0.06018
3728.23128	0.06313
3727.26691	0.06686
3726.30255	0.06821
3725.33818	0.06691
3724.37382	0.06672
3723.40946	0.06919
3722.44509	0.06995
3721.48073	0.06674
3720.51636	0.06604
3719.552	0.06775
3718.58764	0.06742
3717.62327	0.06619
3716.65891	0.06714
3715.69454	0.06951
3714.73018	0.07214
3713.76582	0.07625
3712.80145	0.08241
3711.83709	0.08376
3710.87272	0.07992
3709.90836	0.07677
3708.944	0.07242
3707.97963	0.06929
3707.01527	0.06901
3706.0509	0.06945
3705.08654	0.06944
3704.12218	0.07046
3703.15781	0.07404
3702.19345	0.07739
3701.22908	0.07515
3700.26472	0.07196
3699.30036	0.07163
3698.33599	0.07282
3697.37163	0.07423
3696.40726	0.07521
3695.4429	0.07579
3694.47854	0.07701
3693.51417	0.07948
3692.54981	0.08399
3691.58544	0.09006
3690.62108	0.09325
3689.65672	0.09462
3688.69235	0.09403
3687.72799	0.08774
3686.76362	0.08366
3685.79926	0.08344
3684.8349	0.08435
3683.87053	0.08468
3682.90617	0.08506
3681.9418	0.0867
3680.97744	0.08999
3680.01308	0.09353
3679.04871	0.09527
3678.08435	0.09799
3677.11998	0.10525
3676.15562	0.11641
3675.19126	0.11365
3674.22689	0.10212
3673.26253	0.0994
3672.29816	0.10311
3671.3338	0.11091
3670.36944	0.11584
3669.40507	0.11248
3668.44071	0.10686
3667.47634	0.10358
3666.51198	0.10309
3665.54762	0.10383
3664.58325	0.10473
3663.61889	0.10573
3662.65452	0.10689
3661.69016	0.10833
3660.7258	0.10991
3659.76143	0.11135
3658.79707	0.11341
3657.8327	0.11776
3656.86834	0.12286
3655.90398	0.12246
3654.93961	0.11973
3653.97525	0.12029
3653.01088	0.12424
3652.04652	0.13173
3651.08216	0.14216
3650.11779	0.14821
3649.15343	0.1475
3648.18906	0.14671
3647.2247	0.14316
3646.26034	0.13674
3645.29597	0.13308
3644.33161	0.13313
3643.36724	0.13536
3642.40288	0.13728
3641.43852	0.13753
3640.47415	0.13783
3639.50979	0.13935
3638.54542	0.14108
3637.58106	0.14185
3636.6167	0.14243
3635.65233	0.14461
3634.68797	0.14822
3633.7236	0.15019
3632.75924	0.15039
3631.79488	0.153
3630.83051	0.16
3629.86615	0.1704
3628.90178	0.17243
3627.93742	0.16478
3626.97306	0.1615
3626.00869	0.16066
3625.04433	0.1604
3624.07996	0.16151
3623.1156	0.16405
3622.15124	0.16795
3621.18687	0.17361
3620.22251	0.17988
3619.25814	0.18347
3618.29378	0.18288
3617.32942	0.18071
3616.36505	0.18138
3615.40069	0.18569
3614.43632	0.19041
3613.47196	0.1932
3612.5076	0.19285
3611.54323	0.19131
3610.57887	0.19298
3609.6145	0.19696
3608.65014	0.19935
3607.68578	0.19986
3606.72141	0.19855
3605.75705	0.19691
3604.79268	0.19749
3603.82832	0.20005
3602.86396	0.20335
3601.89959	0.20686
3600.93523	0.20977
3599.97086	0.21148
3599.0065	0.21288
3598.04214	0.21427
3597.07777	0.21664
3596.11341	0.22002
3595.14904	0.22218
3594.18468	0.22313
3593.22031	0.22373
3592.25595	0.2238
3591.29159	0.22502
3590.32722	0.22893
3589.36286	0.23554
3588.39849	0.24278
3587.43413	0.24582
3586.46977	0.24328
3585.5054	0.24041
3584.54104	0.24045
3583.57667	0.24192
3582.61231	0.24324
3581.64795	0.2451
3580.68358	0.24777
3579.71922	0.24994
3578.75485	0.25147
3577.79049	0.25342
3576.82613	0.25527
3575.86176	0.25676
3574.8974	0.2585
3573.93303	0.26008
3572.96867	0.26145
3572.00431	0.26348
3571.03994	0.26633
3570.07558	0.27017
3569.11121	0.27589
3568.14685	0.28294
3567.18249	0.28747
3566.21812	0.28631
3565.25376	0.28251
3564.28939	0.2809
3563.32503	0.28146
3562.36067	0.28264
3561.3963	0.28438
3560.43194	0.28589
3559.46757	0.28633
3558.50321	0.28684
3557.53885	0.28806
3556.57448	0.28923
3555.61012	0.29069
3554.64575	0.29337
3553.68139	0.29692
3552.71703	0.29987
3551.75266	0.30064
3550.7883	0.30027
3549.82393	0.30107
3548.85957	0.30377
3547.89521	0.30756
3546.93084	0.3109
3545.96648	0.31333
3545.00211	0.31453
3544.03775	0.31442
3543.07339	0.31396
3542.10902	0.31379
3541.14466	0.31419
3540.18029	0.31523
3539.21593	0.31684
3538.25157	0.31925
3537.2872	0.32246
3536.32284	0.32458
3535.35847	0.32467
3534.39411	0.32468
3533.42975	0.32578
3532.46538	0.32766
3531.50102	0.32996
3530.53665	0.33237
3529.57229	0.33496
3528.60793	0.33728
3527.64356	0.33861
3526.6792	0.33904
3525.71483	0.33981
3524.75047	0.34166
3523.78611	0.34375
3522.82174	0.34426
3521.85738	0.34353
3520.89301	0.34356
3519.92865	0.34464
3518.96429	0.34586
3517.99992	0.34675
3517.03556	0.34757
3516.07119	0.34854
3515.10683	0.3498
3514.14247	0.35133
3513.1781	0.3531
3512.21374	0.35507
3511.24937	0.35739
3510.28501	0.35991
3509.32065	0.36128
3508.35628	0.36106
3507.39192	0.36127
3506.42755	0.36273
3505.46319	0.36519
3504.49883	0.36828
3503.53446	0.37082
3502.5701	0.37146
3501.60573	0.37081
3500.64137	0.37059
3499.67701	0.37136
3498.71264	0.37289
3497.74828	0.37492
3496.78391	0.37687
3495.81955	0.37814
3494.85519	0.37897
3493.89082	0.37993
3492.92646	0.38113
3491.96209	0.38258
3490.99773	0.38408
3490.03337	0.38575
3489.069	0.38787
3488.10464	0.38986
3487.14027	0.39119
3486.17591	0.39232
3485.21155	0.39367
3484.24718	0.39544
3483.28282	0.39787
3482.31845	0.40025
3481.35409	0.40176
3480.38973	0.40264
3479.42536	0.40333
3478.461	0.40422
3477.49663	0.40546
3476.53227	0.40719
3475.56791	0.40911
3474.60354	0.41053
3473.63918	0.41143
3472.67481	0.41243
3471.71045	0.41378
3470.74609	0.41533
3469.78172	0.41682
3468.81736	0.41836
3467.85299	0.42009
3466.88863	0.4216
3465.92427	0.42281
3464.9599	0.42423
3463.99554	0.42608
3463.03117	0.42796
3462.06681	0.42934
3461.10245	0.43022
3460.13808	0.43119
3459.17372	0.43251
3458.20935	0.43392
3457.24499	0.43527
3456.28062	0.43644
3455.31626	0.43727
3454.3519	0.4381
3453.38753	0.43915
3452.42317	0.4403
3451.4588	0.44142
3450.49444	0.44249
3449.53008	0.44379
3448.56571	0.44592
3447.60135	0.44811
3446.63698	0.44873
3445.67262	0.44834
3444.70826	0.44836
3443.74389	0.44914
3442.77953	0.45018
3441.81516	0.4506
3440.8508	0.45057
3439.88644	0.45068
3438.92207	0.45099
3437.95771	0.45139
3436.99334	0.45177
3436.02898	0.45197
3435.06462	0.45218
3434.10025	0.45253
3433.13589	0.45296
3432.17152	0.45331
3431.20716	0.45333
3430.2428	0.45321
3429.27843	0.45325
3428.31407	0.45339
3427.3497	0.4534
3426.38534	0.45331
3425.42098	0.45325
3424.45661	0.45332
3423.49225	0.45343
3422.52788	0.45352
3421.56352	0.45335
3420.59916	0.45261
3419.63479	0.45137
3418.67043	0.45021
3417.70606	0.44939
3416.7417	0.44869
3415.77734	0.44784
3414.81297	0.44698
3413.84861	0.44614
3412.88424	0.44532
3411.91988	0.44443
3410.95552	0.44348
3409.99115	0.44238
3409.02679	0.44135
3408.06242	0.44057
3407.09806	0.43996
3406.1337	0.43922
3405.16933	0.43834
3404.20497	0.43735
3403.2406	0.43603
3402.27624	0.43466
3401.31188	0.4334
3400.34751	0.43242
3399.38315	0.43187
3398.41878	0.43161
3397.45442	0.43096
3396.49006	0.42945
3395.52569	0.42776
3394.56133	0.42676
3393.59696	0.42626
3392.6326	0.42523
3391.66824	0.42338
3390.70387	0.42157
3389.73951	0.42032
3388.77514	0.4192
3387.81078	0.41796
3386.84642	0.41682
3385.88205	0.41588
3384.91769	0.41469
3383.95332	0.41301
3382.98896	0.41116
3382.0246	0.40944
3381.06023	0.40775
3380.09587	0.40619
3379.1315	0.4046
3378.16714	0.40281
3377.20278	0.40085
3376.23841	0.39901
3375.27405	0.39731
3374.30968	0.39561
3373.34532	0.39371
3372.38096	0.39158
3371.41659	0.38937
3370.45223	0.38737
3369.48786	0.38559
3368.5235	0.38389
3367.55914	0.382
3366.59477	0.37997
3365.63041	0.37792
3364.66604	0.3757
3363.70168	0.37349
3362.73732	0.37155
3361.77295	0.36962
3360.80859	0.36743
3359.84422	0.36516
3358.87986	0.36304
3357.9155	0.36115
3356.95113	0.35931
3355.98677	0.35728
3355.0224	0.35516
3354.05804	0.35304
3353.09368	0.35091
3352.12931	0.34886
3351.16495	0.34699
3350.20058	0.34515
3349.23622	0.34331
3348.27186	0.34156
3347.30749	0.33983
3346.34313	0.33799
3345.37876	0.33608
3344.4144	0.33421
3343.45004	0.33246
3342.48567	0.3308
3341.52131	0.32921
3340.55694	0.32749
3339.59258	0.32567
3338.62822	0.32406
3337.66385	0.32262
3336.69949	0.32112
3335.73512	0.31947
3334.77076	0.31769
3333.8064	0.31575
3332.84203	0.31384
3331.87767	0.31203
3330.9133	0.3102
3329.94894	0.30848
3328.98458	0.30707
3328.02021	0.30584
3327.05585	0.30437
3326.09148	0.30274
3325.12712	0.30117
3324.16276	0.29956
3323.19839	0.29791
3322.23403	0.29618
3321.26966	0.2945
3320.3053	0.29305
3319.34094	0.29168
3318.37657	0.2902
3317.41221	0.28871
3316.44784	0.28728
3315.48348	0.28598
3314.51911	0.28477
3313.55475	0.28345
3312.59039	0.28213
3311.62602	0.281
3310.66166	0.28012
3309.69729	0.27932
3308.73293	0.27824
3307.76857	0.2768
3306.8042	0.27544
3305.83984	0.27434
3304.87547	0.27324
3303.91111	0.27199
3302.94675	0.27061
3301.98238	0.26928
3301.01802	0.26818
3300.05365	0.26727
3299.08929	0.2664
3298.12493	0.26543
3297.16056	0.26437
3296.1962	0.26336
3295.23183	0.26241
3294.26747	0.26152
3293.30311	0.2607
3292.33874	0.25984
3291.37438	0.25885
3290.41001	0.25782
3289.44565	0.25692
3288.48129	0.25615
3287.51692	0.25534
3286.55256	0.25462
3285.58819	0.25408
3284.62383	0.25371
3283.65947	0.25333
3282.6951	0.25267
3281.73074	0.25197
3280.76637	0.25148
3279.80201	0.2511
3278.83765	0.25078
3277.87328	0.25074
3276.90892	0.25088
3275.94455	0.25076
3274.98019	0.25062
3274.01583	0.25066
3273.05146	0.25056
3272.0871	0.25032
3271.12273	0.25028
3270.15837	0.25046
3269.19401	0.25066
3268.22964	0.25089
3267.26528	0.25129
3266.30091	0.25191
3265.33655	0.25258
3264.37219	0.25318
3263.40782	0.2538
3262.44346	0.25457
3261.47909	0.25552
3260.51473	0.25645
3259.55037	0.25732
3258.586	0.2584
3257.62164	0.25974
3256.65727	0.26123
3255.69291	0.26272
3254.72855	0.26418
3253.76418	0.26555
3252.79982	0.2669
3251.83545	0.26841
3250.87109	0.27005
3249.90673	0.2717
3248.94236	0.27349
3247.978	0.27544
3247.01363	0.27741
3246.04927	0.27934
3245.08491	0.28076
3244.12054	0.28141
3243.15618	0.28175
3242.19181	0.28207
3241.22745	0.28214
3240.26309	0.28181
3239.29872	0.28115
3238.33436	0.28025
3237.36999	0.27906
3236.40563	0.27737
3235.44127	0.27518
3234.4769	0.27287
3233.51254	0.27068
3232.54817	0.26837
3231.58381	0.26586
3230.61945	0.26339
3229.65508	0.26088
3228.69072	0.25828
3227.72635	0.25569
3226.76199	0.25301
3225.79763	0.25032
3224.83326	0.24785
3223.8689	0.24564
3222.90453	0.24342
3221.94017	0.24119
3220.97581	0.23915
3220.01144	0.23736
3219.04708	0.23549
3218.08271	0.23358
3217.11835	0.23181
3216.15399	0.23036
3215.18962	0.22928
3214.22526	0.22833
3213.26089	0.22716
3212.29653	0.22607
3211.33217	0.22532
3210.3678	0.22482
3209.40344	0.22421
3208.43907	0.22337
3207.47471	0.22253
3206.51035	0.22181
3205.54598	0.22117
3204.58162	0.2204
3203.61725	0.21935
3202.65289	0.21807
3201.68853	0.2168
3200.72416	0.21563
3199.7598	0.2144
3198.79543	0.21299
3197.83107	0.21125
3196.86671	0.20908
3195.90234	0.20677
3194.93798	0.20455
3193.97361	0.20236
3193.00925	0.20014
3192.04489	0.19789
3191.08052	0.19574
3190.11616	0.19362
3189.15179	0.19144
3188.18743	0.18923
3187.22307	0.18718
3186.2587	0.18536
3185.29434	0.18357
3184.32997	0.18163
3183.36561	0.17971
3182.40125	0.17782
3181.43688	0.17593
3180.47252	0.17425
3179.50815	0.17283
3178.54379	0.17139
3177.57943	0.16965
3176.61506	0.16786
3175.6507	0.16632
3174.68633	0.1649
3173.72197	0.16352
3172.7576	0.16221
3171.79324	0.161
3170.82888	0.15983
3169.86451	0.15871
3168.90015	0.15752
3167.93578	0.15638
3166.97142	0.15534
3166.00706	0.15444
3165.04269	0.1535
3164.07833	0.15242
3163.11396	0.1514
3162.1496	0.1506
3161.18524	0.14992
3160.22087	0.14921
3159.25651	0.14854
3158.29214	0.14791
3157.32778	0.14737
3156.36342	0.14697
3155.39905	0.14667
3154.43469	0.14638
3153.47032	0.14621
3152.50596	0.14628
3151.5416	0.14651
3150.57723	0.14676
3149.61287	0.14711
3148.6485	0.1478
3147.68414	0.14893
3146.71978	0.15045
3145.75541	0.15231
3144.79105	0.15454
3143.82668	0.15711
3142.86232	0.15976
3141.89796	0.16177
3140.93359	0.16257
3139.96923	0.16224
3139.00486	0.16096
3138.0405	0.15914
3137.07614	0.15709
3136.11177	0.15504
3135.14741	0.15324
3134.18304	0.15207
3133.21868	0.15128
3132.25432	0.15046
3131.28995	0.14974
3130.32559	0.14928
3129.36122	0.14895
3128.39686	0.14872
3127.4325	0.14858
3126.46813	0.14822
3125.50377	0.14762
3124.5394	0.14723
3123.57504	0.1473
3122.61068	0.14721
3121.64631	0.14662
3120.68195	0.1461
3119.71758	0.14596
3118.75322	0.14575
3117.78886	0.14537
3116.82449	0.14509
3115.86013	0.14485
3114.89576	0.14446
3113.9314	0.14398
3112.96704	0.14367
3112.00267	0.14344
3111.03831	0.1433
3110.07394	0.14327
3109.10958	0.14331
3108.14522	0.14338
3107.18085	0.14332
3106.21649	0.14328
3105.25212	0.14341
3104.28776	0.14373
3103.3234	0.14417
3102.35903	0.14464
3101.39467	0.14505
3100.4303	0.1454
3099.46594	0.14567
3098.50158	0.14592
3097.53721	0.14636
3096.57285	0.14698
3095.60848	0.14763
3094.64412	0.1484
3093.67976	0.14931
3092.71539	0.15022
3091.75103	0.15115
3090.78666	0.1521
3089.8223	0.15303
3088.85794	0.15392
3087.89357	0.15465
3086.92921	0.15525
3085.96484	0.15583
3085.00048	0.15665
3084.03612	0.15762
3083.07175	0.15864
3082.10739	0.15964
3081.14302	0.16075
3080.17866	0.16205
3079.2143	0.1634
3078.24993	0.16469
3077.28557	0.16604
3076.3212	0.16767
3075.35684	0.16973
3074.39248	0.17206
3073.42811	0.17436
3072.46375	0.17676
3071.49938	0.17936
3070.53502	0.18211
3069.57066	0.18489
3068.60629	0.18763
3067.64193	0.19035
3066.67756	0.19298
3065.7132	0.19561
3064.74884	0.19811
3063.78447	0.2
3062.82011	0.2013
3061.85574	0.20243
3060.89138	0.20351
3059.92702	0.2042
3058.96265	0.20438
3057.99829	0.20426
3057.03392	0.20397
3056.06956	0.20325
3055.1052	0.20197
3054.14083	0.20036
3053.17647	0.19853
3052.2121	0.1967
3051.24774	0.19501
3050.28338	0.19345
3049.31901	0.19168
3048.35465	0.18958
3047.39028	0.1875
3046.42592	0.18578
3045.46156	0.18419
3044.49719	0.18256
3043.53283	0.18095
3042.56846	0.17954
3041.6041	0.17838
3040.63974	0.17737
3039.67537	0.17644
3038.71101	0.17555
3037.74664	0.17478
3036.78228	0.17424
3035.81792	0.17393
3034.85355	0.17362
3033.88919	0.17327
3032.92482	0.17325
3031.96046	0.17356
3030.99609	0.17365
3030.03173	0.17339
3029.06737	0.17332
3028.103	0.17364
3027.13864	0.17431
3026.17427	0.17504
3025.20991	0.17559
3024.24555	0.17617
3023.28118	0.1771
3022.31682	0.17825
3021.35245	0.17932
3020.38809	0.18029
3019.42373	0.1814
3018.45936	0.1828
3017.495	0.18445
3016.53063	0.18631
3015.56627	0.18817
3014.60191	0.19007
3013.63754	0.19233
3012.67318	0.19481
3011.70881	0.19719
3010.74445	0.19967
3009.78009	0.20239
3008.81572	0.20534
3007.85136	0.20866
3006.88699	0.21218
3005.92263	0.21571
3004.95827	0.2192
3003.9939	0.22267
3003.02954	0.22603
3002.06517	0.22925
3001.10081	0.23234
3000.13645	0.23555
2999.17208	0.2392
2998.20772	0.24329
2997.24335	0.24762
2996.27899	0.25199
2995.31463	0.25652
2994.35026	0.26136
2993.3859	0.26632
2992.42153	0.27114
2991.45717	0.27567
2990.49281	0.27997
2989.52844	0.28411
2988.56408	0.28782
2987.59971	0.29071
2986.63535	0.29266
2985.67099	0.2941
2984.70662	0.29547
2983.74226	0.29691
2982.77789	0.29835
2981.81353	0.29994
2980.84917	0.30179
2979.8848	0.30402
2978.92044	0.30667
2977.95607	0.30941
2976.99171	0.31195
2976.02735	0.31434
2975.06298	0.31676
2974.09862	0.31913
2973.13425	0.32119
2972.16989	0.32285
2971.20553	0.32431
2970.24116	0.32588
2969.2768	0.32756
2968.31243	0.32909
2967.34807	0.3303
2966.38371	0.3313
2965.41934	0.3322
2964.45498	0.33301
2963.49061	0.33368
2962.52625	0.33436
2961.56189	0.33521
2960.59752	0.33646
2959.63316	0.33797
2958.66879	0.33948
2957.70443	0.34087
2956.74007	0.34241
2955.7757	0.34443
2954.81134	0.34699
2953.84697	0.34991
2952.88261	0.35312
2951.91825	0.35689
2950.95388	0.36164
2949.98952	0.36738
2949.02515	0.37388
2948.06079	0.38085
2947.09643	0.38816
2946.13206	0.39554
2945.1677	0.40242
2944.20333	0.40815
2943.23897	0.41235
2942.27461	0.41512
2941.31024	0.41668
2940.34588	0.41746
2939.38151	0.41769
2938.41715	0.41738
2937.45279	0.41692
2936.48842	0.41673
2935.52406	0.41677
2934.55969	0.41688
2933.59533	0.41687
2932.63097	0.41676
2931.6666	0.41673
2930.70224	0.41682
2929.73787	0.41666
2928.77351	0.41592
2927.80915	0.4149
2926.84478	0.41378
2925.88042	0.41228
2924.91605	0.41004
2923.95169	0.40702
2922.98733	0.40336
2922.02296	0.39921
2921.0586	0.3946
2920.09423	0.38947
2919.12987	0.38395
2918.16551	0.37812
2917.20114	0.3721
2916.23678	0.36568
2915.27241	0.35882
2914.30805	0.35162
2913.34369	0.34459
2912.37932	0.33811
2911.41496	0.33245
2910.45059	0.32749
2909.48623	0.32308
2908.52187	0.31927
2907.5575	0.31607
2906.59314	0.31339
2905.62877	0.31096
2904.66441	0.30851
2903.70005	0.30602
2902.73568	0.3036
2901.77132	0.30113
2900.80695	0.2984
2899.84259	0.29534
2898.87823	0.29207
2897.91386	0.28877
2896.9495	0.28548
2895.98513	0.28199
2895.02077	0.27814
2894.05641	0.27414
2893.09204	0.27017
2892.12768	0.26633
2891.16331	0.26243
2890.19895	0.25836
2889.23458	0.25419
2888.27022	0.25011
2887.30586	0.24633
2886.34149	0.24268
2885.37713	0.23895
2884.41276	0.23527
2883.4484	0.23193
2882.48404	0.22885
2881.51967	0.22576
2880.55531	0.22254
2879.59094	0.21948
2878.62658	0.21676
2877.66222	0.21427
2876.69785	0.21163
2875.73349	0.2087
2874.76912	0.20564
2873.80476	0.20266
2872.8404	0.19958
2871.87603	0.1962
2870.91167	0.19252
2869.9473	0.18874
2868.98294	0.18528
2868.01858	0.18222
2867.05421	0.17951
2866.08985	0.17711
2865.12548	0.17532
2864.16112	0.17433
2863.19676	0.17412
2862.23239	0.17449
2861.26803	0.17527
2860.30366	0.17651
2859.3393	0.17834
2858.37494	0.18076
2857.41057	0.18339
2856.44621	0.1858
2855.48184	0.18799
2854.51748	0.19013
2853.55312	0.19225
2852.58875	0.19389
2851.62439	0.19466
2850.66002	0.19449
2849.69566	0.19344
2848.7313	0.1915
2847.76693	0.18885
2846.80257	0.1859
2845.8382	0.18336
2844.87384	0.18162
2843.90948	0.18045
2842.94511	0.17953
2841.98075	0.17867
2841.01638	0.17782
2840.05202	0.1771
2839.08766	0.1764
2838.12329	0.17538
2837.15893	0.17388
2836.19456	0.17203
2835.2302	0.16991
2834.26584	0.16763
2833.30147	0.16511
2832.33711	0.16231
2831.37274	0.15925
2830.40838	0.15623
2829.44402	0.15329
2828.47965	0.15028
2827.51529	0.14716
2826.55092	0.14417
2825.58656	0.14157
2824.6222	0.13926
2823.65783	0.137
2822.69347	0.13467
2821.7291	0.13242
2820.76474	0.13049
2819.80038	0.12879
2818.83601	0.12709
2817.87165	0.12524
2816.90728	0.12335
2815.94292	0.12154
2814.97856	0.11976
2814.01419	0.11766
2813.04983	0.11498
2812.08546	0.11171
2811.1211	0.10801
2810.15674	0.10386
2809.19237	0.09925
2808.22801	0.09426
2807.26364	0.08923
2806.29928	0.08441
2805.33492	0.07982
2804.37055	0.07537
2803.40619	0.07108
2802.44182	0.06721
2801.47746	0.06392
2800.5131	0.06123
2799.54873	0.05892
2798.58437	0.05684
2797.62	0.05502
2796.65564	0.0536
2795.69128	0.0525
2794.72691	0.05149
2793.76255	0.05046
2792.79818	0.04956
2791.83382	0.0489
2790.86946	0.04853
2789.90509	0.04812
2788.94073	0.04754
2787.97636	0.04688
2787.012	0.04636
2786.04764	0.04601
2785.08327	0.04566
2784.11891	0.04524
2783.15454	0.04483
2782.19018	0.04453
2781.22582	0.04431
2780.26145	0.04408
2779.29709	0.04377
2778.33272	0.04348
2777.36836	0.04339
2776.404	0.04346
2775.43963	0.04347
2774.47527	0.04329
2773.5109	0.04301
2772.54654	0.04284
2771.58218	0.04276
2770.61781	0.04269
2769.65345	0.04257
2768.68908	0.04252
2767.72472	0.04254
2766.76036	0.04258
2765.79599	0.04262
2764.83163	0.04262
2763.86726	0.04263
2762.9029	0.04273
2761.93854	0.04279
2760.97417	0.04282
2760.00981	0.04279
2759.04544	0.0428
2758.08108	0.04287
2757.11672	0.04301
2756.15235	0.04305
2755.18799	0.04295
2754.22362	0.04291
2753.25926	0.04292
2752.2949	0.04292
2751.33053	0.04287
2750.36617	0.04277
2749.4018	0.04258
2748.43744	0.04244
2747.47307	0.04232
2746.50871	0.04203
2745.54435	0.04166
2744.57998	0.04138
2743.61562	0.04121
2742.65125	0.04101
2741.68689	0.04075
2740.72253	0.04045
2739.75816	0.04016
2738.7938	0.04007
2737.82943	0.04004
2736.86507	0.03995
2735.90071	0.03973
2734.93634	0.0395
2733.97198	0.03928
2733.00761	0.03917
2732.04325	0.03913
2731.07889	0.03918
2730.11452	0.03916
2729.15016	0.03912
2728.18579	0.03914
2727.22143	0.03921
2726.25707	0.03926
2725.2927	0.03922
2724.32834	0.03918
2723.36397	0.03914
2722.39961	0.03914
2721.43525	0.03919
2720.47088	0.03926
2719.50652	0.03927
2718.54215	0.03925
2717.57779	0.03917
2716.61343	0.03905
2715.64906	0.03897
2714.6847	0.03895
2713.72033	0.03887
2712.75597	0.03871
2711.79161	0.03848
2710.82724	0.03831
2709.86288	0.03811
2708.89851	0.03779
2707.93415	0.03739
2706.96979	0.03711
2706.00542	0.03698
2705.04106	0.03684
2704.07669	0.03656
2703.11233	0.03613
2702.14797	0.0358
2701.1836	0.03566
2700.21924	0.03559
2699.25487	0.03542
2698.29051	0.03518
2697.32615	0.035
2696.36178	0.03492
2695.39742	0.03485
2694.43305	0.03468
2693.46869	0.03451
2692.50433	0.0344
2691.53996	0.0343
2690.5756	0.03422
2689.61123	0.03417
2688.64687	0.03407
2687.68251	0.03393
2686.71814	0.03385
2685.75378	0.03383
2684.78941	0.03375
2683.82505	0.03364
2682.86069	0.03358
2681.89632	0.03365
2680.93196	0.03374
2679.96759	0.0337
2679.00323	0.03355
2678.03887	0.03349
2677.0745	0.03356
2676.11014	0.03356
2675.14577	0.03341
2674.18141	0.03334
2673.21705	0.03341
2672.25268	0.03351
2671.28832	0.03356
2670.32395	0.03347
2669.35959	0.0333
2668.39523	0.03324
2667.43086	0.03336
2666.4665	0.03345
2665.50213	0.0334
2664.53777	0.03328
2663.57341	0.03325
2662.60904	0.03337
2661.64468	0.03341
2660.68031	0.03329
2659.71595	0.03312
2658.75159	0.03305
2657.78722	0.03306
2656.82286	0.03306
2655.85849	0.03302
2654.89413	0.03289
2653.92977	0.03281
2652.9654	0.03286
2652.00104	0.0329
2651.03667	0.03278
2650.07231	0.0326
2649.10795	0.03249
2648.14358	0.03252
2647.17922	0.03248
2646.21485	0.03235
2645.25049	0.03211
2644.28613	0.03198
2643.32176	0.03207
2642.3574	0.03217
2641.39303	0.03209
2640.42867	0.03195
2639.46431	0.03192
2638.49994	0.03201
2637.53558	0.03203
2636.57121	0.03184
2635.60685	0.03158
2634.64249	0.03151
2633.67812	0.03158
2632.71376	0.03159
2631.74939	0.03141
2630.78503	0.03115
2629.82067	0.031
2628.8563	0.03102
2627.89194	0.03099
2626.92757	0.03077
2625.96321	0.03049
2624.99885	0.03031
2624.03448	0.03021
2623.07012	0.0301
2622.10575	0.02988
2621.14139	0.02954
2620.17703	0.02933
2619.21266	0.02929
2618.2483	0.02925
2617.28393	0.02911
2616.31957	0.0289
2615.35521	0.0288
2614.39084	0.02881
2613.42648	0.02889
2612.46211	0.02888
2611.49775	0.02876
2610.53339	0.02874
2609.56902	0.02882
2608.60466	0.02886
2607.64029	0.02878
2606.67593	0.02869
2605.71156	0.0287
2604.7472	0.02886
2603.78284	0.02896
2602.81847	0.02886
2601.85411	0.02868
2600.88974	0.02869
2599.92538	0.02881
2598.96102	0.02885
2597.99665	0.02877
2597.03229	0.02866
2596.06792	0.02872
2595.10356	0.02887
2594.1392	0.0289
2593.17483	0.02871
2592.21047	0.02844
2591.2461	0.02823
2590.28174	0.02811
2589.31738	0.02794
2588.35301	0.02764
2587.38865	0.02731
2586.42428	0.02709
2585.45992	0.027
2584.49556	0.0269
2583.53119	0.02665
2582.56683	0.02629
2581.60246	0.02609
2580.6381	0.02604
2579.67374	0.02585
2578.70937	0.02554
2577.74501	0.02523
2576.78064	0.02503
2575.81628	0.02495
2574.85192	0.02489
2573.88755	0.02471
2572.92319	0.02445
2571.95882	0.02422
2570.99446	0.02414
2570.0301	0.02411
2569.06573	0.02395
2568.10137	0.02369
2567.137	0.02346
2566.17264	0.02341
2565.20828	0.02333
2564.24391	0.02312
2563.27955	0.02283
2562.31518	0.02268
2561.35082	0.02263
2560.38646	0.02254
2559.42209	0.02234
2558.45773	0.02216
2557.49336	0.0221
2556.529	0.02209
2555.56464	0.02206
2554.60027	0.02198
2553.63591	0.02182
2552.67154	0.0217
2551.70718	0.02169
2550.74282	0.0217
2549.77845	0.02157
2548.81409	0.02139
2547.84972	0.02131
2546.88536	0.02125
2545.921	0.02114
2544.95663	0.02111
2543.99227	0.02107
2543.0279	0.02102
2542.06354	0.02101
2541.09918	0.02102
2540.13481	0.02089
2539.17045	0.02071
2538.20608	0.02065
2537.24172	0.02069
2536.27736	0.02072
2535.31299	0.02067
2534.34863	0.02051
2533.38426	0.02043
2532.4199	0.02044
2531.45554	0.02047
2530.49117	0.02042
2529.52681	0.02029
2528.56244	0.02022
2527.59808	0.02024
2526.63372	0.02025
2525.66935	0.02017
2524.70499	0.02007
2523.74062	0.02001
2522.77626	0.01994
2521.8119	0.01986
2520.84753	0.01976
2519.88317	0.0196
2518.9188	0.01952
2517.95444	0.01951
2516.99008	0.01954
2516.02571	0.01953
2515.06135	0.0195
2514.09698	0.01946
2513.13262	0.01941
2512.16826	0.01936
2511.20389	0.01937
2510.23953	0.01939
2509.27516	0.01935
2508.3108	0.01927
2507.34644	0.01917
2506.38207	0.01911
2505.41771	0.01905
2504.45334	0.01901
2503.48898	0.01898
2502.52462	0.01897
2501.56025	0.01898
2500.59589	0.01897
2499.63152	0.01891
2498.66716	0.01885
2497.7028	0.01878
2496.73843	0.01868
2495.77407	0.0186
2494.8097	0.01857
2493.84534	0.01856
2492.88098	0.01851
2491.91661	0.01848
2490.95225	0.01845
2489.98788	0.01841
2489.02352	0.01838
2488.05916	0.0183
2487.09479	0.01818
2486.13043	0.01806
2485.16606	0.01796
2484.2017	0.01787
2483.23734	0.01786
2482.27297	0.01782
2481.30861	0.01781
2480.34424	0.01782
2479.37988	0.01781
2478.41552	0.01771
2477.45115	0.01763
2476.48679	0.01756
2475.52242	0.01757
2474.55806	0.01758
2473.5937	0.01755
2472.62933	0.01749
2471.66497	0.01746
2470.7006	0.01743
2469.73624	0.01733
2468.77187	0.01726
2467.80751	0.0172
2466.84315	0.01719
2465.87878	0.0172
2464.91442	0.01712
2463.95005	0.01696
2462.98569	0.01686
2462.02133	0.01687
2461.05696	0.01688
2460.0926	0.0168
2459.12823	0.01671
2458.16387	0.01665
2457.19951	0.01662
2456.23514	0.01659
2455.27078	0.01653
2454.30641	0.01642
2453.34205	0.01636
2452.37769	0.01642
2451.41332	0.01655
2450.44896	0.01659
2449.48459	0.01647
2448.52023	0.01639
2447.55587	0.01643
2446.5915	0.01649
2445.62714	0.01647
2444.66277	0.01637
2443.69841	0.01636
2442.73405	0.01639
2441.76968	0.01638
2440.80532	0.01627
2439.84095	0.01617
2438.87659	0.01616
2437.91223	0.01617
2436.94786	0.01613
2435.9835	0.01595
2435.01913	0.01578
2434.05477	0.01575
2433.09041	0.01583
2432.12604	0.01591
2431.16168	0.01583
2430.19731	0.01569
2429.23295	0.01566
2428.26859	0.01574
2427.30422	0.01583
2426.33986	0.01578
2425.37549	0.01568
2424.41113	0.01556
2423.44677	0.01552
2422.4824	0.01551
2421.51804	0.01535
2420.55367	0.01518
2419.58931	0.01513
2418.62495	0.01518
2417.66058	0.01522
2416.69622	0.0151
2415.73185	0.01493
2414.76749	0.01488
2413.80313	0.01493
2412.83876	0.01499
2411.8744	0.01493
2410.91003	0.0148
2409.94567	0.01476
2408.98131	0.01486
2408.01694	0.01492
2407.05258	0.01489
2406.08821	0.01479
2405.12385	0.01473
2404.15949	0.01474
2403.19512	0.01477
2402.23076	0.01474
2401.26639	0.01463
2400.30203	0.01457
2399.33767	0.01463
2398.3733	0.01468
2397.40894	0.01463
2396.44457	0.01457
2395.48021	0.01463
2394.51585	0.01475
2393.55148	0.01486
2392.58712	0.01482
2391.62275	0.01463
2390.65839	0.0145
2389.69403	0.01446
2388.72966	0.01438
2387.7653	0.01406
2386.80093	0.01345
2385.83657	0.01258
2384.87221	0.01149
2383.90784	0.01004
2382.94348	0.00807
2381.97911	0.00807
2381.01475	0.00807
2380.05039	0.00807
2379.08602	0.00807
2378.12166	0.00807
2377.15729	0.00807
2376.19293	0.00807
2375.22857	0.00807
2374.2642	0.00807
2373.29984	0.00807
2372.33547	0.00807
2371.37111	0.00807
2370.40675	0.00807
2369.44238	0.00807
2368.47802	0.00807
2367.51365	0.00807
2366.54929	0.00807
2365.58493	0.00807
2364.62056	0.00807
2363.6562	0.00807
2362.69183	0.00807
2361.72747	0.00807
2360.76311	0.00807
2359.79874	0.00807
2358.83438	0.00807
2357.87001	0.00807
2356.90565	0.00807
2355.94129	0.00807
2354.97692	0.00807
2354.01256	0.00807
2353.04819	0.00807
2352.08383	0.00807
2351.11947	0.00807
2350.1551	0.00807
2349.19074	0.00807
2348.22637	0.00807
2347.26201	0.00807
2346.29765	0.00807
2345.33328	0.00807
2344.36892	0.00807
2343.40455	0.00807
2342.44019	0.00807
2341.47583	0.00807
2340.51146	0.00807
2339.5471	0.00807
2338.58273	0.00807
2337.61837	0.00807
2336.65401	0.00807
2335.68964	0.00807
2334.72528	0.00807
2333.76091	0.00807
2332.79655	0.00807
2331.83219	0.00807
2330.86782	0.00807
2329.90346	0.00807
2328.93909	0.00807
2327.97473	0.00807
2327.01036	0.00807
2326.046	0.00807
2325.08164	0.00807
2324.11727	0.00807
2323.15291	0.00807
2322.18854	0.00807
2321.22418	0.00807
2320.25982	0.00807
2319.29545	0.00807
2318.33109	0.00807
2317.36672	0.00807
2316.40236	0.00807
2315.438	0.00807
2314.47363	0.00807
2313.50927	0.00807
2312.5449	0.00807
2311.58054	0.00807
2310.61618	0.00807
2309.65181	0.00807
2308.68745	0.00807
2307.72308	0.00807
2306.75872	0.00807
2305.79436	0.00807
2304.82999	0.00807
2303.86563	0.00807
2302.90126	0.00807
2301.9369	0.00807
2300.97254	0.00807
2300.00817	0.00807
2299.04381	0.00807
2298.07944	0.00807
2297.11508	0.00807
2296.15072	0.00807
2295.18635	0.00833
2294.22199	0.0088
2293.25762	0.00932
2292.29326	0.00995
2291.3289	0.01051
2290.36453	0.01104
2289.40017	0.01149
2288.4358	0.01199
2287.47144	0.01251
2286.50708	0.01294
2285.54271	0.01337
2284.57835	0.0138
2283.61398	0.01414
2282.64962	0.01422
2281.68526	0.01409
2280.72089	0.01394
2279.75653	0.01383
2278.79216	0.01373
2277.8278	0.01362
2276.86344	0.01349
2275.89907	0.01339
2274.93471	0.01334
2273.97034	0.01337
2273.00598	0.01343
2272.04162	0.01348
2271.07725	0.01354
2270.11289	0.01357
2269.14852	0.01358
2268.18416	0.01362
2267.2198	0.01372
2266.25543	0.0139
2265.29107	0.01405
2264.3267	0.01417
2263.36234	0.0143
2262.39798	0.01446
2261.43361	0.01463
2260.46925	0.01482
2259.50488	0.015
2258.54052	0.01515
2257.57616	0.01525
2256.61179	0.01541
2255.64743	0.01562
2254.68306	0.01579
2253.7187	0.01591
2252.75434	0.01596
2251.78997	0.01607
2250.82561	0.01624
2249.86124	0.01646
2248.89688	0.01661
2247.93252	0.01671
2246.96815	0.01686
2246.00379	0.01709
2245.03942	0.0173
2244.07506	0.01744
2243.1107	0.01752
2242.14633	0.01769
2241.18197	0.01796
2240.2176	0.01815
2239.25324	0.01825
2238.28888	0.01831
2237.32451	0.01842
2236.36015	0.01864
2235.39578	0.01881
2234.43142	0.0189
2233.46706	0.01893
2232.50269	0.01908
2231.53833	0.01934
2230.57396	0.01957
2229.6096	0.01969
2228.64524	0.01977
2227.68087	0.01993
2226.71651	0.02014
2225.75214	0.02037
2224.78778	0.02052
2223.82342	0.02064
2222.85905	0.02081
2221.89469	0.02102
2220.93032	0.02121
2219.96596	0.02129
2219.0016	0.02128
2218.03723	0.02133
2217.07287	0.02149
2216.1085	0.02157
2215.14414	0.02156
2214.17978	0.02153
2213.21541	0.02158
2212.25105	0.02171
2211.28668	0.02176
2210.32232	0.02173
2209.35796	0.0217
2208.39359	0.02184
2207.42923	0.02212
2206.46486	0.02226
2205.5005	0.02223
2204.53614	0.02217
2203.57177	0.02225
2202.60741	0.02244
2201.64304	0.02259
2200.67868	0.02268
2199.71432	0.02274
2198.74995	0.02284
2197.78559	0.02306
2196.82122	0.02324
2195.85686	0.02329
2194.8925	0.02331
2193.92813	0.02348
2192.96377	0.0237
2191.9994	0.02385
2191.03504	0.02386
2190.07068	0.02389
2189.10631	0.02409
2188.14195	0.02436
2187.17758	0.02448
2186.21322	0.02447
2185.24885	0.02448
2184.28449	0.02461
2183.32013	0.02481
2182.35576	0.02496
2181.3914	0.02502
2180.42703	0.02501
2179.46267	0.02513
2178.49831	0.02542
2177.53394	0.02557
2176.56958	0.02551
2175.60521	0.02548
2174.64085	0.02561
2173.67649	0.02583
2172.71212	0.026
2171.74776	0.02601
2170.78339	0.02602
2169.81903	0.02617
2168.85467	0.02638
2167.8903	0.0265
2166.92594	0.02653
2165.96157	0.02657
2164.99721	0.02667
2164.03285	0.0268
2163.06848	0.02693
2162.10412	0.02697
2161.13975	0.02692
2160.17539	0.02699
2159.21103	0.02714
2158.24666	0.02719
2157.2823	0.02714
2156.31793	0.02715
2155.35357	0.02725
2154.38921	0.02742
2153.42484	0.0275
2152.46048	0.02749
2151.49611	0.0275
2150.53175	0.02763
2149.56739	0.02787
2148.60302	0.02808
2147.63866	0.02813
2146.67429	0.02812
2145.70993	0.02825
2144.74557	0.02846
2143.7812	0.02862
2142.81684	0.02865
2141.85247	0.02869
2140.88811	0.02881
2139.92375	0.02905
2138.95938	0.02928
2137.99502	0.02942
2137.03065	0.02955
2136.06629	0.02973
2135.10193	0.02983
2134.13756	0.02989
2133.1732	0.02985
2132.20883	0.02975
2131.24447	0.02971
2130.28011	0.02977
2129.31574	0.02985
2128.35138	0.02984
2127.38701	0.02977
2126.42265	0.02981
2125.45829	0.0299
2124.49392	0.02996
2123.52956	0.02992
2122.56519	0.02988
2121.60083	0.02989
2120.63647	0.02994
2119.6721	0.03001
2118.70774	0.03007
2117.74337	0.03013
2116.77901	0.03023
2115.81465	0.0304
2114.85028	0.0305
2113.88592	0.03042
2112.92155	0.03032
2111.95719	0.03033
2110.99283	0.03045
2110.02846	0.03058
2109.0641	0.03061
2108.09973	0.03062
2107.13537	0.03068
2106.17101	0.03077
2105.20664	0.03087
2104.24228	0.03089
2103.27791	0.03083
2102.31355	0.03084
2101.34919	0.03096
2100.38482	0.03113
2099.42046	0.03124
2098.45609	0.03127
2097.49173	0.0313
2096.52737	0.0314
2095.563	0.03154
2094.59864	0.03167
2093.63427	0.03166
2092.66991	0.03167
2091.70555	0.03188
2090.74118	0.03224
2089.77682	0.03232
2088.81245	0.03215
2087.84809	0.03212
2086.88373	0.03222
2085.91936	0.03226
2084.955	0.03229
2083.99063	0.0323
2083.02627	0.03236
2082.06191	0.03244
2081.09754	0.03252
2080.13318	0.03263
2079.16881	0.03264
2078.20445	0.03262
2077.24009	0.03265
2076.27572	0.03279
2075.31136	0.03294
2074.34699	0.03302
2073.38263	0.03303
2072.41827	0.03304
2071.4539	0.03312
2070.48954	0.03322
2069.52517	0.03325
2068.56081	0.03322
2067.59645	0.0333
2066.63208	0.03375
2065.66772	0.03431
2064.70335	0.03427
2063.73899	0.03365
2062.77463	0.03326
2061.81026	0.03332
2060.8459	0.0335
2059.88153	0.03343
2058.91717	0.03322
2057.95281	0.03306
2056.98844	0.03307
2056.02408	0.03316
2055.05971	0.03316
2054.09535	0.03306
2053.13099	0.03294
2052.16662	0.0329
2051.20226	0.03291
2050.23789	0.03285
2049.27353	0.03265
2048.30917	0.03243
2047.3448	0.03237
2046.38044	0.0324
2045.41607	0.03235
2044.45171	0.03218
2043.48734	0.03204
2042.52298	0.03229
2041.55862	0.03257
2040.59425	0.03221
2039.62989	0.03158
2038.66552	0.03121
2037.70116	0.03109
2036.7368	0.03106
2035.77243	0.03101
2034.80807	0.03086
2033.8437	0.03064
2032.87934	0.03053
2031.91498	0.03059
2030.95061	0.0306
2029.98625	0.03045
2029.02188	0.03018
2028.05752	0.02999
2027.09316	0.02997
2026.12879	0.02993
2025.16443	0.02976
2024.20006	0.02958
2023.2357	0.02955
2022.27134	0.02954
2021.30697	0.02955
2020.34261	0.02967
2019.37824	0.02999
2018.41388	0.03061
2017.44952	0.0312
2016.48515	0.03098
2015.52079	0.02999
2014.55642	0.02928
2013.59206	0.02917
2012.6277	0.0293
2011.66333	0.02945
2010.69897	0.02948
2009.7346	0.02947
2008.77024	0.02956
2007.80588	0.02973
2006.84151	0.02981
2005.87715	0.02966
2004.91278	0.02939
2003.94842	0.02933
2002.98406	0.02948
2002.01969	0.02962
2001.05533	0.02956
2000.09096	0.02946
1999.1266	0.02953
1998.16224	0.02964
1997.19787	0.02967
1996.23351	0.02955
1995.26914	0.02945
1994.30478	0.03
1993.34042	0.03164
1992.37605	0.03292
1991.41169	0.03192
1990.44732	0.03032
1989.48296	0.03017
1988.5186	0.03057
1987.55423	0.03021
1986.58987	0.02946
1985.6255	0.02898
1984.66114	0.02883
1983.69678	0.02893
1982.73241	0.02898
1981.76805	0.02877
1980.80368	0.02839
1979.83932	0.02819
1978.87496	0.0283
1977.91059	0.02853
1976.94623	0.02849
1975.98186	0.02826
1975.0175	0.02818
1974.05314	0.02836
1973.08877	0.02856
1972.12441	0.02853
1971.16004	0.02836
1970.19568	0.02843
1969.23132	0.02919
1968.26695	0.03069
1967.30259	0.03147
1966.33822	0.03047
1965.37386	0.02906
1964.4095	0.02852
1963.44513	0.02856
1962.48077	0.0286
1961.5164	0.02843
1960.55204	0.0281
1959.58768	0.02797
1958.62331	0.02803
1957.65895	0.02801
1956.69458	0.02797
1955.73022	0.02815
1954.76586	0.02829
1953.80149	0.02812
1952.83713	0.0278
1951.87276	0.02754
1950.9084	0.02749
1949.94404	0.02769
1948.97967	0.02792
1948.01531	0.02814
1947.05094	0.02857
1946.08658	0.02895
1945.12222	0.02914
1944.15785	0.03018
1943.19349	0.03202
1942.22912	0.03169
1941.26476	0.02932
1940.3004	0.02809
1939.33603	0.02798
1938.37167	0.02788
1937.4073	0.02762
1936.44294	0.0275
1935.47858	0.02772
1934.51421	0.02815
1933.54985	0.02834
1932.58548	0.02817
1931.62112	0.02802
1930.65676	0.02825
1929.69239	0.02859
1928.72803	0.02863
1927.76366	0.02846
1926.7993	0.02845
1925.83494	0.02886
1924.87057	0.03014
1923.90621	0.03236
1922.94184	0.03351
1921.97748	0.03191
1921.01312	0.03022
1920.04875	0.03052
1919.08439	0.03232
1918.12002	0.03319
1917.15566	0.03145
1916.1913	0.02996
1915.22693	0.02972
1914.26257	0.02968
1913.2982	0.02949
1912.33384	0.02972
1911.36948	0.03094
1910.40511	0.0324
1909.44075	0.03265
1908.47638	0.03196
1907.51202	0.03112
1906.54766	0.03051
1905.58329	0.03048
1904.61893	0.03061
1903.65456	0.03044
1902.6902	0.03032
1901.72583	0.03045
1900.76147	0.03058
1899.79711	0.03058
1898.83274	0.03059
1897.86838	0.03093
1896.90401	0.03195
1895.93965	0.03346
1894.97529	0.03375
1894.01092	0.03256
1893.04656	0.03178
1892.08219	0.03222
1891.11783	0.03396
1890.15347	0.03602
1889.1891	0.03564
1888.22474	0.03351
1887.26037	0.0326
1886.29601	0.03289
1885.33165	0.03333
1884.36728	0.03316
1883.40292	0.03257
1882.43855	0.03236
1881.47419	0.03241
1880.50983	0.03246
1879.54546	0.03238
1878.5811	0.0323
1877.61673	0.03231
1876.65237	0.0324
1875.68801	0.03237
1874.72364	0.0323
1873.75928	0.03247
1872.79491	0.03309
1871.83055	0.03449
1870.86619	0.03704
1869.90182	0.04053
1868.93746	0.0427
1867.97309	0.04172
1867.00873	0.03938
1866.04437	0.03703
1865.08	0.03529
1864.11564	0.03464
1863.15127	0.03484
1862.18691	0.0353
1861.22255	0.0355
1860.25818	0.03547
1859.29382	0.0357
1858.32945	0.03589
1857.36509	0.03578
1856.40073	0.03559
1855.43636	0.03564
1854.472	0.03589
1853.50763	0.03632
1852.54327	0.03679
1851.57891	0.03713
1850.61454	0.03754
1849.65018	0.03879
1848.68581	0.04092
1847.72145	0.04234
1846.75709	0.04288
1845.79272	0.04496
1844.82836	0.04837
1843.86399	0.04815
1842.89963	0.04514
1841.93527	0.04329
1840.9709	0.04239
1840.00654	0.04231
1839.04217	0.04322
1838.07781	0.04488
1837.11345	0.04582
1836.14908	0.04547
1835.18472	0.04532
1834.22035	0.04606
1833.25599	0.04708
1832.29163	0.04848
1831.32726	0.05186
1830.3629	0.05694
1829.39853	0.05796
1828.43417	0.05453
1827.46981	0.05324
1826.50544	0.05536
1825.54108	0.05824
1824.57671	0.05809
1823.61235	0.05692
1822.64799	0.05686
1821.68362	0.05716
1820.71926	0.05759
1819.75489	0.05852
1818.79053	0.05996
1817.82617	0.06156
1816.8618	0.0626
1815.89744	0.06333
1814.93307	0.06465
1813.96871	0.06673
1813.00435	0.06978
1812.03998	0.07352
1811.07562	0.07684
1810.11125	0.07823
1809.14689	0.07921
1808.18253	0.08156
1807.21816	0.08424
1806.2538	0.08687
1805.28943	0.09012
1804.32507	0.09423
1803.36071	0.09958
1802.39634	0.10597
1801.43198	0.11167
1800.46761	0.11682
1799.50325	0.12177
1798.53889	0.12568
1797.57452	0.13099
1796.61016	0.13889
1795.64579	0.14665
1794.68143	0.15286
1793.71707	0.16112
1792.7527	0.17404
1791.78834	0.18595
1790.82397	0.19366
1789.85961	0.20134
1788.89525	0.21162
1787.93088	0.22551
1786.96652	0.2422
1786.00215	0.26221
1785.03779	0.28771
1784.07343	0.31546
1783.10906	0.34244
1782.1447	0.37308
1781.18033	0.41404
1780.21597	0.4647
1779.25161	0.51503
1778.28724	0.56561
1777.32288	0.61879
1776.35851	0.6751
1775.39415	0.72945
1774.42979	0.76511
1773.46542	0.77926
1772.50106	0.76168
1771.53669	0.69993
1770.57233	0.63949
1769.60797	0.593
1768.6436	0.53954
1767.67924	0.47531
1766.71487	0.42853
1765.75051	0.39682
1764.78615	0.37036
1763.82178	0.35085
1762.85742	0.33727
1761.89305	0.32062
1760.92869	0.30169
1759.96432	0.28992
1758.99996	0.28317
1758.0356	0.27918
1757.07123	0.27541
1756.10687	0.27098
1755.1425	0.27029
1754.17814	0.27603
1753.21378	0.28822
1752.24941	0.30926
1751.28505	0.34554
1750.32068	0.37817
1749.35632	0.39013
1748.39196	0.38463
1747.42759	0.36863
1746.46323	0.3568
1745.49886	0.35447
1744.5345	0.35681
1743.57014	0.35294
1742.60577	0.34024
1741.64141	0.33241
1740.67704	0.33592
1739.71268	0.35142
1738.74832	0.36836
1737.78395	0.38199
1736.81959	0.3942
1735.85522	0.40361
1734.89086	0.40666
1733.9265	0.38071
1732.96213	0.34191
1731.99777	0.31998
1731.0334	0.30219
1730.06904	0.27841
1729.10468	0.25322
1728.14031	0.23549
1727.17595	0.22194
1726.21158	0.21027
1725.24722	0.20154
1724.28286	0.19503
1723.31849	0.18795
1722.35413	0.18035
1721.38976	0.17453
1720.4254	0.17191
1719.46104	0.17335
1718.49667	0.17685
1717.53231	0.1717
1716.56794	0.16362
1715.60358	0.16005
1714.63922	0.15434
1713.67485	0.14574
1712.71049	0.13919
1711.74612	0.13588
1710.78176	0.13452
1709.8174	0.13242
1708.85303	0.13032
1707.88867	0.13096
1706.9243	0.13377
1705.95994	0.13514
1704.99558	0.13403
1704.03121	0.13181
1703.06685	0.13067
1702.10248	0.13268
1701.13812	0.13825
1700.17376	0.14173
1699.20939	0.13769
1698.24503	0.13752
1697.28066	0.14066
1696.3163	0.1437
1695.35194	0.13932
1694.38757	0.13444
1693.42321	0.13292
1692.45884	0.13359
1691.49448	0.13655
1690.53012	0.14137
1689.56575	0.14617
1688.60139	0.14955
1687.63702	0.15216
1686.67266	0.15615
1685.7083	0.16423
1684.74393	0.18097
1683.77957	0.1931
1682.8152	0.19179
1681.85084	0.19635
1680.88648	0.20739
1679.92211	0.21773
1678.95775	0.21827
1677.99338	0.21382
1677.02902	0.2106
1676.06466	0.20924
1675.10029	0.20472
1674.13593	0.19961
1673.17156	0.20005
1672.2072	0.20525
1671.24284	0.2127
1670.27847	0.22036
1669.31411	0.22982
1668.34974	0.23689
1667.38538	0.24219
1666.42102	0.25191
1665.45665	0.26734
1664.49229	0.28698
1663.52792	0.31665
1662.56356	0.3653
1661.5992	0.41508
1660.63483	0.46147
1659.67047	0.51638
1658.7061	0.57678
1657.74174	0.63147
1656.77738	0.66781
1655.81301	0.68258
1654.84865	0.6823
1653.88428	0.65478
1652.91992	0.51123
1651.95556	0.43016
1650.99119	0.40178
1650.02683	0.37903
1649.06246	0.35942
1648.0981	0.34189
1647.13374	0.32212
1646.16937	0.29816
1645.20501	0.27978
1644.24064	0.27132
1643.27628	0.2677
1642.31192	0.266
1641.34755	0.26527
1640.38319	0.26536
1639.41882	0.26724
1638.45446	0.27228
1637.4901	0.28047
1636.52573	0.28977
1635.56137	0.29943
1634.597	0.30505
1633.63264	0.31086
1632.66828	0.32305
1631.70391	0.343
1630.73955	0.37034
1629.77518	0.40321
1628.81082	0.44312
1627.84646	0.49288
1626.88209	0.53198
1625.91773	0.54934
1624.95336	0.55381
1623.989	0.53797
1623.02464	0.48707
1622.06027	0.43488
1621.09591	0.3931
1620.13154	0.35463
1619.16718	0.32411
1618.20281	0.30425
1617.23845	0.28411
1616.27409	0.25045
1615.30972	0.22795
1614.34536	0.21532
1613.38099	0.20432
1612.41663	0.19429
1611.45227	0.18608
1610.4879	0.18021
1609.52354	0.17499
1608.55917	0.16979
1607.59481	0.16507
1606.63045	0.16014
1605.66608	0.1555
1604.70172	0.15273
1603.73735	0.15119
1602.77299	0.14894
1601.80863	0.14619
1600.84426	0.14373
1599.8799	0.14212
1598.91553	0.14151
1597.95117	0.14187
1596.98681	0.14316
1596.02244	0.14566
1595.05808	0.14949
1594.09371	0.15393
1593.12935	0.15897
1592.16499	0.16555
1591.20062	0.17325
1590.23626	0.1795
1589.27189	0.1814
1588.30753	0.17777
1587.34317	0.17012
1586.3788	0.16129
1585.41444	0.15353
1584.45007	0.14791
1583.48571	0.1444
1582.52135	0.14278
1581.55698	0.14303
1580.59262	0.14511
1579.62825	0.14909
1578.66389	0.15528
1577.69953	0.16416
1576.73516	0.1774
1575.7708	0.19013
1574.80643	0.19563
1573.84207	0.2027
1572.87771	0.21429
1571.91334	0.22865
1570.94898	0.24499
1569.98461	0.26771
1569.02025	0.28891
1568.05589	0.29569
1567.09152	0.29976
1566.12716	0.30482
1565.16279	0.30737
1564.19843	0.30426
1563.23407	0.29979
1562.2697	0.29814
1561.30534	0.2998
1560.34097	0.30543
1559.37661	0.31158
1558.41225	0.28377
1557.44788	0.25791
1556.48352	0.24948
1555.51915	0.24624
1554.55479	0.23962
1553.59043	0.22816
1552.62606	0.22219
1551.6617	0.22279
1550.69733	0.22865
1549.73297	0.23444
1548.76861	0.23378
1547.80424	0.23127
1546.83988	0.23007
1545.87551	0.22943
1544.91115	0.22524
1543.94679	0.21903
1542.98242	0.21542
1542.01806	0.21248
1541.05369	0.21128
1540.08933	0.21116
1539.12497	0.1946
1538.1606	0.1787
1537.19624	0.17252
1536.23187	0.17037
1535.26751	0.17113
1534.30315	0.17378
1533.33878	0.17242
1532.37442	0.16609
1531.41005	0.16056
1530.44569	0.15738
1529.48133	0.1577
1528.51696	0.16033
1527.5526	0.16158
1526.58823	0.16147
1525.62387	0.161
1524.65951	0.15908
1523.69514	0.15917
1522.73078	0.16382
1521.76641	0.16963
1520.80205	0.1632
1519.83769	0.15344
1518.87332	0.15136
1517.90896	0.15511
1516.94459	0.15777
1515.98023	0.15223
1515.01587	0.14642
1514.0515	0.14397
1513.08714	0.1445
1512.12277	0.14553
1511.15841	0.14642
1510.19405	0.14995
1509.22968	0.15674
1508.26532	0.16569
1507.30095	0.17483
1506.33659	0.1668
1505.37223	0.15087
1504.40786	0.14457
1503.4435	0.1431
1502.47913	0.14377
1501.51477	0.14492
1500.55041	0.14673
1499.58604	0.1504
1498.62168	0.15419
1497.65731	0.15632
1496.69295	0.15853
1495.72859	0.15822
1494.76422	0.15642
1493.79986	0.15681
1492.83549	0.15959
1491.87113	0.16556
1490.90677	0.17616
1489.9424	0.18681
1488.97804	0.18938
1488.01367	0.19133
1487.04931	0.19652
1486.08495	0.2024
1485.12058	0.20929
1484.15622	0.21847
1483.19185	0.22899
1482.22749	0.23955
1481.26312	0.24776
1480.29876	0.25089
1479.3344	0.25063
1478.37003	0.25041
1477.40567	0.25206
1476.4413	0.25491
1475.47694	0.25679
1474.51258	0.26004
1473.54821	0.26747
1472.58385	0.27425
1471.61948	0.27318
1470.65512	0.27173
1469.69076	0.27354
1468.72639	0.27744
1467.76203	0.28201
1466.79766	0.28732
1465.8333	0.29406
1464.86894	0.30029
1463.90457	0.30164
1462.94021	0.30246
1461.97584	0.30562
1461.01148	0.31025
1460.04712	0.31604
1459.08275	0.32288
1458.11839	0.32806
1457.15402	0.32358
1456.18966	0.31084
1455.2253	0.29996
1454.26093	0.29153
1453.29657	0.2861
1452.3322	0.28281
1451.36784	0.27941
1450.40348	0.27602
1449.43911	0.27426
1448.47475	0.27319
1447.51038	0.2695
1446.54602	0.26468
1445.58166	0.26087
1444.61729	0.25763
1443.65293	0.25501
1442.68856	0.25356
1441.7242	0.25244
1440.75984	0.25053
1439.79547	0.24795
1438.83111	0.2465
1437.86674	0.24755
1436.90238	0.24793
1435.93802	0.2412
1434.97365	0.2343
1434.00929	0.23027
1433.04492	0.22761
1432.08056	0.22567
1431.1162	0.22471
1430.15183	0.22347
1429.18747	0.22048
1428.2231	0.21808
1427.25874	0.21714
1426.29438	0.21713
1425.33001	0.21878
1424.36565	0.22191
1423.40128	0.22326
1422.43692	0.223
1421.47256	0.22482
1420.50819	0.22986
1419.54383	0.23827
1418.57946	0.24484
1417.6151	0.24716
1416.65074	0.24767
1415.68637	0.24673
1414.72201	0.24682
1413.75764	0.24963
1412.79328	0.25404
1411.82892	0.25711
1410.86455	0.25701
1409.90019	0.25498
1408.93582	0.25274
1407.97146	0.25105
1407.0071	0.25044
1406.04273	0.25161
1405.07837	0.25389
1404.114	0.2556
1403.14964	0.25823
1402.18528	0.26327
1401.22091	0.27043
1400.25655	0.27997
1399.29218	0.29159
1398.32782	0.29921
1397.36346	0.30147
1396.39909	0.30404
1395.43473	0.30913
1394.47036	0.31383
1393.506	0.31529
1392.54164	0.31572
1391.57727	0.31583
1390.61291	0.31496
1389.64854	0.31421
1388.68418	0.31539
1387.71982	0.31789
1386.75545	0.31863
1385.79109	0.31842
1384.82672	0.31953
1383.86236	0.32059
1382.898	0.31965
1381.93363	0.31767
1380.96927	0.31743
1380.0049	0.32026
1379.04054	0.32427
1378.07618	0.32606
1377.11181	0.32501
1376.14745	0.32379
1375.18308	0.3239
1374.21872	0.32322
1373.25436	0.32072
1372.28999	0.31941
1371.32563	0.32006
1370.36126	0.32065
1369.3969	0.31866
1368.43254	0.31238
1367.46817	0.30396
1366.50381	0.29718
1365.53944	0.29263
1364.57508	0.28998
1363.61072	0.28673
1362.64635	0.27898
1361.68199	0.26897
1360.71762	0.25986
1359.75326	0.25199
1358.7889	0.24502
1357.82453	0.23809
1356.86017	0.23209
1355.8958	0.2282
1354.93144	0.22511
1353.96708	0.2211
1353.00271	0.2167
1352.03835	0.21327
1351.07398	0.21133
1350.10962	0.2102
1349.14526	0.20845
1348.18089	0.206
1347.21653	0.20439
1346.25216	0.20447
1345.2878	0.20565
1344.32344	0.20691
1343.35907	0.20822
1342.39471	0.21092
1341.43034	0.21642
1340.46598	0.22405
1339.50161	0.22919
1338.53725	0.22986
1337.57289	0.22996
1336.60852	0.23138
1335.64416	0.23289
1334.67979	0.23382
1333.71543	0.2346
1332.75107	0.23571
1331.7867	0.23749
1330.82234	0.23979
1329.85797	0.24195
1328.89361	0.2441
1327.92925	0.24729
1326.96488	0.25228
1326.00052	0.25884
1325.03615	0.26647
1324.07179	0.27526
1323.10743	0.28564
1322.14306	0.29741
1321.1787	0.30936
1320.21433	0.31934
1319.24997	0.32456
1318.28561	0.32368
1317.32124	0.31765
1316.35688	0.30784
1315.39251	0.29601
1314.42815	0.28389
1313.46379	0.27244
1312.49942	0.2619
1311.53506	0.25254
1310.57069	0.24457
1309.60633	0.23802
1308.64197	0.23294
1307.6776	0.22911
1306.71324	0.22616
1305.74887	0.22358
1304.78451	0.22125
1303.82015	0.21949
1302.85578	0.21855
1301.89142	0.21781
1300.92705	0.21656
1299.96269	0.21477
1298.99833	0.21301
1298.03396	0.21161
1297.0696	0.21011
1296.10523	0.20794
1295.14087	0.20542
1294.17651	0.20332
1293.21214	0.20191
1292.24778	0.20077
1291.28341	0.19952
1290.31905	0.19822
1289.35469	0.19748
1288.39032	0.19777
1287.42596	0.1984
1286.46159	0.19907
1285.49723	0.20053
1284.53287	0.20359
1283.5685	0.20824
1282.60414	0.21382
1281.63977	0.21994
1280.67541	0.22641
1279.71105	0.23275
1278.74668	0.23791
1277.78232	0.24091
1276.81795	0.24141
1275.85359	0.24031
1274.88923	0.23883
1273.92486	0.23762
1272.9605	0.2367
1271.99613	0.23588
1271.03177	0.2355
1270.06741	0.23649
1269.10304	0.23916
1268.13868	0.24325
1267.17431	0.2486
1266.20995	0.25507
1265.24559	0.26213
1264.28122	0.26869
1263.31686	0.27353
1262.35249	0.27618
1261.38813	0.27687
1260.42377	0.27567
1259.4594	0.27252
1258.49504	0.26809
1257.53067	0.26348
1256.56631	0.25956
1255.60195	0.25678
1254.63758	0.25493
1253.67322	0.25351
1252.70885	0.25215
1251.74449	0.25105
1250.78013	0.2502
1249.81576	0.24926
1248.8514	0.24785
1247.88703	0.24615
1246.92267	0.24484
1245.95831	0.24427
1244.99394	0.24415
1244.02958	0.244
1243.06521	0.24385
1242.10085	0.24432
1241.13649	0.24563
1240.17212	0.24749
1239.20776	0.24953
1238.24339	0.25197
1237.27903	0.25534
1236.31467	0.25975
1235.3503	0.26477
1234.38594	0.27
1233.42157	0.27582
1232.45721	0.28293
1231.49285	0.29163
1230.52848	0.30164
1229.56412	0.31299
1228.59975	0.32627
1227.63539	0.34174
1226.67103	0.35836
1225.70666	0.37376
1224.7423	0.38527
1223.77793	0.39121
1222.81357	0.39129
1221.84921	0.38619
1220.88484	0.37729
1219.92048	0.36655
1218.95611	0.35611
1217.99175	0.34737
1217.02739	0.3406
1216.06302	0.33531
1215.09866	0.33124
1214.13429	0.3287
1213.16993	0.328
1212.20557	0.32865
1211.2412	0.3298
1210.27684	0.33131
1209.31247	0.3336
1208.34811	0.33697
1207.38375	0.34069
1206.41938	0.34377
1205.45502	0.34605
1204.49065	0.34835
1203.52629	0.35141
1202.56193	0.3549
1201.59756	0.35791
1200.6332	0.36023
1199.66883	0.36258
1198.70447	0.36567
1197.7401	0.3692
1196.77574	0.37231
1195.81138	0.37499
1194.84701	0.37784
1193.88265	0.38118
1192.91828	0.38421
1191.95392	0.38583
1190.98956	0.38637
1190.02519	0.38763
1189.06083	0.3909
1188.09646	0.39597
1187.1321	0.40162
1186.16774	0.40729
1185.20337	0.41422
1184.23901	0.42387
1183.27464	0.43562
1182.31028	0.44704
1181.34592	0.45643
1180.38155	0.4641
1179.41719	0.47139
1178.45282	0.47868
1177.48846	0.48526
1176.5241	0.49086
1175.55973	0.4964
1174.59537	0.503
1173.631	0.5106
1172.66664	0.51883
1171.70228	0.52819
1170.73791	0.53972
1169.77355	0.55399
1168.80918	0.57015
1167.84482	0.58638
1166.88046	0.60106
1165.91609	0.61302
1164.95173	0.62081
1163.98736	0.6232
1163.023	0.62074
1162.05864	0.61641
1161.09427	0.61338
1160.12991	0.61321
1159.16554	0.61546
1158.20118	0.61881
1157.23682	0.62219
1156.27245	0.62478
1155.30809	0.62551
1154.34372	0.62382
1153.37936	0.62077
1152.415	0.61929
1151.45063	0.62201
1150.48627	0.62729
1149.5219	0.62779
1148.55754	0.6168
1147.59318	0.59533
1146.62881	0.57121
1145.66445	0.55139
1144.70008	0.53767
1143.73572	0.52854
1142.77136	0.52297
1141.80699	0.5213
1140.84263	0.52377
1139.87826	0.52963
1138.9139	0.53793
1137.94954	0.54909
1136.98517	0.56464
1136.02081	0.58572
1135.05644	0.61206
1134.09208	0.64213
1133.12772	0.67421
1132.16335	0.70551
1131.19899	0.73135
1130.23462	0.74602
1129.27026	0.74666
1128.3059	0.73497
1127.34153	0.71566
1126.37717	0.69364
1125.4128	0.67177
1124.44844	0.65116
1123.48408	0.63291
1122.51971	0.61847
1121.55535	0.60852
1120.59098	0.60216
1119.62662	0.59817
1118.66226	0.5967
1117.69789	0.59874
1116.73353	0.60478
1115.76916	0.61381
1114.8048	0.62371
1113.84044	0.63261
1112.87607	0.63915
1111.91171	0.6422
1110.94734	0.64042
1109.98298	0.63378
1109.01862	0.6243
1108.05425	0.61491
1107.08989	0.60723
1106.12552	0.60101
1105.16116	0.59545
1104.1968	0.5907
1103.23243	0.5875
1102.26807	0.58619
1101.3037	0.58599
1100.33934	0.58611
1099.37498	0.58656
1098.41061	0.58804
1097.44625	0.59085
1096.48188	0.59434
1095.51752	0.59769
1094.55316	0.60072
1093.58879	0.6041
1092.62443	0.608
1091.66006	0.6116
1090.6957	0.61381
1089.73134	0.61452
1088.76697	0.61451
1087.80261	0.61414
1086.83824	0.61259
1085.87388	0.60897
1084.90952	0.60343
1083.94515	0.59684
1082.98079	0.58952
1082.01642	0.58103
1081.05206	0.57076
1080.0877	0.55912
1079.12333	0.54759
1078.15897	0.53766
1077.1946	0.52981
1076.23024	0.52403
1075.26588	0.52104
1074.30151	0.52178
1073.33715	0.52631
1072.37278	0.53355
1071.40842	0.54206
1070.44406	0.55136
1069.47969	0.56139
1068.51533	0.57181
1067.55096	0.58199
1066.5866	0.59149
1065.62224	0.60037
1064.65787	0.60928
1063.69351	0.61866
1062.72914	0.6284
1061.76478	0.63808
1060.80042	0.64759
1059.83605	0.65745
1058.87169	0.6679
1057.90732	0.67874
1056.94296	0.69
1055.97859	0.70168
1055.01423	0.71406
1054.04987	0.7279
1053.0855	0.74347
1052.12114	0.76052
1051.15677	0.77902
1050.19241	0.79918
1049.22805	0.82137
1048.26368	0.84523
1047.29932	0.86794
1046.33495	0.88481
1045.37059	0.89314
1044.40623	0.89537
1043.44186	0.8975
1042.4775	0.90525
1041.51313	0.9213
1040.54877	0.94427
1039.58441	0.96928
1038.62004	0.98969
1037.65568	1
1036.69131	0.99822
1035.72695	0.98644
1034.76259	0.96885
1033.79822	0.94899
1032.83386	0.92806
1031.86949	0.9051
1030.90513	0.87885
1029.94077	0.85007
1028.9764	0.82164
1028.01204	0.79612
1027.04767	0.77386
1026.08331	0.75421
1025.11895	0.73725
1024.15458	0.72332
1023.19022	0.71196
1022.22585	0.70208
1021.26149	0.69257
1020.29713	0.68353
1019.33276	0.67596
1018.3684	0.67035
1017.40403	0.66598
1016.43967	0.66228
1015.47531	0.65959
1014.51094	0.65863
1013.54658	0.65928
1012.58221	0.66017
1011.61785	0.65977
1010.65349	0.65771
1009.68912	0.65473
1008.72476	0.65104
1007.76039	0.64583
1006.79603	0.63839
1005.83167	0.62925
1004.8673	0.61976
1003.90294	0.6105
1002.93857	0.60064
1001.97421	0.58912
1001.00985	0.57637
1000.04548	0.56406
999.08112	0.55299
998.11675	0.54237
997.15239	0.53175
996.18803	0.52277
995.22366	0.51792
994.2593	0.51843
993.29493	0.52367
992.33057	0.53183
991.36621	0.54176
990.40184	0.55225
989.43748	0.55977
988.47311	0.55894
987.50875	0.54667
986.54439	0.52476
985.58002	0.49793
984.61566	0.46983
983.65129	0.44123
982.68693	0.41203
981.72257	0.38374
980.7582	0.35917
979.79384	0.33933
978.82947	0.32261
977.86511	0.30752
976.90075	0.2952
975.93638	0.28793
974.97202	0.28608
974.00765	0.2873
973.04329	0.28933
972.07893	0.2923
971.11456	0.29787
970.1502	0.30613
969.18583	0.31479
968.22147	0.32193
967.25711	0.32869
966.29274	0.33742
965.32838	0.34733
964.36401	0.35356
963.39965	0.35176
962.43529	0.34276
961.47092	0.3314
960.50656	0.32085
959.54219	0.31069
958.57783	0.29983
957.61347	0.28965
956.6491	0.28281
955.68474	0.27917
954.72037	0.27536
953.75601	0.26861
952.79165	0.26003
951.82728	0.2532
950.86292	0.24947
949.89855	0.24655
948.93419	0.24214
947.96983	0.23746
947.00546	0.23562
946.0411	0.23735
945.07673	0.23958
944.11237	0.23855
943.14801	0.23366
942.18364	0.22731
941.21928	0.22076
940.25491	0.21262
939.29055	0.20164
938.32619	0.18948
937.36182	0.17914
936.39746	0.17164
935.43309	0.16485
934.46873	0.1567
933.50437	0.14829
932.54	0.14246
931.57564	0.1398
930.61127	0.13782
929.64691	0.13452
928.68255	0.13117
927.71818	0.13004
926.75382	0.13111
925.78945	0.13126
924.82509	0.1283
923.86073	0.12392
922.89636	0.12148
921.932	0.12164
920.96763	0.12191
920.00327	0.1203
919.03891	0.11792
918.07454	0.1174
917.11018	0.11893
916.14581	0.11971
915.18145	0.11754
914.21708	0.11385
913.25272	0.11157
912.28836	0.11109
911.32399	0.10985
910.35963	0.10589
909.39526	0.1006
908.4309	0.09688
907.46654	0.09509
906.50217	0.09263
905.53781	0.08774
904.57344	0.08185
903.60908	0.07762
902.64472	0.07538
901.68035	0.07277
900.71599	0.06797
899.75162	0.06235
898.78726	0.0588
897.8229	0.05773
896.85853	0.05643
895.89417	0.05298
894.9298	0.04885
893.96544	0.04678
893.00108	0.04688
892.03671	0.04667
891.07235	0.04427
890.10798	0.04088
889.14362	0.03901
888.17926	0.03893
887.21489	0.03853
886.25053	0.03634
885.28616	0.0338
884.3218	0.03353
883.35744	0.03576
882.39307	0.03803
881.42871	0.03837
880.46434	0.03713
879.49998	0.03566
878.53562	0.034
877.57125	0.03087
876.60689	0.02588
875.64252	0.02118
874.67816	0.0192
873.7138	0.01975
872.74943	0.0207
871.78507	0.02085
870.8207	0.02144
869.85634	0.02442
868.89198	0.02973
867.92761	0.03534
866.96325	0.04037
865.99888	0.04632
865.03452	0.05519
864.07016	0.06706
863.10579	0.08022
862.14143	0.09381
861.17706	0.10867
860.2127	0.12495
859.24834	0.13918
858.28397	0.14571
857.31961	0.14186
856.35524	0.13074
855.39088	0.11791
854.42652	0.10641
853.46215	0.09578
852.49779	0.08528
851.53342	0.07607
850.56906	0.06951
849.6047	0.06498
848.64033	0.06074
847.67597	0.05612
846.7116	0.05225
845.74724	0.05049
844.78288	0.05007
843.81851	0.04863
842.85415	0.04482
841.88978	0.03984
840.92542	0.03561
839.96106	0.03232
838.99669	0.02868
838.03233	0.02419
837.06796	0.01991
836.1036	0.01693
835.13924	0.01491
834.17487	0.01252
833.21051	0.00934
832.24614	0.00642
831.28178	0.00475
830.31742	0.00397
829.35305	0.00304
828.38869	0.00157
827.42432	3.17237E-4
826.45996	0
825.4956	3.96547E-4
824.53123	6.11815E-4
823.56687	3.39897E-4
822.6025	1.13299E-5
821.63814	2.94578E-4
820.67378	0.00116
819.70941	0.00186
818.74505	0.00229
817.78068	0.00315
816.81632	0.00474
815.85196	0.00658
814.88759	0.00819
813.92323	0.00954
812.95886	0.01108
811.9945	0.01323
811.03014	0.0157
810.06577	0.0182
809.10141	0.02082
808.13704	0.02419
807.17268	0.02887
806.20832	0.03439
805.24395	0.03937
804.27959	0.04222
803.31522	0.04208
802.35086	0.03945
801.3865	0.03573
800.42213	0.03215
799.45777	0.02917
798.4934	0.02669
797.52904	0.02457
796.56468	0.02295
795.60031	0.02196
794.63595	0.02165
793.67158	0.02145
792.70722	0.02071
791.74286	0.01954
790.77849	0.01848
789.81413	0.01755
788.84976	0.0166
787.8854	0.01562
786.92104	0.015
785.95667	0.01508
784.99231	0.01581
784.02794	0.01658
783.06358	0.01713
782.09922	0.01814
781.13485	0.02036
780.17049	0.02362
779.20612	0.0274
778.24176	0.03184
777.2774	0.03816
776.31303	0.04743
775.34867	0.05902
774.3843	0.07022
773.41994	0.07775
772.45557	0.07993
771.49121	0.0777
770.52685	0.0731
769.56248	0.06761
768.59812	0.06224
767.63375	0.05865
766.66939	0.05833
765.70503	0.06064
764.74066	0.06355
763.7763	0.06593
762.81193	0.06884
761.84757	0.07378
760.88321	0.08044
759.91884	0.08741
758.95448	0.09403
757.99011	0.10087
757.02575	0.10853
756.06139	0.11576
755.09702	0.11925
754.13266	0.1163
753.16829	0.10789
752.20393	0.09798
751.23957	0.08939
750.2752	0.08195
749.31084	0.07506
748.34647	0.06993
747.38211	0.0675
746.41775	0.06633
745.45338	0.06347
744.48902	0.05804
743.52465	0.05228
742.56029	0.04819
741.59593	0.04492
740.63156	0.04028
739.6672	0.03411
738.70283	0.02917
737.73847	0.02785
736.77411	0.02941
735.80974	0.03177
734.84538	0.03468
733.88101	0.03958
732.91665	0.04591
731.95229	0.05023
730.98792	0.04939
730.02356	0.04439
729.05919	0.03964
728.09483	0.03792
727.13047	0.03774
726.1661	0.03626
725.20174	0.03356
724.23737	0.03245
723.27301	0.0345
722.30865	0.03721
721.34428	0.03699
720.37992	0.03528
719.41555	0.03698
718.45119	0.04287
717.48683	0.04914
716.52246	0.05282
715.5581	0.05458
714.59373	0.05751
713.62937	0.06279
712.66501	0.06797
711.70064	0.07037
710.73628	0.07093
709.77191	0.07312
708.80755	0.07827
707.84319	0.08354
706.87882	0.08582
705.91446	0.08598
704.95009	0.08739
703.98573	0.09118
703.02137	0.09454
702.057	0.09433
701.09264	0.09113
700.12827	0.0882
699.16391	0.08666
698.19955	0.08355
697.23518	0.07606
696.27082	0.06663
695.30645	0.06029
694.34209	0.05803
693.37773	0.05603
692.41336	0.05112
691.449	0.04503
690.48463	0.04198
689.52027	0.04294
688.55591	0.04378
687.59154	0.04099
686.62718	0.03688
685.66281	0.03597
684.69845	0.03837
683.73409	0.03977
682.76972	0.03758
681.80536	0.03457
680.84099	0.0351
679.87663	0.0389
678.91227	0.04135
677.9479	0.04014
676.98354	0.03837
676.01917	0.04005
675.05481	0.04459
674.09045	0.04794
673.12608	0.04789
672.16172	0.04675
671.19735	0.04711
670.23299	0.04627
669.26863	0.03992
668.30426	0.03722
667.3399	0.05834
666.37553	0.07475
665.41117	0.08435
664.44681	0.08841
663.48244	0.08573
662.51808	0.08059
661.55371	0.07805
660.58935	0.07729
659.62499	0.07387
658.66062	0.06708
657.69626	0.06148
656.73189	0.0609
655.76753	0.06304
654.80317	0.06244
653.8388	0.05826
652.87444	0.05535
651.91007	0.05731
650.94571	0.0609
649.98135	0.06041
649.01698	0.05611
648.05262	0.05396
647.08825	0.05696
646.12389	0.06124
645.15953	0.06216
644.19516	0.05973
643.2308	0.05858
642.26643	0.06144
641.30207	0.06515
640.33771	0.06506
639.37334	0.06203
638.40898	0.06159
637.44461	0.06623
636.48025	0.07208
635.51589	0.07436
634.55152	0.07395
633.58716	0.07649
632.62279	0.08355
631.65843	0.08999
630.69406	0.09107
629.7297	0.08831
628.76534	0.08726
627.80097	0.09044
626.83661	0.09441
625.87224	0.09482
624.90788	0.09257
623.94352	0.09305
622.97915	0.09822
622.01479	0.10382
621.05042	0.10569
620.08606	0.10531
619.1217	0.10716
618.15733	0.11294
617.19297	0.11989
616.2286	0.12381
615.26424	0.12538
614.29988	0.12924
613.33551	0.13614
612.37115	0.14131
611.40678	0.14148
610.44242	0.13991
609.47806	0.14169
608.51369	0.14642
607.54933	0.1488
606.58496	0.14673
605.6206	0.14455
604.65624	0.14676
603.69187	0.15205
602.72751	0.15524
601.76314	0.15422
600.79878	0.15199
599.83442	0.15201
598.87005	0.15333
597.90569	0.15214
596.94132	0.14763
595.97696	0.14354
595.0126	0.14345
594.04823	0.14574
593.08387	0.14662
592.1195	0.14467
591.15514	0.14211
590.19078	0.14272
589.22641	0.14582
588.26205	0.14718
587.29768	0.14561
586.33332	0.14525
585.36896	0.1494
584.40459	0.15542
583.44023	0.15864
582.47586	0.1596
581.5115	0.16223
580.54714	0.16715
579.58277	0.17063
578.61841	0.17025
577.65404	0.16809
576.68968	0.16803
575.72532	0.17069
574.76095	0.17258
573.79659	0.17169
572.83222	0.16948
571.86786	0.16919
570.9035	0.17197
569.93913	0.17437
568.97477	0.1728
568.0104	0.16871
567.04604	0.16635
566.08168	0.16641
565.11731	0.16537
564.15295	0.16058
563.18858	0.15446
562.22422	0.15167
561.25986	0.15268
560.29549	0.1531
559.33113	0.14996
558.36676	0.14577
557.4024	0.14446
556.43804	0.14583
555.47367	0.14667
554.50931	0.14549
553.54494	0.14454
552.58058	0.14624
551.61622	0.14971
550.65185	0.15225
549.68749	0.15315
548.72312	0.15429
547.75876	0.15771
546.7944	0.16197
545.83003	0.16316
544.86567	0.16082
543.9013	0.15865
542.93694	0.15911
541.97258	0.16041
541.00821	0.15948
540.04385	0.15605
539.07948	0.15269
538.11512	0.15057
537.15076	0.14779
536.18639	0.14211
535.22203	0.1348
534.25766	0.1291
533.2933	0.12599
532.32894	0.12378
531.36457	0.12081
530.40021	0.11721
529.43584	0.11478
528.47148	0.11447
527.50712	0.11508
526.54275	0.11535
525.57839	0.11532
524.61402	0.11629
523.64966	0.11882
522.6853	0.12054
521.72093	0.11945
520.75657	0.1174
519.7922	0.11664
518.82784	0.11587
517.86348	0.11288
516.89911	0.1072
515.93475	0.10143
514.97038	0.09862
514.00602	0.0979
513.04166	0.09676
512.07729	0.09516
511.11293	0.09432
510.14856	0.09391
509.1842	0.09343
508.21984	0.09336
507.25547	0.09397
506.29111	0.09494
505.32674	0.09577
504.36238	0.09579
503.39802	0.09573
502.43365	0.09568
501.46929	0.09343
500.50492	0.08987
499.54056	0.0871
498.5762	0.08502
497.61183	0.08321
496.64747	0.08206
495.6831	0.08133
494.71874	0.07956
493.75437	0.07684
492.79001	0.07538
491.82565	0.07549
490.86128	0.07454
489.89692	0.07192
488.93255	0.06969
487.96819	0.06904
487.00383	0.06891
486.03946	0.06732
485.0751	0.06528
484.11073	0.065
483.14637	0.06508
482.18201	0.06466
481.21764	0.06459
480.25328	0.06395
479.28891	0.06288
478.32455	0.06314
477.36019	0.06403
476.39582	0.06305
475.43146	0.0611
474.46709	0.06264
473.50273	0.06818
472.53837	0.07021
471.574	0.06482
470.60964	0.06064
469.64527	0.06066
468.68091	0.06234
467.71655	0.0616
466.75218	0.05794
465.78782	0.0556
464.82345	0.0559
463.85909	0.05665
462.89473	0.05622
461.93036	0.05463
460.966	0.05392
460.00163	0.05562
459.03727	0.05912
458.07291	0.06128
457.10854	0.05668
456.14418	0.05152
455.17981	0.05125
454.21545	0.05313
453.25109	0.05285
452.28672	0.04901
451.32236	0.0456
450.35799	0.04534
449.39363	0.04619
448.42927	0.04603
447.4649	0.04597
446.50054	0.04699
445.53617	0.04777
444.57181	0.04777
443.60745	0.04693
442.64308	0.0456
441.67872	0.04529
440.71435	0.04447
439.74999	0.04031
438.78563	0.03499
437.82126	0.03419
436.8569	0.03825
435.89253	0.04001
434.92817	0.0357
433.96381	0.03042
432.99944	0.0291
432.03508	0.03166
431.07071	0.0341
430.10635	0.03192
429.14199	0.02776
428.17762	0.02729
427.21326	0.03014
426.24889	0.03261
425.28453	0.03227
424.32017	0.03039
423.3558	0.03237
422.39144	0.03817
421.42707	0.04208
420.46271	0.04488
419.49835	0.04975
418.53398	0.0514
417.56962	0.0448
416.60525	0.03677
415.64089	0.03021
414.67653	0.02698
413.71216	0.02731
412.7478	0.02885
411.78343	0.02855
410.81907	0.02826
409.85471	0.02796
408.89034	0.02767
407.92598	0.02737
406.96161	0.02708
405.99725	0.02678
405.03289	0.02649
404.06852	0.02619
403.10416	0.0259
402.13979	0.02561
401.17543	0.02531
400.21107	0.02502