401	0.06716
402	0.05548
403	0.04186
404	0.03667
405	0.02893
406	0.0147
407	0.01081
408	0.02591
409	0.04179
410	0.03898
411	0.02631
412	0.02276
413	0.02579
414	0.02352
415	0.01775
416	0.01498
417	0.01433
418	0.01444
419	0.01529
420	0.01533
421	0.01619
422	0.02086
423	0.02476
424	0.01878
425	0.00818
426	0.00888
427	0.01991
428	0.02318
429	0.01408
430	0.0074
431	0.0152
432	0.03231
433	0.03926
434	0.02614
435	0.01175
436	0.01244
437	0.02064
438	0.02317
439	0.01926
440	0.01666
441	0.02056
442	0.02574
443	0.02302
444	0.01385
445	0.00982
446	0.01294
447	0.01273
448	0.00689
449	0.00456
450	0.01053
451	0.01914
452	0.01937
453	0.01021
454	0.00484
455	0.01066
456	0.01965
457	0.01623
458	7.74162E-4
459	0
460	0.01251
461	0.01877
462	0.01346
463	0.00996
464	0.01427
465	0.01754
466	0.01336
467	0.00591
468	0.00667
469	0.01848
470	0.02771
471	0.02466
472	0.01766
473	0.01849
474	0.02606
475	0.03091
476	0.02701
477	0.02135
478	0.0246
479	0.03295
480	0.03594
481	0.03234
482	0.03044
483	0.03568
484	0.03977
485	0.03218
486	0.02164
487	0.02343
488	0.03535
489	0.04008
490	0.03243
491	0.02605
492	0.03253
493	0.04468
494	0.04683
495	0.03804
496	0.03155
497	0.03639
498	0.04559
499	0.04631
500	0.03935
501	0.03649
502	0.04066
503	0.04197
504	0.03495
505	0.0276
506	0.03083
507	0.04123
508	0.04282
509	0.03239
510	0.02339
511	0.02757
512	0.03825
513	0.04125
514	0.03664
515	0.03634
516	0.04517
517	0.05457
518	0.05365
519	0.04616
520	0.04505
521	0.05188
522	0.05562
523	0.05103
524	0.04581
525	0.04899
526	0.05679
527	0.05757
528	0.05118
529	0.04885
530	0.05532
531	0.06157
532	0.05727
533	0.04657
534	0.04376
535	0.05236
536	0.0585
537	0.05128
538	0.03958
539	0.03905
540	0.04945
541	0.05435
542	0.04542
543	0.03564
544	0.03846
545	0.04894
546	0.05123
547	0.04168
548	0.03466
549	0.03931
550	0.04659
551	0.04377
552	0.03409
553	0.03163
554	0.04022
555	0.04771
556	0.04305
557	0.03329
558	0.03368
559	0.04505
560	0.05238
561	0.0466
562	0.03814
563	0.04145
564	0.05335
565	0.0577
566	0.04994
567	0.04361
568	0.05118
569	0.06534
570	0.0692
571	0.0621
572	0.05884
573	0.06708
574	0.07743
575	0.07807
576	0.0709
577	0.06882
578	0.07698
579	0.08499
580	0.08322
581	0.07609
582	0.07607
583	0.0849
584	0.09051
585	0.08502
586	0.07695
587	0.07873
588	0.08753
589	0.09022
590	0.08376
591	0.07776
592	0.08034
593	0.08715
594	0.08698
595	0.07858
596	0.07333
597	0.07758
598	0.08337
599	0.08183
600	0.07556
601	0.0736
602	0.07905
603	0.08525
604	0.08485
605	0.08084
606	0.08178
607	0.08806
608	0.09157
609	0.08828
610	0.08353
611	0.08307
612	0.08557
613	0.08593
614	0.08247
615	0.07777
616	0.07274
617	0.0661
618	0.06096
619	0.06025
620	0.06165
621	0.06307
622	0.06279
623	0.05894
624	0.05362
625	0.0507
626	0.0507
627	0.04946
628	0.04513
629	0.04156
630	0.04095
631	0.04141
632	0.04081
633	0.03941
634	0.03859
635	0.03893
636	0.03875
637	0.0367
638	0.0345
639	0.03457
640	0.03605
641	0.03575
642	0.03334
643	0.03199
644	0.03338
645	0.03413
646	0.03067
647	0.02504
648	0.02157
649	0.02322
650	0.0265
651	0.02529
652	0.02236
653	0.02465
654	0.03011
655	0.03101
656	0.02701
657	0.0254
658	0.02976
659	0.02976
660	0.02976
661	0.02976
662	0.02976
663	0.02976
664	0.02976
665	0.02976
666	0.02976
667	0.02976
668	0.02976
669	0.02976
670	0.02976
671	0.02976
672	0.02976
673	0.02976
674	0.02976
675	0.02964
676	0.02142
677	0.02342
678	0.032
679	0.03361
680	0.02551
681	0.01935
682	0.0243
683	0.03423
684	0.03637
685	0.03048
686	0.02809
687	0.03473
688	0.04267
689	0.04254
690	0.03772
691	0.03918
692	0.04938
693	0.0584
694	0.05837
695	0.05581
696	0.06146
697	0.07446
698	0.0837
699	0.08379
700	0.08265
701	0.0901
702	0.10311
703	0.11005
704	0.10689
705	0.1037
706	0.10928
707	0.11792
708	0.11792
709	0.10903
710	0.10209
711	0.10383
712	0.10743
713	0.10305
714	0.09236
715	0.08639
716	0.08903
717	0.09131
718	0.08395
719	0.0694
720	0.06131
721	0.06739
722	0.0757
723	0.0735
724	0.06661
725	0.06671
726	0.073
727	0.07462
728	0.06678
729	0.05813
730	0.05867
731	0.0651
732	0.06484
733	0.05578
734	0.04914
735	0.0524
736	0.05847
737	0.05748
738	0.05044
739	0.04702
740	0.05168
741	0.05779
742	0.05772
743	0.0541
744	0.05583
745	0.06499
746	0.07296
747	0.07323
748	0.0713
749	0.077
750	0.09005
751	0.10021
752	0.10184
753	0.10154
754	0.10853
755	0.12021
756	0.12548
757	0.12124
758	0.11697
759	0.12006
760	0.12446
761	0.12141
762	0.11206
763	0.10537
764	0.10549
765	0.10622
766	0.09992
767	0.08927
768	0.08381
769	0.08623
770	0.08834
771	0.08311
772	0.07435
773	0.07057
774	0.0723
775	0.07126
776	0.06258
777	0.05207
778	0.04804
779	0.04913
780	0.04659
781	0.0375
782	0.02958
783	0.02998
784	0.03539
785	0.0362
786	0.03049
787	0.02673
788	0.03072
789	0.03656
790	0.03552
791	0.02897
792	0.02614
793	0.03026
794	0.03491
795	0.03357
796	0.02893
797	0.029
798	0.03495
799	0.03878
800	0.03553
801	0.03037
802	0.03059
803	0.03588
804	0.03922
805	0.03675
806	0.03292
807	0.03416
808	0.03899
809	0.04047
810	0.03687
811	0.03455
812	0.0385
813	0.04496
814	0.04646
815	0.04236
816	0.03902
817	0.04051
818	0.04323
819	0.04216
820	0.03826
821	0.03682
822	0.03925
823	0.04157
824	0.04026
825	0.0375
826	0.03829
827	0.04304
828	0.04722
829	0.0486
830	0.05037
831	0.05589
832	0.06374
833	0.06995
834	0.07398
835	0.07913
836	0.0871
837	0.09492
838	0.09928
839	0.10156
840	0.10539
841	0.11151
842	0.11672
843	0.11896
844	0.12028
845	0.12324
846	0.1276
847	0.13085
848	0.13196
849	0.13302
850	0.13574
851	0.13896
852	0.14027
853	0.13985
854	0.14012
855	0.14173
856	0.1419
857	0.13851
858	0.13379
859	0.13108
860	0.12998
861	0.12656
862	0.1194
863	0.11213
864	0.10826
865	0.10503
866	0.0972
867	0.08546
868	0.07636
869	0.07227
870	0.06928
871	0.0628
872	0.0543
873	0.04895
874	0.04811
875	0.04733
876	0.0429
877	0.0373
878	0.0359
879	0.03907
880	0.04125
881	0.0389
882	0.03583
883	0.03802
884	0.04444
885	0.04803
886	0.04568
887	0.04301
888	0.04634
889	0.05298
890	0.0555
891	0.05252
892	0.05116
893	0.05639
894	0.06359
895	0.06511
896	0.06167
897	0.0611
898	0.06704
899	0.0742
900	0.07591
901	0.0736
902	0.07528
903	0.08389
904	0.09289
905	0.09589
906	0.09585
907	0.10021
908	0.11028
909	0.11957
910	0.12271
911	0.12325
912	0.1288
913	0.13969
914	0.14846
915	0.15076
916	0.15198
917	0.15979
918	0.17288
919	0.18186
920	0.18341
921	0.18513
922	0.19398
923	0.20658
924	0.21436
925	0.21492
926	0.21569
927	0.22308
928	0.23334
929	0.23827
930	0.2373
931	0.23802
932	0.24496
933	0.25341
934	0.25656
935	0.25528
936	0.25698
937	0.2643
938	0.27149
939	0.27259
940	0.26952
941	0.26968
942	0.27504
943	0.27877
944	0.27457
945	0.26618
946	0.26156
947	0.2619
948	0.25974
949	0.25081
950	0.24045
951	0.2356
952	0.23607
953	0.23484
954	0.22864
955	0.2232
956	0.22468
957	0.23075
958	0.23469
959	0.23522
960	0.23763
961	0.24632
962	0.25869
963	0.26877
964	0.27566
965	0.2844
966	0.29817
967	0.31337
968	0.32471
969	0.33301
970	0.34405
971	0.35993
972	0.37554
973	0.38644
974	0.39475
975	0.40624
976	0.42261
977	0.43873
978	0.45013
979	0.45889
980	0.46994
981	0.48335
982	0.49464
983	0.50136
984	0.50642
985	0.51396
986	0.52385
987	0.53216
988	0.53773
989	0.54467
990	0.55627
991	0.57046
992	0.58316
993	0.59427
994	0.60727
995	0.62387
996	0.64129
997	0.65603
998	0.66824
999	0.68035
1000	0.69398
1001	0.70735
1002	0.71747
1003	0.72453
1004	0.732
1005	0.74143
1006	0.7498
1007	0.75466
1008	0.75865
1009	0.76494
1010	0.77322
1011	0.78159
1012	0.78952
1013	0.79842
1014	0.81002
1015	0.82437
1016	0.8398
1017	0.85463
1018	0.86972
1019	0.88678
1020	0.90504
1021	0.92234
1022	0.9377
1023	0.95214
1024	0.9663
1025	0.97891
1026	0.98748
1027	0.99227
1028	0.99557
1029	0.99861
1030	1
1031	0.99792
1032	0.99265
1033	0.98664
1034	0.9813
1035	0.97534
1036	0.96708
1037	0.95735
1038	0.94839
1039	0.94078
1040	0.93301
1041	0.92423
1042	0.91552
1043	0.90783
1044	0.90047
1045	0.89188
1046	0.88177
1047	0.8718
1048	0.86331
1049	0.85527
1050	0.84581
1051	0.8351
1052	0.82454
1053	0.81436
1054	0.80344
1055	0.7914
1056	0.77878
1057	0.76611
1058	0.75292
1059	0.73892
1060	0.72441
1061	0.71019
1062	0.69679
1063	0.68349
1064	0.66961
1065	0.65569
1066	0.64279
1067	0.63153
1068	0.62142
1069	0.61212
1070	0.60478
1071	0.60131
1072	0.6022
1073	0.60641
1074	0.61356
1075	0.62479
1076	0.64113
1077	0.66065
1078	0.67943
1079	0.69566
1080	0.71021
1081	0.7238
1082	0.73446
1083	0.73927
1084	0.73859
1085	0.73579
1086	0.73221
1087	0.72631
1088	0.71667
1089	0.7043
1090	0.69235
1091	0.68304
1092	0.67444
1093	0.66366
1094	0.65156
1095	0.64175
1096	0.63557
1097	0.6303
1098	0.62309
1099	0.6155
1100	0.61071
1101	0.60876
1102	0.60654
1103	0.60175
1104	0.59574
1105	0.59185
1106	0.59059
1107	0.588
1108	0.58148
1109	0.57429
1110	0.57041
1111	0.56905
1112	0.56574
1113	0.5593
1114	0.55312
1115	0.551
1116	0.5521
1117	0.55218
1118	0.55025
1119	0.5504
1120	0.55571
1121	0.56301
1122	0.5673
1123	0.56845
1124	0.57068
1125	0.57595
1126	0.58103
1127	0.58141
1128	0.57742
1129	0.57473
1130	0.57709
1131	0.5811
1132	0.58043
1133	0.5753
1134	0.57147
1135	0.5717
1136	0.57219
1137	0.5686
1138	0.56326
1139	0.56196
1140	0.56542
1141	0.56885
1142	0.5692
1143	0.56924
1144	0.57342
1145	0.58171
1146	0.58972
1147	0.59447
1148	0.59859
1149	0.60659
1150	0.61769
1151	0.62683
1152	0.63161
1153	0.63507
1154	0.64106
1155	0.64848
1156	0.65258
1157	0.65152
1158	0.64864
1159	0.64721
1160	0.64579
1161	0.64003
1162	0.62924
1163	0.61765
1164	0.60883
1165	0.60015
1166	0.5868
1167	0.56924
1168	0.55286
1169	0.54043
1170	0.52864
1171	0.51339
1172	0.49576
1173	0.48042
1174	0.46897
1175	0.45847
1176	0.44563
1177	0.43144
1178	0.4195
1179	0.41071
1180	0.4017
1181	0.38977
1182	0.37738
1183	0.36841
1184	0.36255
1185	0.3559
1186	0.34658
1187	0.3369
1188	0.32978
1189	0.32557
1190	0.32072
1191	0.31329
1192	0.30634
1193	0.30332
1194	0.30249
1195	0.29985
1196	0.29491
1197	0.29076
1198	0.28941
1199	0.28895
1200	0.28671
1201	0.28306
1202	0.28069
1203	0.28061
1204	0.28079
1205	0.27908
1206	0.27583
1207	0.27378
1208	0.27422
1209	0.275
1210	0.27384
1211	0.27233
1212	0.27339
1213	0.27658
1214	0.27902
1215	0.27938
1216	0.27946
1217	0.28169
1218	0.28511
1219	0.28715
1220	0.28702
1221	0.28658
1222	0.28769
1223	0.28888
1224	0.28777
1225	0.28435
1226	0.28136
1227	0.2806
1228	0.28041
1229	0.27844
1230	0.27548
1231	0.27405
1232	0.27454
1233	0.27492
1234	0.27384
1235	0.27259
1236	0.27337
1237	0.27631
1238	0.2787
1239	0.27877
1240	0.27802
1241	0.27859
1242	0.27988
1243	0.27972
1244	0.27786
1245	0.27589
1246	0.27536
1247	0.27532
1248	0.27375
1249	0.27048
1250	0.26793
1251	0.26774
1252	0.2682
1253	0.26714
1254	0.26465
1255	0.26305
1256	0.26326
1257	0.26346
1258	0.26191
1259	0.25962
1260	0.25896
1261	0.26002
1262	0.26061
1263	0.25937
1264	0.25789
1265	0.25846
1266	0.26055
1267	0.2618
1268	0.26125
1269	0.26092
1270	0.26281
1271	0.26605
1272	0.26805
1273	0.26829
1274	0.26918
1275	0.27231
1276	0.2764
1277	0.279
1278	0.28026
1279	0.28227
1280	0.28602
1281	0.28963
1282	0.29084
1283	0.29019
1284	0.29013
1285	0.29147
1286	0.2924
1287	0.29144
1288	0.28974
1289	0.28965
1290	0.29122
1291	0.29228
1292	0.29161
1293	0.29107
1294	0.29301
1295	0.29676
1296	0.29942
1297	0.2997
1298	0.2999
1299	0.30244
1300	0.30615
1301	0.30787
1302	0.30733
1303	0.30736
1304	0.30957
1305	0.31204
1306	0.31237
1307	0.31115
1308	0.3111
1309	0.31311
1310	0.31515
1311	0.31536
1312	0.31466
1313	0.31546
1314	0.31815
1315	0.32049
1316	0.32084
1317	0.32058
1318	0.32208
1319	0.32532
1320	0.32795
1321	0.32856
1322	0.32898
1323	0.33127
1324	0.33494
1325	0.3371
1326	0.33688
1327	0.33679
1328	0.33885
1329	0.34184
1330	0.34297
1331	0.34188
1332	0.34092
1333	0.34206
1334	0.34376
1335	0.34321
1336	0.34045
1337	0.33816
1338	0.33809
1339	0.33849
1340	0.33653
1341	0.33297
1342	0.33097
1343	0.33123
1344	0.33142
1345	0.32947
1346	0.32648
1347	0.32535
1348	0.32667
1349	0.32769
1350	0.32641
1351	0.32452
1352	0.32527
1353	0.32872
1354	0.33157
1355	0.33187
1356	0.33236
1357	0.33609
1358	0.34233
1359	0.3478
1360	0.3514
1361	0.35535
1362	0.36181
1363	0.37038
1364	0.37767
1365	0.3818
1366	0.38557
1367	0.39113
1368	0.39701
1369	0.40036
1370	0.40114
1371	0.40191
1372	0.40385
1373	0.40485
1374	0.40218
1375	0.39761
1376	0.39518
1377	0.3949
1378	0.39342
1379	0.38767
1380	0.37772
1381	0.3652
1382	0.34893
1383	0.32839
1384	0.31113
1385	0.30764
1386	0.3187
1387	0.33577
1388	0.34829
1389	0.35147
1390	0.35027
1391	0.3497
1392	0.35038
1393	0.35021
1394	0.34768
1395	0.34472
1396	0.34443
1397	0.3456
1398	0.34469
1399	0.34055
1400	0.33694
1401	0.33669
1402	0.33783
1403	0.33762
1404	0.33538
1405	0.33396
1406	0.33611
1407	0.33933
1408	0.34022
1409	0.33927
1410	0.33954
1411	0.34242
1412	0.34564
1413	0.34635
1414	0.34503
1415	0.34462
1416	0.34624
1417	0.34805
1418	0.34754
1419	0.34446
1420	0.3427
1421	0.34415
1422	0.34547
1423	0.34399
1424	0.34078
1425	0.33964
1426	0.34063
1427	0.34066
1428	0.33824
1429	0.33478
1430	0.3329
1431	0.33305
1432	0.33235
1433	0.32952
1434	0.32689
1435	0.32656
1436	0.32657
1437	0.32456
1438	0.32231
1439	0.32164
1440	0.32213
1441	0.32314
1442	0.32307
1443	0.32187
1444	0.32164
1445	0.32365
1446	0.32687
1447	0.32922
1448	0.33058
1449	0.33275
1450	0.33637
1451	0.34033
1452	0.34329
1453	0.34533
1454	0.34775
1455	0.35114
1456	0.3547
1457	0.35755
1458	0.35984
1459	0.36254
1460	0.36566
1461	0.3676
1462	0.3677
1463	0.36661
1464	0.36496
1465	0.36233
1466	0.35969
1467	0.35666
1468	0.35235
1469	0.34757
1470	0.34308
1471	0.3379
1472	0.33017
1473	0.32179
1474	0.31661
1475	0.31333
1476	0.30927
1477	0.30558
1478	0.30444
1479	0.30513
1480	0.30613
1481	0.30624
1482	0.30488
1483	0.30181
1484	0.2966
1485	0.28966
1486	0.2817
1487	0.27306
1488	0.26573
1489	0.26059
1490	0.25414
1491	0.24716
1492	0.2433
1493	0.24112
1494	0.23903
1495	0.23616
1496	0.2326
1497	0.22982
1498	0.22842
1499	0.22672
1500	0.22482
1501	0.22341
1502	0.22275
1503	0.22285
1504	0.22289
1505	0.22194
1506	0.21983
1507	0.21932
1508	0.22024
1509	0.22053
1510	0.22047
1511	0.22096
1512	0.22271
1513	0.22525
1514	0.22669
1515	0.22699
1516	0.22751
1517	0.23039
1518	0.2351
1519	0.2379
1520	0.23922
1521	0.24148
1522	0.24605
1523	0.25057
1524	0.25349
1525	0.25551
1526	0.258
1527	0.26095
1528	0.26311
1529	0.26396
1530	0.26434
1531	0.26535
1532	0.26649
1533	0.26599
1534	0.26384
1535	0.26283
1536	0.26316
1537	0.26377
1538	0.2637
1539	0.26081
1540	0.25576
1541	0.2542
1542	0.25346
1543	0.25227
1544	0.25061
1545	0.24776
1546	0.24572
1547	0.24485
1548	0.24325
1549	0.24004
1550	0.23612
1551	0.23351
1552	0.23211
1553	0.22989
1554	0.22572
1555	0.22164
1556	0.22019
1557	0.21926
1558	0.21458
1559	0.20614
1560	0.20329
1561	0.205
1562	0.20578
1563	0.20475
1564	0.20269
1565	0.20157
1566	0.20202
1567	0.20223
1568	0.20075
1569	0.19714
1570	0.19431
1571	0.19426
1572	0.19305
1573	0.18966
1574	0.18591
1575	0.18285
1576	0.17876
1577	0.17351
1578	0.16943
1579	0.16592
1580	0.16285
1581	0.15995
1582	0.15592
1583	0.15064
1584	0.14545
1585	0.14148
1586	0.13802
1587	0.13328
1588	0.12706
1589	0.12108
1590	0.11657
1591	0.11262
1592	0.1075
1593	0.10123
1594	0.09538
1595	0.09117
1596	0.08777
1597	0.08345
1598	0.07838
1599	0.0741
1600	0.07126
1601	0.06849
1602	0.0645
1603	0.06
1604	0.05646
1605	0.05427
1606	0.05211
1607	0.04873
1608	0.04458
1609	0.04122
1610	0.03905
1611	0.03682
1612	0.0333
1613	0.02928
1614	0.0264
1615	0.02471
1616	0.02206
1617	0.01811
1618	0.01705
1619	0.01884
1620	0.02174
1621	0.02435
1622	0.0259
1623	0.02775
1624	0.03298
1625	0.03853
1626	0.04199
1627	0.04429
1628	0.04722
1629	0.05131
1630	0.05509
1631	0.05842
1632	0.06189
1633	0.06595
1634	0.07023
1635	0.07551
1636	0.08232
1637	0.08863
1638	0.09443
1639	0.10037
1640	0.10602
1641	0.11136
1642	0.11687
1643	0.12316
1644	0.12949
1645	0.13492
1646	0.14022
1647	0.14672
1648	0.15463
1649	0.16237
1650	0.16835
1651	0.17276
1652	0.17603
1653	0.18375
1654	0.2009
1655	0.20993
1656	0.21531
1657	0.22027
1658	0.22509
1659	0.22853
1660	0.22975
1661	0.22917
1662	0.22804
1663	0.22788
1664	0.22911
1665	0.23063
1666	0.23218
1667	0.23414
1668	0.23654
1669	0.23992
1670	0.24392
1671	0.24773
1672	0.25208
1673	0.25655
1674	0.25962
1675	0.26146
1676	0.26385
1677	0.26664
1678	0.26896
1679	0.27028
1680	0.27032
1681	0.26984
1682	0.26967
1683	0.26882
1684	0.26589
1685	0.26258
1686	0.26202
1687	0.26119
1688	0.25918
1689	0.25617
1690	0.2525
1691	0.24889
1692	0.24575
1693	0.24295
1694	0.24007
1695	0.23593
1696	0.22999
1697	0.22622
1698	0.2246
1699	0.22236
1700	0.21697
1701	0.21357
1702	0.21404
1703	0.21401
1704	0.21322
1705	0.21231
1706	0.21141
1707	0.21126
1708	0.21193
1709	0.2128
1710	0.21409
1711	0.21605
1712	0.218
1713	0.21959
1714	0.22145
1715	0.22428
1716	0.22684
1717	0.22769
1718	0.2284
1719	0.23089
1720	0.23403
1721	0.2368
1722	0.23958
1723	0.24318
1724	0.24834
1725	0.25455
1726	0.26055
1727	0.26581
1728	0.27044
1729	0.27518
1730	0.2808
1731	0.28601
1732	0.28871
1733	0.28963
1734	0.29114
1735	0.29527
1736	0.29778
1737	0.29865
1738	0.29956
1739	0.30156
1740	0.30511
1741	0.3085
1742	0.31033
1743	0.31272
1744	0.31724
1745	0.32243
1746	0.32674
1747	0.33077
1748	0.3363
1749	0.34381
1750	0.35091
1751	0.35671
1752	0.36219
1753	0.36779
1754	0.37406
1755	0.38041
1756	0.38595
1757	0.39186
1758	0.39905
1759	0.40682
1760	0.41344
1761	0.41688
1762	0.41636
1763	0.41468
1764	0.41302
1765	0.41066
1766	0.40756
1767	0.40464
1768	0.40324
1769	0.40381
1770	0.40433
1771	0.40284
1772	0.39939
1773	0.39641
1774	0.39475
1775	0.39243
1776	0.38908
1777	0.38643
1778	0.38548
1779	0.38579
1780	0.38614
1781	0.3861
1782	0.38642
1783	0.38745
1784	0.38838
1785	0.38781
1786	0.38545
1787	0.3824
1788	0.37941
1789	0.37616
1790	0.37165
1791	0.36511
1792	0.35679
1793	0.34818
1794	0.34116
1795	0.33394
1796	0.3244
1797	0.3144
1798	0.30579
1799	0.29693
1800	0.2866
1801	0.2762
1802	0.26637
1803	0.25725
1804	0.24897
1805	0.24076
1806	0.23249
1807	0.22493
1808	0.21842
1809	0.21245
1810	0.20614
1811	0.19963
1812	0.19457
1813	0.19082
1814	0.18697
1815	0.18288
1816	0.17879
1817	0.17534
1818	0.17239
1819	0.16951
1820	0.16639
1821	0.16344
1822	0.16094
1823	0.15878
1824	0.15654
1825	0.15396
1826	0.15148
1827	0.1496
1828	0.1478
1829	0.14542
1830	0.14287
1831	0.1411
1832	0.13991
1833	0.1386
1834	0.13685
1835	0.13499
1836	0.1335
1837	0.13238
1838	0.13096
1839	0.12919
1840	0.1277
1841	0.12677
1842	0.12586
1843	0.12412
1844	0.12205
1845	0.12089
1846	0.12039
1847	0.11953
1848	0.11805
1849	0.1164
1850	0.11519
1851	0.11452
1852	0.11379
1853	0.11261
1854	0.11126
1855	0.11015
1856	0.10944
1857	0.10889
1858	0.10796
1859	0.10678
1860	0.10582
1861	0.10522
1862	0.10439
1863	0.10322
1864	0.10197
1865	0.10116
1866	0.10055
1867	0.09979
1868	0.09854
1869	0.09735
1870	0.09684
1871	0.09644
1872	0.0957
1873	0.09471
1874	0.09377
1875	0.09309
1876	0.09256
1877	0.09176
1878	0.09079
1879	0.08998
1880	0.08933
1881	0.08861
1882	0.08768
1883	0.08656
1884	0.08561
1885	0.08508
1886	0.08466
1887	0.08388
1888	0.08284
1889	0.08195
1890	0.08168
1891	0.08129
1892	0.08035
1893	0.07928
1894	0.0785
1895	0.07788
1896	0.07728
1897	0.07659
1898	0.07575
1899	0.07492
1900	0.07416
1901	0.0734
1902	0.07272
1903	0.07223
1904	0.07177
1905	0.07126
1906	0.07058
1907	0.06986
1908	0.06925
1909	0.06876
1910	0.06836
1911	0.06795
1912	0.06743
1913	0.06685
1914	0.06629
1915	0.06571
1916	0.06492
1917	0.06413
1918	0.06371
1919	0.06362
1920	0.06313
1921	0.06222
1922	0.06161
1923	0.06147
1924	0.06121
1925	0.06043
1926	0.05958
1927	0.05918
1928	0.05893
1929	0.05843
1930	0.05755
1931	0.05676
1932	0.05642
1933	0.0563
1934	0.05583
1935	0.05495
1936	0.05423
1937	0.05406
1938	0.05389
1939	0.0532
1940	0.05217
1941	0.05131
1942	0.05101
1943	0.05105
1944	0.05059
1945	0.04964
1946	0.04914
1947	0.04918
1948	0.04904
1949	0.0483
1950	0.04747
1951	0.04699
1952	0.04699
1953	0.04675
1954	0.04596
1955	0.04509
1956	0.04455
1957	0.04441
1958	0.04411
1959	0.04339
1960	0.04259
1961	0.04227
1962	0.04233
1963	0.04199
1964	0.04088
1965	0.03978
1966	0.03944
1967	0.03944
1968	0.03913
1969	0.03822
1970	0.03725
1971	0.03697
1972	0.03731
1973	0.03717
1974	0.03609
1975	0.03492
1976	0.0347
1977	0.0351
1978	0.03488
1979	0.03371
1980	0.03264
1981	0.03266
1982	0.03317
1983	0.03287
1984	0.03169
1985	0.03071
1986	0.03059
1987	0.03088
1988	0.03053
1989	0.02953
1990	0.02881
1991	0.02878
1992	0.0289
1993	0.02824
1994	0.02689
1995	0.02608
1996	0.02642
1997	0.02684
1998	0.02623
1999	0.02498
2000	0.02428
2001	0.0246
2002	0.02502
2003	0.02434
2004	0.02321
2005	0.02244
2006	0.02257
2007	0.02282
2008	0.02237
2009	0.02132
2010	0.02064
2011	0.02078
2012	0.02093
2013	0.02033
2014	0.01946
2015	0.01912
2016	0.01938
2017	0.01948
2018	0.01882
2019	0.01791
2020	0.01787
2021	0.01854
2022	0.01901
2023	0.01864
2024	0.01793
2025	0.01785
2026	0.01852
2027	0.01889
2028	0.0184
2029	0.0177
2030	0.01785
2031	0.01853
2032	0.01885
2033	0.01853
2034	0.01826
2035	0.01834
2036	0.0188
2037	0.01901
2038	0.0187
2039	0.01835
2040	0.0185
2041	0.01911
2042	0.01946
2043	0.01908
2044	0.01844
2045	0.01836
2046	0.01891
2047	0.01946
2048	0.01957
2049	0.01937
2050	0.0193
2051	0.01946
2052	0.01958
2053	0.01945
2054	0.01923
2055	0.01906
2056	0.01926
2057	0.01948
2058	0.01971
2059	0.01984
2060	0.01978
2061	0.01976
2062	0.01976
2063	0.0198
2064	0.01973
2065	0.01976
2066	0.01983
2067	0.01984
2068	0.01975
2069	0.01968
2070	0.01963
2071	0.01957
2072	0.01953
2073	0.01967
2074	0.01975
2075	0.01958
2076	0.01923
2077	0.01911
2078	0.01935
2079	0.01967
2080	0.01958
2081	0.01935
2082	0.01945
2083	0.01998
2084	0.02029
2085	0.02003
2086	0.01973
2087	0.01987
2088	0.02032
2089	0.02052
2090	0.02022
2091	0.01988
2092	0.02014
2093	0.02077
2094	0.02094
2095	0.02049
2096	0.02007
2097	0.02025
2098	0.02079
2099	0.02104
2100	0.02066
2101	0.02021
2102	0.0204
2103	0.02102
2104	0.02135
2105	0.02096
2106	0.02071
2107	0.02107
2108	0.02174
2109	0.02166
2110	0.02097
2111	0.02056
2112	0.0212
2113	0.0221
2114	0.02223
2115	0.0217
2116	0.02147
2117	0.022
2118	0.0226
2119	0.02244
2120	0.0218
2121	0.02166
2122	0.02226
2123	0.02283
2124	0.02278
2125	0.0223
2126	0.02211
2127	0.02256
2128	0.02306
2129	0.02293
2130	0.02253
2131	0.02271
2132	0.0234
2133	0.02374
2134	0.02337
2135	0.02297
2136	0.02335
2137	0.02426
2138	0.02457
2139	0.02378
2140	0.02314
2141	0.02346
2142	0.02441
2143	0.02476
2144	0.02418
2145	0.02371
2146	0.02392
2147	0.02437
2148	0.0243
2149	0.02373
2150	0.02347
2151	0.02394
2152	0.02449
2153	0.02442
2154	0.02393
2155	0.0238
2156	0.02441
2157	0.02496
2158	0.02466
2159	0.02399
2160	0.02382
2161	0.02434
2162	0.02476
2163	0.02452
2164	0.02389
2165	0.02378
2166	0.02427
2167	0.02475
2168	0.02473
2169	0.02472
2170	0.02471
2171	0.02469
2172	0.02468
2173	0.02466
2174	0.02465
2175	0.02465
2176	0.02464
2177	0.02462
2178	0.02461
2179	0.0246
2180	0.02458
2181	0.02457
2182	0.02456
2183	0.02454
2184	0.02454
2185	0.02453
2186	0.02452
2187	0.0245
2188	0.02449
2189	0.02447
2190	0.02446
2191	0.02445
2192	0.02443
2193	0.02443
2194	0.02442
2195	0.02441
2196	0.02439
2197	0.02438
2198	0.02437
2199	0.02435
2200	0.02434
2201	0.02434
2202	0.02432
2203	0.02431
2204	0.0243
2205	0.02428
2206	0.02427
2207	0.02426
2208	0.02424
2209	0.02423
2210	0.02423
2211	0.02422
2212	0.0242
2213	0.02419
2214	0.02418
2215	0.02416
2216	0.02415
2217	0.02413
2218	0.02412
2219	0.02412
2220	0.02411
2221	0.02409
2222	0.02408
2223	0.02407
2224	0.02405
2225	0.02404
2226	0.02403
2227	0.02401
2228	0.02401
2229	0.024
2230	0.02399
2231	0.02397
2232	0.02396
2233	0.02394
2234	0.02393
2235	0.02392
2236	0.0239
2237	0.0239
2238	0.02389
2239	0.02388
2240	0.02386
2241	0.02385
2242	0.02384
2243	0.02382
2244	0.02381
2245	0.0238
2246	0.0238
2247	0.02378
2248	0.02377
2249	0.02375
2250	0.02374
2251	0.02373
2252	0.02371
2253	0.0237
2254	0.0237
2255	0.02369
2256	0.02367
2257	0.02366
2258	0.02365
2259	0.02363
2260	0.02362
2261	0.02361
2262	0.02359
2263	0.02359
2264	0.02358
2265	0.02356
2266	0.02355
2267	0.02354
2268	0.02352
2269	0.02351
2270	0.0235
2271	0.02348
2272	0.02348
2273	0.02347
2274	0.02346
2275	0.02344
2276	0.02343
2277	0.02342
2278	0.0234
2279	0.02339
2280	0.02337
2281	0.02337
2282	0.02336
2283	0.02335
2284	0.02333
2285	0.02332
2286	0.02331
2287	0.02329
2288	0.02328
2289	0.02327
2290	0.02327
2291	0.02325
2292	0.02324
2293	0.02322
2294	0.02321
2295	0.0232
2296	0.02318
2297	0.02317
2298	0.02317
2299	0.02316
2300	0.02314
2301	0.02313
2302	0.02312
2303	0.0231
2304	0.02309
2305	0.02308
2306	0.02306
2307	0.02306
2308	0.02305
2309	0.02303
2310	0.02302
2311	0.02301
2312	0.02299
2313	0.02298
2314	0.02297
2315	0.02295
2316	0.02295
2317	0.02294
2318	0.02293
2319	0.02291
2320	0.0229
2321	0.02289
2322	0.02287
2323	0.02286
2324	0.02284
2325	0.02284
2326	0.02283
2327	0.02282
2328	0.0228
2329	0.02279
2330	0.02278
2331	0.02276
2332	0.02275
2333	0.02274
2334	0.02274
2335	0.02272
2336	0.02271
2337	0.0227
2338	0.02268
2339	0.02267
2340	0.02265
2341	0.02264
2342	0.02263
2343	0.02263
2344	0.02261
2345	0.0226
2346	0.02259
2347	0.02257
2348	0.02256
2349	0.02255
2350	0.02253
2351	0.02253
2352	0.02252
2353	0.02251
2354	0.02249
2355	0.02248
2356	0.02246
2357	0.02245
2358	0.02244
2359	0.02242
2360	0.02242
2361	0.02241
2362	0.0224
2363	0.02238
2364	0.02237
2365	0.02236
2366	0.02234
2367	0.02233
2368	0.02231
2369	0.02231
2370	0.0223
2371	0.02229
2372	0.02227
2373	0.02226
2374	0.02225
2375	0.02223
2376	0.02222
2377	0.02221
2378	0.02221
2379	0.02219
2380	0.02218
2381	0.02217
2382	0.02215
2383	0.02214
2384	0.02212
2385	0.02211
2386	0.0221
2387	0.0221
2388	0.02208
2389	0.02324
2390	0.02439
2391	0.02453
2392	0.02427
2393	0.02443
2394	0.02517
2395	0.0257
2396	0.02552
2397	0.02511
2398	0.02517
2399	0.02557
2401	0.02567
2402	0.02525
2403	0.02498
2404	0.02549
2405	0.02632
2406	0.02659
2407	0.02617
2408	0.02605
2409	0.02643
2410	0.02672
2411	0.02655
2412	0.02608
2413	0.02597
2414	0.02648
2415	0.02685
2416	0.02658
2417	0.02612
2418	0.02621
2419	0.0267
2420	0.02666
2421	0.02594
2422	0.02532
2423	0.02543
2424	0.0259
2425	0.02591
2426	0.02532
2427	0.02491
2428	0.02523
2429	0.0259
2430	0.02604
2431	0.02547
2432	0.02504
2433	0.02555
2434	0.02643
2435	0.02655
2436	0.02593
2437	0.02543
2438	0.02587
2439	0.02658
2440	0.0265
2441	0.02571
2442	0.02538
2443	0.02583
2444	0.02642
2445	0.02635
2446	0.02591
2447	0.02585
2448	0.0262
2449	0.02636
2450	0.0259
2451	0.02526
2452	0.02529
2453	0.0259
2454	0.0264
2455	0.0262
2456	0.02564
2457	0.02562
2458	0.02613
2459	0.02634
2460	0.02587
2461	0.02536
2462	0.02543
2463	0.02606
2464	0.0261
2465	0.02545
2466	0.025
2467	0.02525
2468	0.02587
2469	0.02602
2470	0.02567
2471	0.02548
2472	0.02583
2473	0.02613
2474	0.02575
2475	0.0251
2476	0.025
2477	0.02552
2478	0.02585
2479	0.02541
2480	0.02475
2481	0.02471
2482	0.02529
2483	0.02566
2484	0.02536
2485	0.02472
2486	0.0248
2487	0.02548
2488	0.02583
2489	0.02532
2490	0.02457
2491	0.02461
2492	0.02533
2493	0.02538
2494	0.02471
2495	0.02393
2496	0.02404
2497	0.02472
2498	0.02491
2499	0.02431
2500	0.02366
2501	0.02369
2502	0.02423
2503	0.02447
2504	0.02399
2505	0.0234
2506	0.02348
2507	0.02396
2508	0.0239
2509	0.02314
2510	0.02253
2511	0.02271
2512	0.02324
2513	0.02317
2514	0.02249
2515	0.02192
2516	0.02202
2517	0.02241
2518	0.02227
2519	0.02173
2520	0.02139
2521	0.02166
2522	0.02188
2523	0.02149
2524	0.02077
2525	0.02039
2526	0.02049
2527	0.02052
2528	0.02016
2529	0.01975
2530	0.01967
2531	0.01986
2532	0.01982
2533	0.01942
2534	0.01901
2535	0.01888
2536	0.01904
2537	0.01914
2538	0.01897
2539	0.0188
2540	0.0188
2541	0.01885
2542	0.01854
2543	0.01793
2544	0.01768
2545	0.018
2546	0.01831
2547	0.01821
2548	0.01768
2549	0.01744
2550	0.01753
2551	0.01752
2552	0.01714
2553	0.01685
2554	0.01683
2555	0.01687
2556	0.0167
2557	0.0164
2558	0.01627
2559	0.01649
2560	0.01673
2561	0.01657
2562	0.0161
2563	0.01577
2564	0.0159
2565	0.016
2566	0.01561
2567	0.01513
2568	0.01512
2569	0.01548
2570	0.01567
2571	0.01525
2572	0.01463
2573	0.0146
2574	0.01508
2575	0.0154
2576	0.01514
2577	0.01461
2578	0.01465
2579	0.01513
2580	0.01528
2581	0.01468
2582	0.01408
2583	0.01413
2584	0.01442
2585	0.01437
2586	0.01395
2587	0.0137
2588	0.01395
2589	0.01434
2590	0.01421
2591	0.0135
2592	0.01302
2593	0.01345
2594	0.01421
2595	0.0143
2596	0.01376
2597	0.01335
2598	0.01354
2599	0.01403
2600	0.01393
2601	0.01324
2602	0.01278
2603	0.01301
2604	0.01349
2605	0.01342
2606	0.01279
2607	0.01236
2608	0.01275
2609	0.01323
2610	0.01296
2611	0.01236
2612	0.01231
2613	0.0129
2614	0.01341
2615	0.0132
2616	0.01252
2617	0.0122
2618	0.01271
2619	0.01335
2620	0.01338
2621	0.01298
2622	0.01273
2623	0.01297
2624	0.0133
2625	0.01327
2626	0.01288
2627	0.01292
2628	0.01354
2629	0.01404
2630	0.01384
2631	0.01335
2632	0.0133
2633	0.01389
2634	0.01437
2635	0.01408
2636	0.01366
2637	0.01387
2638	0.01446
2639	0.01471
2640	0.0144
2641	0.01419
2642	0.01452
2643	0.01518
2644	0.01555
2645	0.01535
2646	0.01501
2647	0.01518
2648	0.01563
2649	0.01573
2650	0.01527
2651	0.01508
2652	0.01551
2653	0.01608
2654	0.01624
2655	0.01586
2656	0.01569
2657	0.01604
2658	0.01654
2659	0.01665
2660	0.01652
2661	0.01656
2662	0.01695
2663	0.01726
2664	0.01715
2665	0.01686
2666	0.01687
2667	0.01716
2668	0.01731
2669	0.01706
2670	0.01664
2671	0.01662
2672	0.01699
2673	0.01725
2674	0.01706
2675	0.01682
2676	0.01699
2677	0.01744
2678	0.01735
2679	0.01699
2680	0.01683
2681	0.01708
2682	0.01722
2683	0.01697
2684	0.01647
2685	0.01634
2686	0.01671
2687	0.01716
2688	0.01712
2689	0.01676
2690	0.01666
2691	0.01693
2692	0.01713
2693	0.01691
2694	0.01654
2695	0.01643
2696	0.01671
2697	0.01678
2698	0.01643
2699	0.01612
2700	0.0164
2701	0.01701
2702	0.0171
2703	0.01652
2704	0.01614
2705	0.01641
2706	0.01687
2707	0.01698
2708	0.01668
2709	0.01634
2710	0.01663
2711	0.01733
2712	0.01771
2713	0.01766
2714	0.01775
2715	0.01812
2716	0.0185
2717	0.01851
2718	0.01824
2719	0.01827
2720	0.01882
2721	0.01939
2722	0.01946
2723	0.01919
2724	0.01937
2725	0.0201
2726	0.02071
2727	0.02054
2728	0.02001
2729	0.02002
2730	0.02071
2731	0.02124
2732	0.02109
2733	0.02058
2734	0.02056
2735	0.02105
2736	0.02142
2737	0.02124
2738	0.02083
2739	0.02082
2740	0.02112
2741	0.02117
2742	0.02081
2743	0.02039
2744	0.02047
2745	0.02092
2746	0.02115
2747	0.02109
2748	0.02111
2749	0.02147
2750	0.02196
2751	0.02198
2752	0.02155
2753	0.02123
2754	0.02139
2755	0.02179
2756	0.02188
2757	0.02143
2758	0.02109
2759	0.0212
2760	0.02153
2761	0.02147
2762	0.02126
2763	0.0213
2764	0.02169
2765	0.02189
2766	0.02177
2767	0.02153
2768	0.02153
2769	0.02177
2770	0.02193
2771	0.02176
2772	0.02146
2773	0.02142
2774	0.02154
2775	0.0216
2776	0.02145
2777	0.02126
2778	0.02139
2779	0.02177
2780	0.02192
2781	0.02192
2782	0.02204
2783	0.02241
2784	0.02268
2785	0.02274
2786	0.02275
2787	0.0229
2788	0.02321
2789	0.02347
2790	0.02365
2791	0.024
2792	0.02464
2793	0.02517
2794	0.02543
2795	0.02543
2796	0.02557
2797	0.02624
2798	0.02725
2799	0.02803
2800	0.02833
2801	0.0286
2802	0.02946
2803	0.03067
2804	0.03162
2805	0.03213
2806	0.03276
2807	0.03385
2808	0.03511
2809	0.03611
2810	0.03705
2811	0.03818
2812	0.03951
2813	0.04062
2814	0.04142
2815	0.04228
2816	0.04353
2817	0.04525
2818	0.04671
2819	0.04786
2820	0.04895
2821	0.05043
2822	0.05219
2823	0.05361
2824	0.05426
2825	0.0548
2826	0.05589
2827	0.05726
2828	0.05828
2829	0.05878
2830	0.05941
2831	0.06066
2832	0.06218
2833	0.06328
2834	0.06382
2835	0.06436
2836	0.06563
2837	0.06741
2838	0.06898
2839	0.07
2840	0.07129
2841	0.07321
2842	0.07531
2843	0.07712
2844	0.07848
2845	0.08035
2846	0.08286
2847	0.08525
2848	0.08699
2849	0.08868
2850	0.09135
2851	0.09555
2852	0.10083
2853	0.10652
2854	0.11246
2855	0.1185
2856	0.12407
2857	0.12838
2858	0.13123
2859	0.13332
2860	0.13548
2861	0.13806
2862	0.14071
2863	0.14307
2864	0.14541
2865	0.14834
2866	0.15187
2867	0.15528
2868	0.15832
2869	0.16154
2870	0.16563
2871	0.1701
2872	0.17396
2873	0.17717
2874	0.18039
2875	0.18394
2876	0.18731
2877	0.18989
2878	0.19171
2879	0.19351
2880	0.1956
2881	0.19742
2882	0.19857
2883	0.19916
2884	0.19991
2885	0.20113
2886	0.20226
2887	0.2028
2888	0.20322
2889	0.20418
2890	0.20586
2891	0.20743
2892	0.20829
2893	0.20893
2894	0.21003
2895	0.21178
2896	0.21383
2897	0.21546
2898	0.21667
2899	0.21829
2900	0.2206
2901	0.22303
2902	0.22491
2903	0.22653
2904	0.2285
2905	0.23099
2906	0.23354
2907	0.23597
2908	0.23844
2909	0.24123
2910	0.2445
2911	0.24761
2912	0.25023
2913	0.25262
2914	0.25508
2915	0.25758
2916	0.2601
2917	0.26262
2918	0.26562
2919	0.26971
2920	0.27484
2921	0.28074
2922	0.28701
2923	0.29341
2924	0.29963
2925	0.30502
2926	0.30935
2927	0.31254
2928	0.31488
2929	0.31655
2930	0.31745
2931	0.31742
2932	0.31661
2933	0.31544
2934	0.31371
2935	0.31113
2936	0.30776
2937	0.30382
2938	0.29951
2939	0.29481
2940	0.28962
2941	0.28409
2942	0.27845
2943	0.27272
2944	0.2666
2945	0.2601
2946	0.25378
2947	0.24799
2948	0.24242
2949	0.23717
2950	0.23217
2951	0.22774
2952	0.22395
2953	0.2208
2954	0.21778
2955	0.21497
2956	0.21306
2957	0.21235
2958	0.2122
2959	0.21215
2960	0.21247
2961	0.2136
2962	0.21535
2963	0.21728
2964	0.21876
2965	0.21994
2966	0.22145
2967	0.22322
2968	0.22459
2969	0.22506
2970	0.22494
2971	0.22463
2972	0.2243
2973	0.22347
2974	0.22167
2975	0.21926
2976	0.21679
2977	0.21435
2978	0.2114
2979	0.2076
2980	0.20343
2981	0.19965
2982	0.1959
2983	0.19153
2984	0.18675
2985	0.18198
2986	0.17739
2987	0.17261
2988	0.16731
2989	0.16172
2990	0.15615
2991	0.15103
2992	0.14624
2993	0.14118
2994	0.13587
2995	0.13111
2996	0.12714
2997	0.12346
2998	0.11942
2999	0.11534
3000	0.11186
3001	0.10891
3002	0.1062
3003	0.10363
3004	0.10124
3005	0.09901
3006	0.09719
3007	0.09552
3008	0.09359
3009	0.09158
3010	0.08991
3011	0.08862
3012	0.0872
3013	0.08565
3014	0.08437
3015	0.08349
3016	0.08274
3017	0.08187
3018	0.08095
3019	0.0803
3020	0.08011
3021	0.08011
3022	0.0799
3023	0.07941
3024	0.07891
3025	0.07871
3026	0.07903
3027	0.07949
3028	0.07977
3029	0.07978
3030	0.07983
3031	0.07983
3032	0.07966
3033	0.07959
3034	0.08
3035	0.08077
3036	0.08131
3037	0.08146
3038	0.08157
3039	0.08194
3040	0.08244
3041	0.08275
3042	0.08281
3043	0.08327
3044	0.08426
3045	0.0851
3046	0.0854
3047	0.08543
3048	0.08559
3049	0.08626
3050	0.08706
3051	0.0874
3052	0.08767
3053	0.08825
3054	0.08889
3055	0.08919
3056	0.08915
3057	0.08926
3058	0.08993
3059	0.09093
3060	0.09168
3061	0.09173
3062	0.09164
3063	0.09219
3064	0.09327
3065	0.09414
3066	0.09433
3067	0.09428
3068	0.09479
3069	0.09567
3070	0.09627
3071	0.09654
3072	0.09684
3073	0.09729
3074	0.09791
3075	0.09856
3076	0.09894
3077	0.09908
3078	0.09931
3079	0.09977
3080	0.10021
3081	0.10059
3082	0.1011
3083	0.1019
3084	0.10256
3085	0.1028
3086	0.1028
3087	0.10344
3088	0.10469
3089	0.10586
3090	0.10617
3091	0.10614
3092	0.10643
3093	0.10743
3094	0.10865
3095	0.10917
3096	0.10922
3097	0.10967
3098	0.11075
3099	0.11175
3100	0.11209
3101	0.11208
3102	0.11251
3103	0.11372
3104	0.1149
3105	0.1154
3106	0.1158
3107	0.11672
3108	0.118
3109	0.11876
3110	0.11883
3111	0.11881
3112	0.11933
3113	0.12032
3114	0.12115
3115	0.12143
3116	0.12154
3117	0.12202
3118	0.12312
3119	0.12407
3120	0.1244
3121	0.12475
3122	0.12575
3123	0.12702
3124	0.12791
3125	0.12828
3126	0.12858
3127	0.12919
3128	0.13013
3129	0.13091
3130	0.13131
3131	0.13189
3132	0.13314
3133	0.13447
3134	0.13532
3135	0.13589
3136	0.1365
3137	0.13739
3138	0.13832
3139	0.13882
3140	0.1392
3141	0.13992
3142	0.14118
3143	0.14246
3144	0.14336
3145	0.1439
3146	0.14465
3147	0.14598
3148	0.14731
3149	0.14801
3150	0.14827
3151	0.14876
3152	0.1496
3153	0.15043
3154	0.15104
3155	0.15175
3156	0.15284
3157	0.15399
3158	0.15479
3159	0.15535
3160	0.156
3161	0.15684
3162	0.15782
3163	0.15883
3164	0.15957
3165	0.1602
3166	0.16097
3167	0.16166
3168	0.16222
3169	0.16301
3170	0.16403
3171	0.16498
3172	0.16537
3173	0.16521
3174	0.16552
3175	0.16646
3176	0.16748
3177	0.16817
3178	0.16848
3179	0.16885
3180	0.1695
3181	0.17023
3182	0.17086
3183	0.17148
3184	0.17233
3185	0.17321
3186	0.17375
3187	0.17379
3188	0.1737
3189	0.17382
3190	0.17428
3191	0.17476
3192	0.17493
3193	0.1747
3194	0.17476
3195	0.17537
3196	0.17579
3197	0.17546
3198	0.17519
3199	0.17537
3200	0.17561
3201	0.17563
3202	0.17542
3203	0.17512
3204	0.17496
3205	0.17488
3206	0.17458
3207	0.17413
3208	0.17404
3209	0.17442
3210	0.17478
3211	0.17469
3212	0.17435
3213	0.17423
3214	0.17438
3215	0.17431
3216	0.17385
3217	0.17341
3218	0.17321
3219	0.17296
3220	0.1725
3221	0.17201
3222	0.17169
3223	0.17146
3224	0.17151
3225	0.17142
3226	0.17076
3227	0.17021
3228	0.17006
3229	0.17008
3230	0.16965
3231	0.16867
3232	0.16756
3233	0.16687
3234	0.16668
3235	0.16647
3236	0.16602
3237	0.16579
3238	0.16583
3239	0.16575
3240	0.16522
3241	0.16438
3242	0.16396
3243	0.16414
3244	0.16426
3245	0.16381
3246	0.16268
3247	0.16162
3248	0.16134
3249	0.16179
3250	0.16213
3251	0.1617
3252	0.16141
3253	0.16183
3254	0.16222
3255	0.16156
3256	0.16044
3257	0.16014
3258	0.16066
3259	0.16105
3260	0.16094
3261	0.16084
3262	0.16108
3263	0.16142
3264	0.16138
3265	0.16105
3266	0.16104
3267	0.16153
3268	0.16198
3269	0.16154
3270	0.16009
3271	0.15866
3272	0.15873
3273	0.15986
3274	0.16046
3275	0.16003
3276	0.15964
3277	0.15922
3278	0.15904
3279	0.15887
3280	0.15869
3281	0.15851
3282	0.15833
3283	0.15816
3284	0.15798
3285	0.1578
3286	0.15763
3287	0.15745
3288	0.15727
3289	0.15709
3290	0.15692
3291	0.15674
3292	0.15656
3293	0.15639
3294	0.15621
3295	0.15603
3296	0.15585
3297	0.15568
3298	0.1555
3299	0.15532
3300	0.15515
3301	0.15497
3302	0.15479
3303	0.15461
3304	0.15444
3305	0.15426
3306	0.15408
3307	0.15391
3308	0.15373
3309	0.15355
3310	0.15337
3311	0.1532
3312	0.15302
3313	0.15284
3314	0.15267
3315	0.15249
3316	0.15231
3317	0.15213
3318	0.15196
3319	0.15178
3320	0.1516
3321	0.15143
3322	0.15125
3323	0.15107
3324	0.15089
3325	0.15072
3326	0.15054
3327	0.15036
3328	0.15019
3329	0.15001
3330	0.14983
3331	0.14965
3332	0.14948
3333	0.1493
3334	0.14912
3335	0.14895
3336	0.14877
3337	0.14859
3338	0.14841
3339	0.14824
3340	0.14806
3341	0.14788
3342	0.1477
3343	0.14753
3344	0.14735
3345	0.14717
3346	0.147
3347	0.14682
3348	0.14664
3349	0.14646
3350	0.14629
3351	0.14611
3352	0.14593
3353	0.14576
3354	0.14558
3355	0.1454
3356	0.14522
3357	0.14505
3358	0.14487
3359	0.14469
3360	0.14452
3361	0.14434
3362	0.14416
3363	0.14398
3364	0.14381
3365	0.14363
3366	0.14345
3367	0.14328
3368	0.1431
3369	0.14292
3370	0.14274
3371	0.14257
3372	0.14239
3373	0.14221
3374	0.14204
3375	0.14186
3376	0.14168
3377	0.1415
3378	0.14133
3379	0.14115
3380	0.14097
3381	0.1408
3382	0.14062
3383	0.14044
3384	0.14026
3385	0.14009
3386	0.13991
3387	0.13973
3388	0.13956
3389	0.13938
3390	0.1392
3391	0.13902
3392	0.13885
3393	0.13867
3394	0.13849
3395	0.13832
3396	0.13814
3397	0.13796
3398	0.13778
3399	0.13761
3400	0.13743
3401	0.13725
3402	0.13708
3403	0.1369
3404	0.13672
3405	0.13654
3406	0.13637
3407	0.13619
3408	0.13601
3409	0.13584
3410	0.13566
3411	0.13548
3412	0.1353
3413	0.13513
3414	0.13495
3415	0.13477
3416	0.1346
3417	0.13442
3418	0.13424
3419	0.13406
3420	0.13389
3421	0.13371
3422	0.13353
3423	0.13335
3424	0.13318
3425	0.133
3426	0.13282
3427	0.13265
3428	0.13247
3429	0.13229
3430	0.13211
3431	0.13194
3432	0.13176
3433	0.13158
3434	0.13141
3435	0.13123
3436	0.13105
3437	0.13087
3438	0.1307
3439	0.13052
3440	0.13034
3441	0.13017
3442	0.12999
3443	0.12981
3444	0.12963
3445	0.12946
3446	0.12928
3447	0.1291
3448	0.12893
3449	0.12875
3450	0.12857
3451	0.12839
3452	0.12822
3453	0.12804
3454	0.12786
3455	0.12769
3456	0.12751
3457	0.12733
3458	0.12715
3459	0.12698
3460	0.1268
3461	0.12662
3462	0.12645
3463	0.12627
3464	0.12609
3465	0.12591
3466	0.12574
3467	0.12556
3468	0.12538
3469	0.12521
3470	0.12503
3471	0.12485
3472	0.12467
3473	0.1245
3474	0.12432
3475	0.12414
3476	0.12397
3477	0.12379
3478	0.12361
3479	0.12343
3480	0.12326
3481	0.12308
3482	0.1229
3483	0.12273
3484	0.12255
3485	0.12237
3486	0.12219
3487	0.12202
3488	0.12184
3489	0.12166
3490	0.12149
3491	0.12131
3492	0.12113
3493	0.12095
3494	0.12078
3495	0.1206
3496	0.12042
3497	0.12025
3498	0.12007
3499	0.11989
3500	0.11971
3501	0.11954
3502	0.11936
3503	0.11918
3504	0.119
3505	0.11883
3506	0.11865
3507	0.11847
3508	0.1183
3509	0.11812
3510	0.11794
3511	0.11776
3512	0.11759
3513	0.11741
3514	0.11723
3515	0.11706
3516	0.11688
3517	0.1167
3518	0.11652
3519	0.11635
3520	0.11617
3521	0.11599
3522	0.11582
3523	0.11564
3524	0.11546
3525	0.11528
3526	0.11511
3527	0.11493
3528	0.11475
3529	0.11458
3530	0.1144
3531	0.11422
3532	0.11404
3533	0.11387
3534	0.11369
3535	0.11351
3536	0.11334
3537	0.11316
3538	0.11298
3539	0.1128
3540	0.11263
3541	0.11245
3542	0.11227
3543	0.1121
3544	0.11192
3545	0.11174
3546	0.11156
3547	0.11139
3548	0.11121
3549	0.11103
3550	0.11086
3551	0.11068
3552	0.1105
3553	0.11032
3554	0.11015
3555	0.10997
3556	0.10979
3557	0.10962
3558	0.10944
3559	0.10926
3560	0.10908
3561	0.10891
3562	0.10873
3563	0.10855
3564	0.10838
3565	0.1082
3566	0.10802
3567	0.10784
3568	0.10767
3569	0.10749
3570	0.10731
3571	0.10714
3572	0.10696
3573	0.10678
3574	0.1066
3575	0.10643
3576	0.10625
3577	0.10607
3578	0.1059
3579	0.10572
3580	0.10554
3581	0.10536
3582	0.10519
3583	0.10501
3584	0.10483
3585	0.10466
3586	0.10448
3587	0.1043
3588	0.10412
3589	0.10395
3590	0.10377
3591	0.10359
3592	0.10341
3593	0.10324
3594	0.10306
3595	0.10288
3596	0.10271
3597	0.10253
3598	0.10235
3599	0.10217
3600	0.102
3601	0.10182
3602	0.10164
3603	0.10147
3604	0.10129
3605	0.10111
3606	0.10093
3607	0.10076
3608	0.10058
3609	0.1004
3610	0.10023
3611	0.10005
3612	0.09987
3613	0.09969
3614	0.09952
3615	0.09934
3616	0.09916
3617	0.09899
3618	0.09881
3619	0.09863
3620	0.09845
3621	0.09828
3622	0.0981
3623	0.09792
3624	0.09775
3625	0.09757
3626	0.09739
3627	0.09721
3628	0.09704
3629	0.09686
3630	0.09668
3631	0.09651
3632	0.09633
3633	0.09615
3634	0.09597
3635	0.0958
3636	0.09562
3637	0.09544
3638	0.09527
3639	0.09509
3640	0.09491
3641	0.09473
3642	0.09456
3643	0.09438
3644	0.0942
3645	0.09403
3646	0.09385
3647	0.09367
3648	0.09349
3649	0.09332
3650	0.09314
3651	0.09296
3652	0.09279
3653	0.09261
3654	0.09243
3655	0.09225
3656	0.09208
3657	0.0919
3658	0.09172
3659	0.09155
3660	0.09137
3661	0.09119
3662	0.09101
3663	0.09084
3664	0.09066
3665	0.09048
3666	0.09031
3667	0.09013
3668	0.08995
3669	0.08977
3670	0.0896
3671	0.08942
3672	0.08924
3673	0.08906
3674	0.08889
3675	0.08871
3676	0.08853
3677	0.08836
3678	0.08818
3679	0.088
3680	0.08782
3681	0.08765
3682	0.08747
3683	0.08729
3684	0.08712
3685	0.08694
3686	0.08676
3687	0.08658
3688	0.08641
3689	0.08623
3690	0.08605
3691	0.08588
3692	0.0857
3693	0.08552
3694	0.08534
3695	0.08517
3696	0.08499
3697	0.08481
3698	0.08464
3699	0.08446
3700	0.08428
3701	0.0841
3702	0.08393
3703	0.08375
3704	0.08357
3705	0.0834
3706	0.08322
3707	0.08304
3708	0.08286
3709	0.08269
3710	0.08251
3711	0.08233
3712	0.08216
3713	0.08198
3714	0.0818
3715	0.08162
3716	0.08145
3717	0.08127
3718	0.08109
3719	0.08092
3720	0.08074
3721	0.08056
3722	0.08038
3723	0.08021
3724	0.08003
3725	0.07985
3726	0.07968
3727	0.0795
3728	0.07932
3729	0.07914
3730	0.07897
3731	0.07879
3732	0.07861
3733	0.07844
3734	0.07826
3735	0.07808
3736	0.0779
3737	0.07773
3738	0.07755
3739	0.07737
3740	0.0772
3741	0.07702
3742	0.07684
3743	0.07666
3744	0.07649
3745	0.07631
3746	0.07613
3747	0.07596
3748	0.07578
3749	0.0756
3750	0.07542
3751	0.07525
3752	0.07507
3753	0.07489
3754	0.07471
3755	0.07454
3756	0.07436
3757	0.07418
3758	0.07401
3759	0.07383
3760	0.07365
3761	0.07347
3762	0.0733
3763	0.07312
3764	0.07294
3765	0.07277
3766	0.07259
3767	0.07241
3768	0.07223
3769	0.07206
3770	0.07188
3771	0.0717
3772	0.07153
3773	0.07135
3774	0.07117
3775	0.07099
3776	0.07082
3777	0.07064
3778	0.07046
3779	0.07029
3780	0.07011
3781	0.06993
3782	0.06975
3783	0.06958
3784	0.0694
3785	0.06922
3786	0.06905
3787	0.06887
3788	0.06869
3789	0.06851
3790	0.06834
3791	0.06816
3792	0.06798
3793	0.06781
3794	0.06763
3795	0.06745
3796	0.06727
3797	0.0671
3798	0.06692
3799	0.06674
3800	0.06657
3801	0.06639
3802	0.06621
3803	0.06603
3804	0.06586
3805	0.06568
3806	0.0655
3807	0.06533
3808	0.06515
3809	0.06497
3810	0.06479
3811	0.06462
3812	0.06444
3813	0.06426
3814	0.06409
3815	0.06391
3816	0.06373
3817	0.06355
3818	0.06338
3819	0.0632
3820	0.06302
3821	0.06285
3822	0.06267
3823	0.06249
3824	0.06231
3825	0.06214
3826	0.06196
3827	0.06178
3828	0.06161
3829	0.06143
3830	0.06125
3831	0.06107
3832	0.0609
3833	0.06072
3834	0.06054
3835	0.06036
3836	0.06019
3837	0.06001
3838	0.05983
3839	0.05966
3840	0.05948
3841	0.0593
3842	0.05912
3843	0.05895
3844	0.05877
3845	0.05859
3846	0.05842
3847	0.05824
3848	0.05806
3849	0.05788
3850	0.05771
3851	0.05753
3852	0.05735
3853	0.05718
3854	0.057
3855	0.05682
3856	0.05664
3857	0.05647
3858	0.05629
3859	0.05611
3860	0.05594
3861	0.05576
3862	0.05558
3863	0.0554
3864	0.05523
3865	0.05505
3866	0.05487
3867	0.0547
3868	0.05452
3869	0.05434
3870	0.05416
3871	0.05399
3872	0.05381
3873	0.05363
3874	0.05346
3875	0.05328
3876	0.0531
3877	0.05292
3878	0.05275
3879	0.05257
3880	0.05239
3881	0.05222
3882	0.05204
3883	0.05186
3884	0.05168
3885	0.05151
3886	0.05133
3887	0.05115
3888	0.05098
3889	0.0508
3890	0.05062
3891	0.05044
3892	0.05027
3893	0.05009
3894	0.04991
3895	0.04974
3896	0.04956
3897	0.04938
3898	0.0492
3899	0.04903
3900	0.04885
3901	0.04867
3902	0.0485
3903	0.04832
3904	0.04814
3905	0.04796
3906	0.04779
3907	0.04761
3908	0.04743
3909	0.04726
3910	0.04708
3911	0.0469
3912	0.04672
3913	0.04655
3914	0.04637
3915	0.04619
3916	0.04601
3917	0.04584
3918	0.04566
3919	0.04548
3920	0.04531
3921	0.04513
3922	0.04495
3923	0.04477
3924	0.0446
3925	0.04442
3926	0.04424
3927	0.04407
3928	0.04389
3929	0.04371
3930	0.04353
3931	0.04336
3932	0.04318
3933	0.043
3934	0.04283
3935	0.04265
3936	0.04247
3937	0.04229
3938	0.04212
3939	0.04194
3940	0.04176
3941	0.04159
3942	0.04141
3943	0.04123
3944	0.04105
3945	0.04088
3946	0.0407
3947	0.04052
3948	0.04035
3949	0.04017
3950	0.03999
3951	0.03981
3952	0.03964
3953	0.03946
3954	0.03928
3955	0.03911
3956	0.03893
3957	0.03875
3958	0.03857
3959	0.0384
3960	0.03822
3961	0.03804
3962	0.03787
3963	0.03769
3964	0.03751
3965	0.03733
3966	0.03716
3967	0.03698
3968	0.0368
3969	0.03663
3970	0.03645
3971	0.03627
3972	0.03609
3973	0.03592
3974	0.03574
3975	0.03556
3976	0.03539
3977	0.03521
3978	0.03503
3979	0.03485
3980	0.03468
3981	0.0345
3982	0.03432
3983	0.03415
3984	0.03397
3985	0.03379
3986	0.03361
3987	0.03344
3988	0.03326
3989	0.03308
3990	0.03291
3991	0.03273
3992	0.03255
3993	0.03237
3994	0.0322
3995	0.03202
3996	0.03184
3997	0.03166
3997	0.03149