4000.18193	0.01516
3999.21756	0.0151
3998.2532	0.01522
3997.28884	0.01552
3996.32447	0.01626
3995.36011	0.017
3994.39574	0.01682
3993.43138	0.01623
3992.46702	0.01635
3991.50265	0.01717
3990.53829	0.01767
3989.57392	0.01708
3988.60956	0.01603
3987.6452	0.01551
3986.68083	0.01552
3985.71647	0.01557
3984.7521	0.01549
3983.78774	0.01573
3982.82338	0.01637
3981.85901	0.01673
3980.89465	0.01653
3979.93028	0.01604
3978.96592	0.01571
3978.00156	0.01603
3977.03719	0.01724
3976.07283	0.0185
3975.10846	0.01869
3974.1441	0.01834
3973.17974	0.01828
3972.21537	0.01803
3971.25101	0.01728
3970.28664	0.01705
3969.32228	0.01731
3968.35792	0.01679
3967.39355	0.01573
3966.42919	0.01524
3965.46482	0.01552
3964.50046	0.01614
3963.5361	0.01734
3962.57173	0.01909
3961.60737	0.0196
3960.643	0.01844
3959.67864	0.0175
3958.71428	0.01753
3957.74991	0.01796
3956.78555	0.01793
3955.82118	0.01724
3954.85682	0.01683
3953.89246	0.01734
3952.92809	0.01794
3951.96373	0.01858
3950.99936	0.02082
3950.035	0.02363
3949.07064	0.02471
3948.10627	0.02436
3947.14191	0.02226
3946.17754	0.01935
3945.21318	0.01875
3944.24882	0.02145
3943.28445	0.02521
3942.32009	0.02508
3941.35572	0.02105
3940.39136	0.01796
3939.427	0.01722
3938.46263	0.01723
3937.49827	0.0166
3936.5339	0.016
3935.56954	0.01676
3934.60518	0.01913
3933.64081	0.02289
3932.67645	0.02682
3931.71208	0.02794
3930.74772	0.02656
3929.78336	0.02453
3928.81899	0.02171
3927.85463	0.019
3926.89026	0.01879
3925.9259	0.02287
3924.96154	0.02863
3923.99717	0.02869
3923.03281	0.02355
3922.06844	0.01996
3921.10408	0.02083
3920.13972	0.02327
3919.17535	0.02359
3918.21099	0.02477
3917.24662	0.02805
3916.28226	0.02696
3915.3179	0.02171
3914.35353	0.0178
3913.38917	0.01633
3912.4248	0.01588
3911.46044	0.01567
3910.49608	0.01545
3909.53171	0.0154
3908.56735	0.0161
3907.60298	0.019
3906.63862	0.02537
3905.67426	0.03357
3904.70989	0.03933
3903.74553	0.04096
3902.78116	0.04076
3901.8168	0.03858
3900.85244	0.03551
3899.88807	0.03537
3898.92371	0.03548
3897.95934	0.03
3896.99498	0.0231
3896.03062	0.01968
3895.06625	0.02062
3894.10189	0.02372
3893.13752	0.02761
3892.17316	0.03282
3891.2088	0.0343
3890.24443	0.0283
3889.28007	0.02236
3888.3157	0.02017
3887.35134	0.02229
3886.38698	0.029
3885.42261	0.03457
3884.45825	0.03298
3883.49388	0.0296
3882.52952	0.02845
3881.56516	0.03184
3880.60079	0.03669
3879.63643	0.03244
3878.67206	0.02466
3877.7077	0.02015
3876.74333	0.01951
3875.77897	0.0229
3874.81461	0.03096
3873.85024	0.03581
3872.88588	0.03314
3871.92151	0.03306
3870.95715	0.04034
3869.99279	0.04872
3869.02842	0.04172
3868.06406	0.03154
3867.09969	0.02773
3866.13533	0.0318
3865.17097	0.04105
3864.2066	0.04266
3863.24224	0.03815
3862.27787	0.03438
3861.31351	0.02993
3860.34915	0.02509
3859.38478	0.02317
3858.42042	0.026
3857.45605	0.03198
3856.49169	0.03583
3855.52733	0.03777
3854.56296	0.04758
3853.5986	0.06771
3852.63423	0.06553
3851.66987	0.05018
3850.70551	0.03922
3849.74114	0.0323
3848.77678	0.02655
3847.81241	0.02244
3846.84805	0.02114
3845.88369	0.02276
3844.91932	0.02733
3843.95496	0.03264
3842.99059	0.03381
3842.02623	0.03488
3841.06187	0.04174
3840.0975	0.04909
3839.13314	0.05045
3838.16877	0.04905
3837.20441	0.04501
3836.24005	0.04088
3835.27568	0.03818
3834.31132	0.03438
3833.34695	0.03105
3832.38259	0.03136
3831.41823	0.03206
3830.45386	0.02867
3829.4895	0.0258
3828.52513	0.02682
3827.56077	0.03084
3826.59641	0.03318
3825.63204	0.03165
3824.66768	0.03011
3823.70331	0.03138
3822.73895	0.03687
3821.77459	0.04992
3820.81022	0.0579
3819.84586	0.04836
3818.88149	0.03911
3817.91713	0.03576
3816.95277	0.03891
3815.9884	0.04285
3815.02404	0.03676
3814.05967	0.02857
3813.09531	0.02348
3812.13095	0.02157
3811.16658	0.02132
3810.20222	0.02202
3809.23785	0.02401
3808.27349	0.02885
3807.30913	0.037
3806.34476	0.03851
3805.3804	0.03342
3804.41603	0.03144
3803.45167	0.03611
3802.48731	0.04704
3801.52294	0.05551
3800.55858	0.04839
3799.59421	0.03871
3798.62985	0.03445
3797.66549	0.03562
3796.70112	0.03695
3795.73676	0.03265
3794.77239	0.02667
3793.80803	0.0229
3792.84367	0.0215
3791.8793	0.0212
3790.91494	0.02137
3789.95057	0.02168
3788.98621	0.0219
3788.02185	0.02257
3787.05748	0.02469
3786.09312	0.0285
3785.12875	0.03164
3784.16439	0.03022
3783.20003	0.02657
3782.23566	0.02497
3781.2713	0.02639
3780.30693	0.03094
3779.34257	0.03476
3778.37821	0.03219
3777.41384	0.02728
3776.44948	0.02402
3775.48511	0.02278
3774.52075	0.02274
3773.55639	0.02347
3772.59202	0.02542
3771.62766	0.0294
3770.66329	0.03574
3769.69893	0.03908
3768.73457	0.03516
3767.7702	0.03159
3766.80584	0.03288
3765.84147	0.03639
3764.87711	0.03497
3763.91275	0.03086
3762.94838	0.02855
3761.98402	0.02889
3761.01965	0.03296
3760.05529	0.04139
3759.09093	0.04497
3758.12656	0.04164
3757.1622	0.03964
3756.19783	0.03901
3755.23347	0.03827
3754.26911	0.0401
3753.30474	0.04772
3752.34038	0.063
3751.37601	0.07214
3750.41165	0.07047
3749.44729	0.06553
3748.48292	0.05936
3747.51856	0.05442
3746.55419	0.05226
3745.58983	0.05412
3744.62547	0.05914
3743.6611	0.05457
3742.69674	0.04864
3741.73237	0.04624
3740.76801	0.04489
3739.80365	0.04319
3738.83928	0.04446
3737.87492	0.0499
3736.91055	0.05906
3735.94619	0.07141
3734.98182	0.07319
3734.01746	0.06283
3733.0531	0.05546
3732.08873	0.05096
3731.12437	0.04406
3730.16	0.03711
3729.19564	0.03384
3728.23128	0.03566
3727.26691	0.04132
3726.30255	0.0462
3725.33818	0.04602
3724.37382	0.04416
3723.40946	0.04538
3722.44509	0.04703
3721.48073	0.04329
3720.51636	0.03949
3719.552	0.03922
3718.58764	0.03857
3717.62327	0.0359
3716.65891	0.03478
3715.69454	0.03667
3714.73018	0.04004
3713.76582	0.04463
3712.80145	0.05408
3711.83709	0.06441
3710.87272	0.0633
3709.90836	0.05682
3708.944	0.04892
3707.97963	0.04187
3707.01527	0.03781
3706.0509	0.03636
3705.08654	0.03562
3704.12218	0.03581
3703.15781	0.03915
3702.19345	0.04483
3701.22908	0.04513
3700.26472	0.04041
3699.30036	0.03709
3698.33599	0.0366
3697.37163	0.03788
3696.40726	0.03913
3695.4429	0.03958
3694.47854	0.04045
3693.51417	0.04269
3692.54981	0.04758
3691.58544	0.05769
3690.62108	0.06667
3689.65672	0.0684
3688.69235	0.06715
3687.72799	0.06048
3686.76362	0.05194
3685.79926	0.04679
3684.8349	0.0451
3683.87053	0.04444
3682.90617	0.04385
3681.9418	0.04481
3680.97744	0.04865
3680.01308	0.0547
3679.04871	0.05931
3678.08435	0.0624
3677.11998	0.06888
3676.15562	0.08483
3675.19126	0.09313
3674.22689	0.07767
3673.26253	0.06669
3672.29816	0.06467
3671.3338	0.07269
3670.36944	0.0854
3669.40507	0.08493
3668.44071	0.07436
3667.47634	0.06506
3666.51198	0.06015
3665.54762	0.05851
3664.58325	0.05847
3663.61889	0.05894
3662.65452	0.05983
3661.69016	0.06134
3660.7258	0.06339
3659.76143	0.06523
3658.79707	0.06706
3657.8327	0.07104
3656.86834	0.07866
3655.90398	0.08238
3654.93961	0.07851
3653.97525	0.07582
3653.01088	0.07812
3652.04652	0.08717
3651.08216	0.10521
3650.11779	0.12167
3649.15343	0.12366
3648.18906	0.12133
3647.2247	0.1149
3646.26034	0.10248
3645.29597	0.09209
3644.33161	0.08758
3643.36724	0.08866
3642.40288	0.09111
3641.43852	0.09099
3640.47415	0.09003
3639.50979	0.09102
3638.54542	0.09338
3637.58106	0.09454
3636.6167	0.0945
3635.65233	0.09622
3634.68797	0.1011
3633.7236	0.10551
3632.75924	0.10608
3631.79488	0.10761
3630.83051	0.11489
3629.86615	0.13086
3628.90178	0.14324
3627.93742	0.13446
3626.97306	0.12485
3626.00869	0.119
3625.04433	0.11548
3624.07996	0.11468
3623.1156	0.11669
3622.15124	0.12142
3621.18687	0.12914
3620.22251	0.13915
3619.25814	0.14675
3618.29378	0.14701
3617.32942	0.14233
3616.36505	0.14036
3615.40069	0.14432
3614.43632	0.15049
3613.47196	0.15444
3612.5076	0.15422
3611.54323	0.15038
3610.57887	0.14935
3609.6145	0.15413
3608.65014	0.15996
3607.68578	0.16171
3606.72141	0.15916
3605.75705	0.15466
3604.79268	0.15262
3603.82832	0.15452
3602.86396	0.15885
3601.89959	0.16417
3600.93523	0.16922
3599.97086	0.17214
3599.0065	0.17336
3598.04214	0.17415
3597.07777	0.17635
3596.11341	0.18116
3595.14904	0.1852
3594.18468	0.18635
3593.22031	0.18622
3592.25595	0.18492
3591.29159	0.18466
3590.32722	0.18825
3589.36286	0.19751
3588.39849	0.21116
3587.43413	0.21971
3586.46977	0.21643
3585.5054	0.20909
3584.54104	0.20554
3583.57667	0.20569
3582.61231	0.20672
3581.64795	0.2085
3580.68358	0.21201
3579.71922	0.21528
3578.75485	0.21717
3577.79049	0.21961
3576.82613	0.22247
3575.86176	0.22487
3574.8974	0.2273
3573.93303	0.22919
3572.96867	0.23037
3572.00431	0.23263
3571.03994	0.23667
3570.07558	0.24207
3569.11121	0.25071
3568.14685	0.26439
3567.18249	0.27685
3566.21812	0.27777
3565.25376	0.27011
3564.28939	0.26443
3563.32503	0.26313
3562.36067	0.26359
3561.3963	0.26515
3560.43194	0.26729
3559.46757	0.26814
3558.50321	0.26853
3557.53885	0.27008
3556.57448	0.27198
3555.61012	0.27429
3554.64575	0.27857
3553.68139	0.28464
3552.71703	0.29025
3551.75266	0.29221
3550.7883	0.29125
3549.82393	0.29163
3548.85957	0.29553
3547.89521	0.30217
3546.93084	0.30899
3545.96648	0.31387
3545.00211	0.31591
3544.03775	0.3151
3543.07339	0.3133
3542.10902	0.31223
3541.14466	0.31266
3540.18029	0.31451
3539.21593	0.31721
3538.25157	0.321
3537.2872	0.32646
3536.32284	0.33078
3535.35847	0.33134
3534.39411	0.33118
3533.42975	0.33293
3532.46538	0.3364
3531.50102	0.3407
3530.53665	0.34518
3529.57229	0.35006
3528.60793	0.35517
3527.64356	0.35877
3526.6792	0.36012
3525.71483	0.36125
3524.75047	0.36443
3523.78611	0.36884
3522.82174	0.37054
3521.85738	0.369
3520.89301	0.3684
3519.92865	0.37041
3518.96429	0.37333
3517.99992	0.37555
3517.03556	0.37722
3516.07119	0.3791
3515.10683	0.38156
3514.14247	0.38456
3513.1781	0.38792
3512.21374	0.39153
3511.24937	0.39582
3510.28501	0.40115
3509.32065	0.40509
3508.35628	0.40524
3507.39192	0.40485
3506.42755	0.40696
3505.46319	0.41157
3504.49883	0.41767
3503.53446	0.42341
3502.5701	0.42605
3501.60573	0.42565
3500.64137	0.42503
3499.67701	0.42569
3498.71264	0.42766
3497.74828	0.4309
3496.78391	0.43478
3495.81955	0.43785
3494.85519	0.43958
3493.89082	0.44104
3492.92646	0.44318
3491.96209	0.44605
3490.99773	0.4491
3490.03337	0.4523
3489.069	0.45625
3488.10464	0.45993
3487.14027	0.46218
3486.17591	0.46417
3485.21155	0.46668
3484.24718	0.46966
3483.28282	0.47378
3482.31845	0.47842
3481.35409	0.48144
3480.38973	0.48257
3479.42536	0.48317
3478.461	0.4844
3477.49663	0.48662
3476.53227	0.48974
3475.56791	0.49335
3474.60354	0.49633
3473.63918	0.49835
3472.67481	0.50035
3471.71045	0.5029
3470.74609	0.50551
3469.78172	0.50785
3468.81736	0.51034
3467.85299	0.51363
3466.88863	0.51699
3465.92427	0.51938
3464.9599	0.52156
3463.99554	0.52458
3463.03117	0.52809
3462.06681	0.53088
3461.10245	0.53259
3460.13808	0.53425
3459.17372	0.53657
3458.20935	0.53924
3457.24499	0.5418
3456.28062	0.54414
3455.31626	0.54621
3454.3519	0.54806
3453.38753	0.54998
3452.42317	0.5522
3451.4588	0.55461
3450.49444	0.55706
3449.53008	0.55996
3448.56571	0.56427
3447.60135	0.5693
3446.63698	0.57169
3445.67262	0.57137
3444.70826	0.57161
3443.74389	0.57364
3442.77953	0.57635
3441.81516	0.57796
3440.8508	0.57859
3439.88644	0.57944
3438.92207	0.5807
3437.95771	0.58221
3436.99334	0.58394
3436.02898	0.58552
3435.06462	0.58698
3434.10025	0.58871
3433.13589	0.59085
3432.17152	0.59287
3431.20716	0.59438
3430.2428	0.59553
3429.27843	0.59683
3428.31407	0.59849
3427.3497	0.60024
3426.38534	0.60175
3425.42098	0.60318
3424.45661	0.60481
3423.49225	0.60684
3422.52788	0.60908
3421.56352	0.61113
3420.59916	0.61232
3419.63479	0.61241
3418.67043	0.6121
3417.70606	0.6122
3416.7417	0.6127
3415.77734	0.61321
3414.81297	0.61369
3413.84861	0.61422
3412.88424	0.61488
3411.91988	0.61565
3410.95552	0.61647
3409.99115	0.61706
3409.02679	0.61766
3408.06242	0.61851
3407.09806	0.61931
3406.1337	0.62
3405.16933	0.62083
3404.20497	0.62166
3403.2406	0.62196
3402.27624	0.62192
3401.31188	0.62208
3400.34751	0.62248
3399.38315	0.62327
3398.41878	0.62469
3397.45442	0.62604
3396.49006	0.62613
3395.52569	0.62548
3394.56133	0.6257
3393.59696	0.62691
3392.6326	0.62764
3391.66824	0.62702
3390.70387	0.62632
3389.73951	0.62645
3388.77514	0.62697
3387.81078	0.62745
3386.84642	0.6282
3385.88205	0.62907
3384.91769	0.62944
3383.95332	0.62906
3382.98896	0.62822
3382.0246	0.62732
3381.06023	0.62665
3380.09587	0.6263
3379.1315	0.62605
3378.16714	0.62561
3377.20278	0.62492
3376.23841	0.62436
3375.27405	0.62401
3374.30968	0.62355
3373.34532	0.62283
3372.38096	0.62183
3371.41659	0.62074
3370.45223	0.61995
3369.48786	0.61948
3368.5235	0.61901
3367.55914	0.61834
3366.59477	0.61767
3365.63041	0.617
3364.66604	0.6161
3363.70168	0.61505
3362.73732	0.61411
3361.77295	0.61297
3360.80859	0.61157
3359.84422	0.61029
3358.87986	0.60928
3357.9155	0.60845
3356.95113	0.60776
3355.98677	0.60689
3355.0224	0.60557
3354.05804	0.6038
3353.09368	0.60199
3352.12931	0.60037
3351.16495	0.59889
3350.20058	0.59762
3349.23622	0.59666
3348.27186	0.59578
3347.30749	0.59471
3346.34313	0.59341
3345.37876	0.59198
3344.4144	0.59056
3343.45004	0.58926
3342.48567	0.5882
3341.52131	0.58712
3340.55694	0.58575
3339.59258	0.5842
3338.62822	0.583
3337.66385	0.5823
3336.69949	0.58155
3335.73512	0.58038
3334.77076	0.57884
3333.8064	0.57693
3332.84203	0.57497
3331.87767	0.57342
3330.9133	0.57214
3329.94894	0.57079
3328.98458	0.5693
3328.02021	0.56781
3327.05585	0.56623
3326.09148	0.56458
3325.12712	0.56296
3324.16276	0.56144
3323.19839	0.55987
3322.23403	0.55822
3321.26966	0.55655
3320.3053	0.55493
3319.34094	0.55344
3318.37657	0.55201
3317.41221	0.55039
3316.44784	0.54862
3315.48348	0.54698
3314.51911	0.54558
3313.55475	0.54419
3312.59039	0.54264
3311.62602	0.54111
3310.66166	0.53984
3309.69729	0.53863
3308.73293	0.53701
3307.76857	0.53493
3306.8042	0.53284
3305.83984	0.53103
3304.87547	0.52944
3303.91111	0.52791
3302.94675	0.52627
3301.98238	0.52458
3301.01802	0.52307
3300.05365	0.52153
3299.08929	0.51989
3298.12493	0.51822
3297.16056	0.51635
3296.1962	0.51443
3295.23183	0.51277
3294.26747	0.5114
3293.30311	0.5101
3292.33874	0.50862
3291.37438	0.5068
3290.41001	0.50495
3289.44565	0.50332
3288.48129	0.5017
3287.51692	0.49984
3286.55256	0.498
3285.58819	0.49642
3284.62383	0.4952
3283.65947	0.4939
3282.6951	0.49218
3281.73074	0.49029
3280.76637	0.4887
3279.80201	0.4872
3278.83765	0.48562
3277.87328	0.48435
3276.90892	0.48329
3275.94455	0.48177
3274.98019	0.48013
3274.01583	0.47887
3273.05146	0.47728
3272.0871	0.47524
3271.12273	0.47338
3270.15837	0.47186
3269.19401	0.47051
3268.22964	0.46933
3267.26528	0.46827
3266.30091	0.46719
3265.33655	0.46608
3264.37219	0.46489
3263.40782	0.46367
3262.44346	0.46252
3261.47909	0.46155
3260.51473	0.46057
3259.55037	0.45937
3258.586	0.45826
3257.62164	0.4575
3256.65727	0.4568
3255.69291	0.45599
3254.72855	0.45533
3253.76418	0.45456
3252.79982	0.4535
3251.83545	0.45247
3250.87109	0.45162
3249.90673	0.45079
3248.94236	0.44998
3247.978	0.44936
3247.01363	0.44904
3246.04927	0.44893
3245.08491	0.44839
3244.12054	0.44698
3243.15618	0.4453
3242.19181	0.44385
3241.22745	0.44247
3240.26309	0.44085
3239.29872	0.43891
3238.33436	0.43681
3237.36999	0.43464
3236.40563	0.43205
3235.44127	0.42904
3234.4769	0.42624
3233.51254	0.42387
3232.54817	0.4214
3231.58381	0.41868
3230.61945	0.41591
3229.65508	0.41311
3228.69072	0.4102
3227.72635	0.40721
3226.76199	0.404
3225.79763	0.40069
3224.83326	0.39761
3223.8689	0.39489
3222.90453	0.39237
3221.94017	0.38979
3220.97581	0.38717
3220.01144	0.38465
3219.04708	0.3819
3218.08271	0.37894
3217.11835	0.37612
3216.15399	0.37358
3215.18962	0.37144
3214.22526	0.36948
3213.26089	0.3671
3212.29653	0.36447
3211.33217	0.36228
3210.3678	0.36058
3209.40344	0.35867
3208.43907	0.35619
3207.47471	0.35353
3206.51035	0.35119
3205.54598	0.34916
3204.58162	0.34718
3203.61725	0.34504
3202.65289	0.34266
3201.68853	0.34019
3200.72416	0.33784
3199.7598	0.3357
3198.79543	0.33364
3197.83107	0.33124
3196.86671	0.32816
3195.90234	0.3249
3194.93798	0.32184
3193.97361	0.3189
3193.00925	0.31595
3192.04489	0.31309
3191.08052	0.31032
3190.11616	0.30761
3189.15179	0.30479
3188.18743	0.30197
3187.22307	0.29928
3186.2587	0.29684
3185.29434	0.2944
3184.32997	0.29158
3183.36561	0.28857
3182.40125	0.2857
3181.43688	0.28303
3180.47252	0.28057
3179.50815	0.27855
3178.54379	0.27659
3177.57943	0.27401
3176.61506	0.271
3175.6507	0.26826
3174.68633	0.26586
3173.72197	0.26347
3172.7576	0.26112
3171.79324	0.25884
3170.82888	0.25664
3169.86451	0.2545
3168.90015	0.2522
3167.93578	0.24985
3166.97142	0.24766
3166.00706	0.24566
3165.04269	0.24364
3164.07833	0.24151
3163.11396	0.23931
3162.1496	0.23719
3161.18524	0.23521
3160.22087	0.23327
3159.25651	0.23126
3158.29214	0.22922
3157.32778	0.22733
3156.36342	0.22557
3155.39905	0.22388
3154.43469	0.22211
3153.47032	0.22039
3152.50596	0.21887
3151.5416	0.21755
3150.57723	0.21625
3149.61287	0.21491
3148.6485	0.21366
3147.68414	0.21266
3146.71978	0.21193
3145.75541	0.21134
3144.79105	0.2109
3143.82668	0.2107
3142.86232	0.2106
3141.89796	0.21022
3140.93359	0.20926
3139.96923	0.20764
3139.00486	0.20548
3138.0405	0.2031
3137.07614	0.2008
3136.11177	0.1986
3135.14741	0.19654
3134.18304	0.19486
3133.21868	0.19332
3132.25432	0.19148
3131.28995	0.18941
3130.32559	0.18752
3129.36122	0.18591
3128.39686	0.18468
3127.4325	0.18377
3126.46813	0.18259
3125.50377	0.18092
3124.5394	0.17935
3123.57504	0.17842
3122.61068	0.17748
3121.64631	0.17574
3120.68195	0.17383
3119.71758	0.17259
3118.75322	0.17149
3117.78886	0.17019
3116.82449	0.16906
3115.86013	0.16797
3114.89576	0.1664
3113.9314	0.16467
3112.96704	0.16331
3112.00267	0.16209
3111.03831	0.16091
3110.07394	0.1597
3109.10958	0.15852
3108.14522	0.15753
3107.18085	0.15663
3106.21649	0.15556
3105.25212	0.15451
3104.28776	0.15374
3103.3234	0.15322
3102.35903	0.15276
3101.39467	0.15218
3100.4303	0.15125
3099.46594	0.15006
3098.50158	0.14896
3097.53721	0.14834
3096.57285	0.14802
3095.60848	0.14745
3094.64412	0.14661
3093.67976	0.14587
3092.71539	0.14527
3091.75103	0.14462
3090.78666	0.14397
3089.8223	0.1435
3088.85794	0.14317
3087.89357	0.14277
3086.92921	0.14211
3085.96484	0.14141
3085.00048	0.14093
3084.03612	0.14074
3083.07175	0.14069
3082.10739	0.14054
3081.14302	0.14038
3080.17866	0.14033
3079.2143	0.14027
3078.24993	0.14
3077.28557	0.13958
3076.3212	0.13925
3075.35684	0.13926
3074.39248	0.13962
3073.42811	0.14008
3072.46375	0.14047
3071.49938	0.14095
3070.53502	0.14157
3069.57066	0.14227
3068.60629	0.14308
3067.64193	0.14401
3066.67756	0.14478
3065.7132	0.14533
3064.74884	0.14591
3063.78447	0.14595
3062.82011	0.14541
3061.85574	0.14491
3060.89138	0.14468
3059.92702	0.14436
3058.96265	0.14368
3057.99829	0.14298
3057.03392	0.14239
3056.06956	0.14138
3055.1052	0.13966
3054.14083	0.13774
3053.17647	0.13596
3052.2121	0.13421
3051.24774	0.13262
3050.28338	0.13129
3049.31901	0.12999
3048.35465	0.12829
3047.39028	0.12623
3046.42592	0.12427
3045.46156	0.12259
3044.49719	0.12106
3043.53283	0.11961
3042.56846	0.11818
3041.6041	0.11681
3040.63974	0.11559
3039.67537	0.1145
3038.71101	0.11342
3037.74664	0.11229
3036.78228	0.11136
3035.81792	0.11066
3034.85355	0.11004
3033.88919	0.10926
3032.92482	0.10872
3031.96046	0.10851
3030.99609	0.10785
3030.03173	0.1064
3029.06737	0.10497
3028.103	0.10409
3027.13864	0.10366
3026.17427	0.10332
3025.20991	0.10276
3024.24555	0.10209
3023.28118	0.10168
3022.31682	0.10138
3021.35245	0.10098
3020.38809	0.10055
3019.42373	0.10031
3018.45936	0.10018
3017.495	0.10024
3016.53063	0.10045
3015.56627	0.10071
3014.60191	0.10096
3013.63754	0.10151
3012.67318	0.10216
3011.70881	0.10255
3010.74445	0.10285
3009.78009	0.10325
3008.81572	0.10379
3007.85136	0.10462
3006.88699	0.10579
3005.92263	0.10712
3004.95827	0.10849
3003.9939	0.10978
3003.02954	0.11097
3002.06517	0.1122
3001.10081	0.11356
3000.13645	0.1151
2999.17208	0.11698
2998.20772	0.11927
2997.24335	0.1219
2996.27899	0.1248
2995.31463	0.12802
2994.35026	0.13143
2993.3859	0.13491
2992.42153	0.13856
2991.45717	0.14236
2990.49281	0.14626
2989.52844	0.15024
2988.56408	0.1543
2987.59971	0.1581
2986.63535	0.16139
2985.67099	0.16442
2984.70662	0.16759
2983.74226	0.171
2982.77789	0.17448
2981.81353	0.17812
2980.84917	0.18185
2979.8848	0.18574
2978.92044	0.18982
2977.95607	0.1939
2976.99171	0.19763
2976.02735	0.20108
2975.06298	0.20435
2974.09862	0.20737
2973.13425	0.20989
2972.16989	0.21175
2971.20553	0.21321
2970.24116	0.21447
2969.2768	0.21535
2968.31243	0.21561
2967.34807	0.21518
2966.38371	0.21417
2965.41934	0.2128
2964.45498	0.21119
2963.49061	0.20944
2962.52625	0.20768
2961.56189	0.20608
2960.59752	0.20487
2959.63316	0.20406
2958.66879	0.20349
2957.70443	0.20317
2956.74007	0.20336
2955.7757	0.20426
2954.81134	0.20584
2953.84697	0.20794
2952.88261	0.21046
2951.91825	0.21356
2950.95388	0.21751
2949.98952	0.2222
2949.02515	0.2274
2948.06079	0.23304
2947.09643	0.23907
2946.13206	0.24551
2945.1677	0.25203
2944.20333	0.25803
2943.23897	0.26321
2942.27461	0.26777
2941.31024	0.27182
2940.34588	0.27543
2939.38151	0.27867
2938.41715	0.28157
2937.45279	0.28431
2936.48842	0.28704
2935.52406	0.2896
2934.55969	0.29179
2933.59533	0.29359
2932.63097	0.29508
2931.6666	0.29633
2930.70224	0.29735
2929.73787	0.29791
2928.77351	0.29791
2927.80915	0.29748
2926.84478	0.29672
2925.88042	0.29556
2924.91605	0.29382
2923.95169	0.29142
2922.98733	0.28845
2922.02296	0.2851
2921.0586	0.28148
2920.09423	0.27761
2919.12987	0.27344
2918.16551	0.26909
2917.20114	0.26478
2916.23678	0.26046
2915.27241	0.25599
2914.30805	0.25142
2913.34369	0.24699
2912.37932	0.24292
2911.41496	0.2393
2910.45059	0.236
2909.48623	0.23293
2908.52187	0.23011
2907.5575	0.22769
2906.59314	0.22559
2905.62877	0.22357
2904.66441	0.22142
2903.70005	0.21926
2902.73568	0.2173
2901.77132	0.21548
2900.80695	0.21354
2899.84259	0.21143
2898.87823	0.20933
2897.91386	0.20744
2896.9495	0.20574
2895.98513	0.204
2895.02077	0.20218
2894.05641	0.20042
2893.09204	0.19887
2892.12768	0.19745
2891.16331	0.19613
2890.19895	0.19472
2889.23458	0.1933
2888.27022	0.19206
2887.30586	0.19106
2886.34149	0.19011
2885.37713	0.18906
2884.41276	0.18791
2883.4484	0.18688
2882.48404	0.18604
2881.51967	0.18512
2880.55531	0.1839
2879.59094	0.1826
2878.62658	0.18137
2877.66222	0.18012
2876.69785	0.17865
2875.73349	0.17685
2874.76912	0.17474
2873.80476	0.17256
2872.8404	0.17028
2871.87603	0.16776
2870.91167	0.16489
2869.9473	0.16195
2868.98294	0.15914
2868.01858	0.15641
2867.05421	0.15365
2866.08985	0.15093
2865.12548	0.14845
2864.16112	0.14637
2863.19676	0.14463
2862.23239	0.1431
2861.26803	0.14163
2860.30366	0.14028
2859.3393	0.13913
2858.37494	0.13814
2857.41057	0.13713
2856.44621	0.13581
2855.48184	0.13419
2854.51748	0.13247
2853.55312	0.1307
2852.58875	0.12864
2851.62439	0.12607
2850.66002	0.12302
2849.69566	0.11959
2848.7313	0.11584
2847.76693	0.11177
2846.80257	0.10766
2845.8382	0.10389
2844.87384	0.10068
2843.90948	0.09794
2842.94511	0.09541
2841.98075	0.09304
2841.01638	0.09091
2840.05202	0.08919
2839.08766	0.08776
2838.12329	0.08644
2837.15893	0.08509
2836.19456	0.08375
2835.2302	0.08258
2834.26584	0.08167
2833.30147	0.08088
2832.33711	0.08
2831.37274	0.07908
2830.40838	0.0783
2829.44402	0.07767
2828.47965	0.07705
2827.51529	0.07625
2826.55092	0.07546
2825.58656	0.07486
2824.6222	0.07441
2823.65783	0.07392
2822.69347	0.07333
2821.7291	0.07276
2820.76474	0.07231
2819.80038	0.07191
2818.83601	0.07146
2817.87165	0.07094
2816.90728	0.0705
2815.94292	0.07023
2814.97856	0.07015
2814.01419	0.07009
2813.04983	0.06983
2812.08546	0.06934
2811.1211	0.06872
2810.15674	0.06805
2809.19237	0.06732
2808.22801	0.06646
2807.26364	0.06552
2806.29928	0.06468
2805.33492	0.06399
2804.37055	0.0633
2803.40619	0.06253
2802.44182	0.06175
2801.47746	0.0611
2800.5131	0.0606
2799.54873	0.06012
2798.58437	0.05952
2797.62	0.05882
2796.65564	0.0582
2795.69128	0.05772
2794.72691	0.0573
2793.76255	0.0568
2792.79818	0.05624
2791.83382	0.05576
2790.86946	0.05543
2789.90509	0.0551
2788.94073	0.05466
2787.97636	0.05409
2787.012	0.05355
2786.04764	0.05314
2785.08327	0.05278
2784.11891	0.05239
2783.15454	0.05198
2782.19018	0.0516
2781.22582	0.05133
2780.26145	0.05106
2779.29709	0.05067
2778.33272	0.05023
2777.36836	0.04994
2776.404	0.04982
2775.43963	0.04968
2774.47527	0.04939
2773.5109	0.04898
2772.54654	0.0486
2771.58218	0.04831
2770.61781	0.04806
2769.65345	0.04783
2768.68908	0.04759
2767.72472	0.04737
2766.76036	0.04716
2765.79599	0.04694
2764.83163	0.04671
2763.86726	0.04651
2762.9029	0.04628
2761.93854	0.04611
2760.97417	0.04599
2760.00981	0.04585
2759.04544	0.04565
2758.08108	0.04552
2757.11672	0.04547
2756.15235	0.04534
2755.18799	0.0451
2754.22362	0.04485
2753.25926	0.04467
2752.2949	0.04453
2751.33053	0.04445
2750.36617	0.04437
2749.4018	0.04419
2748.43744	0.04398
2747.47307	0.04384
2746.50871	0.04363
2745.54435	0.04336
2744.57998	0.0431
2743.61562	0.04295
2742.65125	0.04285
2741.68689	0.04276
2740.72253	0.04257
2739.75816	0.04236
2738.7938	0.04223
2737.82943	0.04221
2736.86507	0.04215
2735.90071	0.04199
2734.93634	0.04174
2733.97198	0.04149
2733.00761	0.04138
2732.04325	0.04136
2731.07889	0.04127
2730.11452	0.0411
2729.15016	0.04094
2728.18579	0.0409
2727.22143	0.04088
2726.25707	0.04078
2725.2927	0.0406
2724.32834	0.04035
2723.36397	0.04012
2722.39961	0.04003
2721.43525	0.03993
2720.47088	0.03978
2719.50652	0.03965
2718.54215	0.0395
2717.57779	0.03932
2716.61343	0.03907
2715.64906	0.03876
2714.6847	0.03851
2713.72033	0.03833
2712.75597	0.03814
2711.79161	0.03798
2710.82724	0.0378
2709.86288	0.03753
2708.89851	0.03711
2707.93415	0.0367
2706.96979	0.03639
2706.00542	0.03616
2705.04106	0.03591
2704.07669	0.03554
2703.11233	0.03514
2702.14797	0.03486
2701.1836	0.03468
2700.21924	0.03447
2699.25487	0.03422
2698.29051	0.03395
2697.32615	0.03368
2696.36178	0.03343
2695.39742	0.03317
2694.43305	0.0329
2693.46869	0.03272
2692.50433	0.03251
2691.53996	0.03227
2690.5756	0.03204
2689.61123	0.03186
2688.64687	0.03167
2687.68251	0.03148
2686.71814	0.0313
2685.75378	0.0311
2684.78941	0.0309
2683.82505	0.03073
2682.86069	0.03061
2681.89632	0.03056
2680.93196	0.03041
2679.96759	0.03018
2679.00323	0.02996
2678.03887	0.02985
2677.0745	0.02974
2676.11014	0.02951
2675.14577	0.02922
2674.18141	0.02906
2673.21705	0.02896
2672.25268	0.02888
2671.28832	0.02876
2670.32395	0.02862
2669.35959	0.02837
2668.39523	0.02812
2667.43086	0.02792
2666.4665	0.02778
2665.50213	0.02759
2664.53777	0.02741
2663.57341	0.02728
2662.60904	0.0271
2661.64468	0.02683
2660.68031	0.0266
2659.71595	0.02647
2658.75159	0.02632
2657.78722	0.02612
2656.82286	0.02589
2655.85849	0.02569
2654.89413	0.02548
2653.92977	0.02533
2652.9654	0.02518
2652.00104	0.025
2651.03667	0.02475
2650.07231	0.0245
2649.10795	0.02434
2648.14358	0.02419
2647.17922	0.02397
2646.21485	0.02366
2645.25049	0.02341
2644.28613	0.0233
2643.32176	0.02317
2642.3574	0.02297
2641.39303	0.0227
2640.42867	0.0225
2639.46431	0.02235
2638.49994	0.02221
2637.53558	0.02201
2636.57121	0.02171
2635.60685	0.02149
2634.64249	0.02137
2633.67812	0.02127
2632.71376	0.02107
2631.74939	0.02075
2630.78503	0.02049
2629.82067	0.02026
2628.8563	0.0201
2627.89194	0.01991
2626.92757	0.01969
2625.96321	0.01948
2624.99885	0.01933
2624.03448	0.01911
2623.07012	0.01887
2622.10575	0.0186
2621.14139	0.01833
2620.17703	0.01808
2619.21266	0.01797
2618.2483	0.01785
2617.28393	0.01772
2616.31957	0.01758
2615.35521	0.01745
2614.39084	0.01733
2613.42648	0.01724
2612.46211	0.01714
2611.49775	0.01709
2610.53339	0.01706
2609.56902	0.01699
2608.60466	0.01686
2607.64029	0.01676
2606.67593	0.01673
2605.71156	0.01674
2604.7472	0.01666
2603.78284	0.01653
2602.81847	0.01637
2601.85411	0.0163
2600.88974	0.01629
2599.92538	0.01626
2598.96102	0.01617
2597.99665	0.01605
2597.03229	0.01602
2596.06792	0.01608
2595.10356	0.01613
2594.1392	0.0161
2593.17483	0.01604
2592.21047	0.01597
2591.2461	0.01591
2590.28174	0.01578
2589.31738	0.01563
2588.35301	0.0155
2587.38865	0.01542
2586.42428	0.01539
2585.45992	0.01532
2584.49556	0.01518
2583.53119	0.01502
2582.56683	0.01491
2581.60246	0.01488
2580.6381	0.01483
2579.67374	0.01469
2578.70937	0.01451
2577.74501	0.01436
2576.78064	0.0143
2575.81628	0.01428
2574.85192	0.01419
2573.88755	0.014
2572.92319	0.01387
2571.95882	0.01381
2570.99446	0.01372
2570.0301	0.01359
2569.06573	0.01347
2568.10137	0.01342
2567.137	0.01337
2566.17264	0.01331
2565.20828	0.0132
2564.24391	0.01309
2563.27955	0.01301
2562.31518	0.01296
2561.35082	0.01283
2560.38646	0.01262
2559.42209	0.01246
2558.45773	0.01244
2557.49336	0.01249
2556.529	0.01244
2555.56464	0.01233
2554.60027	0.01229
2553.63591	0.01231
2552.67154	0.01229
2551.70718	0.01218
2550.74282	0.01205
2549.77845	0.01199
2548.81409	0.01202
2547.84972	0.01203
2546.88536	0.01192
2545.921	0.01174
2544.95663	0.01165
2543.99227	0.01166
2543.0279	0.01167
2542.06354	0.01156
2541.09918	0.01136
2540.13481	0.01124
2539.17045	0.01125
2538.20608	0.01129
2537.24172	0.01124
2536.27736	0.01108
2535.31299	0.011
2534.34863	0.01099
2533.38426	0.01099
2532.4199	0.01087
2531.45554	0.01073
2530.49117	0.01069
2529.52681	0.0107
2528.56244	0.01066
2527.59808	0.01055
2526.63372	0.01039
2525.66935	0.0103
2524.70499	0.01029
2523.74062	0.01032
2522.77626	0.01021
2521.8119	0.00999
2520.84753	0.00985
2519.88317	0.00988
2518.9188	0.00994
2517.95444	0.00993
2516.99008	0.00984
2516.02571	0.00974
2515.06135	0.00979
2514.09698	0.00983
2513.13262	0.00969
2512.16826	0.00953
2511.20389	0.00952
2510.23953	0.00962
2509.27516	0.00963
2508.3108	0.00948
2507.34644	0.00929
2506.38207	0.00923
2505.41771	0.00926
2504.45334	0.00929
2503.48898	0.00922
2502.52462	0.00906
2501.56025	0.00899
2500.59589	0.00908
2499.63152	0.00916
2498.66716	0.00909
2497.7028	0.00896
2496.73843	0.00885
2495.77407	0.00889
2494.8097	0.00897
2493.84534	0.00886
2492.88098	0.00865
2491.91661	0.00851
2490.95225	0.00857
2489.98788	0.00866
2489.02352	0.00859
2488.05916	0.00841
2487.09479	0.00828
2486.13043	0.00829
2485.16606	0.0083
2484.2017	0.00814
2483.23734	0.00792
2482.27297	0.00787
2481.30861	0.008
2480.34424	0.00813
2479.37988	0.00803
2478.41552	0.00777
2477.45115	0.00761
2476.48679	0.00771
2475.52242	0.00782
2474.55806	0.00773
2473.5937	0.00747
2472.62933	0.00731
2471.66497	0.0074
2470.7006	0.00751
2469.73624	0.0074
2468.77187	0.00717
2467.80751	0.00703
2466.84315	0.00709
2465.87878	0.00717
2464.91442	0.00704
2463.95005	0.00683
2462.98569	0.00674
2462.02133	0.00687
2461.05696	0.00696
2460.0926	0.00683
2459.12823	0.00652
2458.16387	0.00636
2457.19951	0.00646
2456.23514	0.00658
2455.27078	0.00649
2454.30641	0.00623
2453.34205	0.00609
2452.37769	0.00625
2451.41332	0.00649
2450.44896	0.00649
2449.48459	0.00622
2448.52023	0.006
2447.55587	0.00611
2446.5915	0.00632
2445.62714	0.00625
2444.66277	0.00597
2443.69841	0.00581
2442.73405	0.00594
2441.76968	0.00612
2440.80532	0.00605
2439.84095	0.00576
2438.87659	0.00559
2437.91223	0.00562
2436.94786	0.00569
2435.9835	0.00556
2435.01913	0.0053
2434.05477	0.00519
2433.09041	0.00532
2432.12604	0.0055
2431.16168	0.00539
2430.19731	0.00511
2429.23295	0.00497
2428.26859	0.00513
2427.30422	0.00532
2426.33986	0.00525
2425.37549	0.00492
2424.41113	0.00473
2423.44677	0.00485
2422.4824	0.005
2421.51804	0.00494
2420.55367	0.00465
2419.58931	0.00449
2418.62495	0.00468
2417.66058	0.00486
2416.69622	0.00472
2415.73185	0.00435
2414.76749	0.00414
2413.80313	0.0043
2412.83876	0.00453
2411.8744	0.00452
2410.91003	0.00426
2409.94567	0.00412
2408.98131	0.00423
2408.01694	0.0044
2407.05258	0.00432
2406.08821	0.00411
2405.12385	0.00399
2404.15949	0.00413
2403.19512	0.00431
2402.23076	0.00426
2401.26639	0.00402
2400.30203	0.00391
2399.33767	0.00404
2398.3733	0.00422
2397.40894	0.00419
2396.44457	0.00397
2395.48021	0.00379
2394.51585	0.00391
2393.55148	0.00419
2392.58712	0.00422
2391.62275	0.00399
2390.65839	0.00378
2389.69403	0.00391
2388.72966	0.00409
2387.7653	0.00401
2386.80093	0.00367
2385.83657	0.00332
2384.87221	0.00311
2383.90784	0.00288
2382.94348	0.00225
2381.97911	0.00119
2381.01475	0
2380.05039	0
2379.08602	0
2378.12166	0
2377.15729	0
2376.19293	0
2375.22857	0
2374.2642	0
2373.29984	0
2372.33547	0
2371.37111	0
2370.40675	0
2369.44238	0
2368.47802	0
2367.51365	0
2366.54929	0
2365.58493	0
2364.62056	0
2363.6562	0
2362.69183	0
2361.72747	0
2360.76311	0
2359.79874	0
2358.83438	0
2357.87001	0
2356.90565	0
2355.94129	0
2354.97692	0
2354.01256	0
2353.04819	0
2352.08383	0
2351.11947	0
2350.1551	0
2349.19074	0
2348.22637	0
2347.26201	0
2346.29765	0
2345.33328	0
2344.36892	0
2343.40455	0
2342.44019	0
2341.47583	0
2340.51146	0
2339.5471	0
2338.58273	0
2337.61837	0
2336.65401	0
2335.68964	0
2334.72528	0
2333.76091	0
2332.79655	0
2331.83219	0
2330.86782	0
2329.90346	0
2328.93909	0
2327.97473	0
2327.01036	0
2326.046	0
2325.08164	0
2324.11727	0
2323.15291	0
2322.18854	0
2321.22418	0
2320.25982	0
2319.29545	0
2318.33109	0
2317.36672	0
2316.40236	0
2315.438	0
2314.47363	0
2313.50927	0
2312.5449	0
2311.58054	0
2310.61618	0
2309.65181	0
2308.68745	0
2307.72308	0
2306.75872	0
2305.79436	2.49066E-4
2304.82999	4.98132E-4
2303.86563	5.66059E-4
2302.90126	8.6041E-4
2301.9369	0.00134
2300.97254	0.00162
2300.00817	0.00165
2299.04381	0.00162
2298.07944	0.00173
2297.11508	0.00208
2296.15072	0.00237
2295.18635	0.0024
2294.22199	0.00238
2293.25762	0.00256
2292.29326	0.00294
2291.3289	0.00325
2290.36453	0.00335
2289.40017	0.00332
2288.4358	0.00343
2287.47144	0.0038
2286.50708	0.00415
2285.54271	0.00429
2284.57835	0.00428
2283.61398	0.00438
2282.64962	0.00456
2281.68526	0.00461
2280.72089	0.00442
2279.75653	0.00415
2278.79216	0.00405
2277.8278	0.00415
2276.86344	0.00425
2275.89907	0.00413
2274.93471	0.004
2273.97034	0.00403
2273.00598	0.00423
2272.04162	0.00442
2271.07725	0.00438
2270.11289	0.0042
2269.14852	0.00413
2268.18416	0.00434
2267.2198	0.0046
2266.25543	0.00465
2265.29107	0.00457
2264.3267	0.00461
2263.36234	0.00489
2262.39798	0.00519
2261.43361	0.00528
2260.46925	0.00524
2259.50488	0.0053
2258.54052	0.00555
2257.57616	0.00579
2256.61179	0.00582
2255.64743	0.00573
2254.68306	0.00574
2253.7187	0.00594
2252.75434	0.0062
2251.78997	0.00632
2250.82561	0.00625
2249.86124	0.00628
2248.89688	0.00649
2247.93252	0.00675
2246.96815	0.00685
2246.00379	0.00679
2245.03942	0.00678
2244.07506	0.00696
2243.1107	0.00719
2242.14633	0.00728
2241.18197	0.00725
2240.2176	0.0073
2239.25324	0.00748
2238.28888	0.00769
2237.32451	0.00778
2236.36015	0.00776
2235.39578	0.00774
2234.43142	0.0079
2233.46706	0.00811
2232.50269	0.00822
2231.53833	0.00819
2230.57396	0.00819
2229.6096	0.00834
2228.64524	0.0086
2227.68087	0.00876
2226.71651	0.00875
2225.75214	0.00879
2224.78778	0.00894
2223.82342	0.00919
2222.85905	0.00931
2221.89469	0.00927
2220.93032	0.00927
2219.96596	0.00941
2219.0016	0.00961
2218.03723	0.0097
2217.07287	0.00965
2216.1085	0.00958
2215.14414	0.00966
2214.17978	0.00985
2213.21541	0.01
2212.25105	0.00994
2211.28668	0.00987
2210.32232	0.00991
2209.35796	0.01008
2208.39359	0.0102
2207.42923	0.01023
2206.46486	0.01018
2205.5005	0.01021
2204.53614	0.01039
2203.57177	0.01057
2202.60741	0.01059
2201.64304	0.01053
2200.67868	0.01063
2199.71432	0.01085
2198.74995	0.01102
2197.78559	0.01098
2196.82122	0.0109
2195.85686	0.01098
2194.8925	0.01124
2193.92813	0.01149
2192.96377	0.01152
2191.9994	0.01143
2191.03504	0.01148
2190.07068	0.01171
2189.10631	0.01193
2188.14195	0.01196
2187.17758	0.01191
2186.21322	0.01199
2185.24885	0.01218
2184.28449	0.01236
2183.32013	0.0124
2182.35576	0.01235
2181.3914	0.01237
2180.42703	0.01254
2179.46267	0.01274
2178.49831	0.01282
2177.53394	0.01276
2176.56958	0.01274
2175.60521	0.01293
2174.64085	0.01313
2173.67649	0.01319
2172.71212	0.01312
2171.74776	0.01313
2170.78339	0.01333
2169.81903	0.01357
2168.85467	0.01365
2167.8903	0.0136
2166.92594	0.01361
2165.96157	0.01381
2164.99721	0.01403
2164.03285	0.01408
2163.06848	0.01407
2162.10412	0.01417
2161.13975	0.01433
2160.17539	0.01445
2159.21103	0.01446
2158.24666	0.01439
2157.2823	0.01438
2156.31793	0.01456
2155.35357	0.01479
2154.38921	0.01483
2153.42484	0.01474
2152.46048	0.01465
2151.49611	0.01474
2150.53175	0.01497
2149.56739	0.01508
2148.60302	0.01507
2147.63866	0.01508
2146.67429	0.01526
2145.70993	0.01553
2144.74557	0.01562
2143.7812	0.01549
2142.81684	0.01542
2141.85247	0.0156
2140.88811	0.01588
2139.92375	0.01602
2138.95938	0.01595
2137.99502	0.01596
2137.03065	0.01629
2136.06629	0.0166
2135.10193	0.01652
2134.13756	0.0162
2133.1732	0.01602
2132.20883	0.01611
2131.24447	0.01626
2130.28011	0.01625
2129.31574	0.01613
2128.35138	0.01603
2127.38701	0.01611
2126.42265	0.01625
2125.45829	0.01633
2124.49392	0.01622
2123.52956	0.01616
2122.56519	0.01623
2121.60083	0.01635
2120.63647	0.01631
2119.6721	0.01614
2118.70774	0.01606
2117.74337	0.01622
2116.77901	0.01653
2115.81465	0.01682
2114.85028	0.01685
2113.88592	0.01663
2112.92155	0.01654
2111.95719	0.01663
2110.99283	0.01673
2110.02846	0.01663
2109.0641	0.01654
2108.09973	0.01665
2107.13537	0.01683
2106.17101	0.01687
2105.20664	0.01678
2104.24228	0.01674
2103.27791	0.01687
2102.31355	0.01705
2101.34919	0.01714
2100.38482	0.01708
2099.42046	0.01706
2098.45609	0.01717
2097.49173	0.01736
2096.52737	0.01737
2095.563	0.01731
2094.59864	0.01731
2093.63427	0.01742
2092.66991	0.0176
2091.70555	0.01789
2090.74118	0.01832
2089.77682	0.01846
2088.81245	0.01824
2087.84809	0.01817
2086.88373	0.01814
2085.91936	0.01793
2084.955	0.01782
2083.99063	0.01794
2083.02627	0.01813
2082.06191	0.01819
2081.09754	0.01816
2080.13318	0.01819
2079.16881	0.01837
2078.20445	0.01851
2077.24009	0.01846
2076.27572	0.0184
2075.31136	0.01846
2074.34699	0.01865
2073.38263	0.01876
2072.41827	0.01871
2071.4539	0.01858
2070.48954	0.01854
2069.52517	0.01866
2068.56081	0.01886
2067.59645	0.01911
2066.63208	0.01976
2065.66772	0.02082
2064.70335	0.02113
2063.73899	0.02025
2062.77463	0.01934
2061.81026	0.01911
2060.8459	0.01926
2059.88153	0.01933
2058.91717	0.01919
2057.95281	0.01901
2056.98844	0.01892
2056.02408	0.01893
2055.05971	0.01903
2054.09535	0.01914
2053.13099	0.01911
2052.16662	0.01904
2051.20226	0.01905
2050.23789	0.01914
2049.27353	0.0192
2048.30917	0.01916
2047.3448	0.01912
2046.38044	0.01918
2045.41607	0.01935
2044.45171	0.01952
2043.48734	0.01968
2042.52298	0.02025
2041.55862	0.02102
2040.59425	0.02076
2039.62989	0.0198
2038.66552	0.0192
2037.70116	0.01901
2036.7368	0.01893
2035.77243	0.01899
2034.80807	0.01897
2033.8437	0.01884
2032.87934	0.01868
2031.91498	0.01867
2030.95061	0.01882
2029.98625	0.01886
2029.02188	0.01873
2028.05752	0.01859
2027.09316	0.01865
2026.12879	0.01873
2025.16443	0.01869
2024.20006	0.01866
2023.2357	0.01867
2022.27134	0.01862
2021.30697	0.01859
2020.34261	0.01892
2019.37824	0.01973
2018.41388	0.02094
2017.44952	0.02212
2016.48515	0.02194
2015.52079	0.02015
2014.55642	0.01857
2013.59206	0.01807
2012.6277	0.01815
2011.66333	0.01833
2010.69897	0.0184
2009.7346	0.01837
2008.77024	0.01846
2007.80588	0.01867
2006.84151	0.0187
2005.87715	0.01848
2004.91278	0.01819
2003.94842	0.01807
2002.98406	0.01813
2002.01969	0.01828
2001.05533	0.01827
2000.09096	0.01818
1999.1266	0.01817
1998.16224	0.01818
1997.19787	0.0181
1996.23351	0.01792
1995.26914	0.01776
1994.30478	0.01853
1993.34042	0.02126
1992.37605	0.0241
1991.41169	0.02314
1990.44732	0.02015
1989.48296	0.0193
1988.5186	0.01993
1987.55423	0.01938
1986.58987	0.01797
1985.6255	0.01706
1984.66114	0.01678
1983.69678	0.01687
1982.73241	0.01699
1981.76805	0.01686
1980.80368	0.01646
1979.83932	0.0162
1978.87496	0.01631
1977.91059	0.01655
1976.94623	0.01652
1975.98186	0.01623
1975.0175	0.01604
1974.05314	0.01609
1973.08877	0.01625
1972.12441	0.01621
1971.16004	0.016
1970.19568	0.01601
1969.23132	0.01707
1968.26695	0.01976
1967.30259	0.02196
1966.33822	0.02083
1965.37386	0.01796
1964.4095	0.01623
1963.44513	0.01584
1962.48077	0.01592
1961.5164	0.01588
1960.55204	0.01556
1959.58768	0.01527
1958.62331	0.01528
1957.65895	0.01527
1956.69458	0.01531
1955.73022	0.01567
1954.76586	0.01589
1953.80149	0.01548
1952.83713	0.01484
1951.87276	0.01438
1950.9084	0.01419
1949.94404	0.01434
1948.97967	0.01463
1948.01531	0.01501
1947.05094	0.01593
1946.08658	0.01687
1945.12222	0.01715
1944.15785	0.01845
1943.19349	0.02199
1942.22912	0.0229
1941.26476	0.01884
1940.3004	0.01531
1939.33603	0.0142
1938.37167	0.01389
1937.4073	0.01352
1936.44294	0.01328
1935.47858	0.01344
1934.51421	0.01389
1933.54985	0.01422
1932.58548	0.01394
1931.62112	0.01346
1930.65676	0.01343
1929.69239	0.01361
1928.72803	0.01357
1927.76366	0.01329
1926.7993	0.01317
1925.83494	0.01359
1924.87057	0.01541
1923.90621	0.01953
1922.94184	0.02281
1921.97748	0.02058
1921.01312	0.01656
1920.04875	0.01567
1919.08439	0.01832
1918.12002	0.02094
1917.15566	0.01894
1916.1913	0.01545
1915.22693	0.01388
1914.26257	0.01338
1913.2982	0.01289
1912.33384	0.01301
1911.36948	0.01485
1910.40511	0.01766
1909.44075	0.01867
1908.47638	0.01748
1907.51202	0.01563
1906.54766	0.01402
1905.58329	0.01342
1904.61893	0.0134
1903.65456	0.01301
1902.6902	0.01265
1901.72583	0.01266
1900.76147	0.01268
1899.79711	0.01246
1898.83274	0.01222
1897.86838	0.0124
1896.90401	0.01378
1895.93965	0.01647
1894.97529	0.01756
1894.01092	0.01548
1893.04656	0.01334
1892.08219	0.0133
1891.11783	0.0157
1890.15347	0.01965
1889.1891	0.02025
1888.22474	0.01643
1887.26037	0.01363
1886.29601	0.01343
1885.33165	0.01415
1884.36728	0.01399
1883.40292	0.01291
1882.43855	0.01225
1881.47419	0.01224
1880.50983	0.0124
1879.54546	0.01239
1878.5811	0.01209
1877.61673	0.01193
1876.65237	0.01206
1875.68801	0.01196
1874.72364	0.0116
1873.75928	0.01154
1872.79491	0.01231
1871.83055	0.0145
1870.86619	0.01866
1869.90182	0.0251
1868.93746	0.03069
1867.97309	0.03001
1867.00873	0.02504
1866.04437	0.01946
1865.08	0.015
1864.11564	0.01279
1863.15127	0.01266
1862.18691	0.01347
1861.22255	0.01382
1860.25818	0.01352
1859.29382	0.01352
1858.32945	0.0137
1857.36509	0.01322
1856.40073	0.01248
1855.43636	0.01196
1854.472	0.01182
1853.50763	0.01215
1852.54327	0.0126
1851.57891	0.01271
1850.61454	0.01277
1849.65018	0.01425
1848.68581	0.01781
1847.72145	0.02067
1846.75709	0.02116
1845.79272	0.02324
1844.82836	0.02886
1843.86399	0.0307
1842.89963	0.02536
1841.93527	0.01985
1840.9709	0.01617
1840.00654	0.01453
1839.04217	0.01522
1838.07781	0.01771
1837.11345	0.01923
1836.14908	0.01775
1835.18472	0.01603
1834.22035	0.01629
1833.25599	0.01738
1832.29163	0.0187
1831.32726	0.02289
1830.3629	0.03161
1829.39853	0.03499
1828.43417	0.02796
1827.46981	0.02263
1826.50544	0.02355
1825.54108	0.02788
1824.57671	0.02802
1823.61235	0.02466
1822.64799	0.0224
1821.68362	0.02102
1820.71926	0.02011
1819.75489	0.02029
1818.79053	0.02167
1817.82617	0.02334
1816.8618	0.0236
1815.89744	0.02293
1814.93307	0.02314
1813.96871	0.02493
1813.00435	0.02822
1812.03998	0.03251
1811.07562	0.03601
1810.11125	0.036
1809.14689	0.03457
1808.18253	0.03486
1807.21816	0.03541
1806.2538	0.03551
1805.28943	0.03673
1804.32507	0.03952
1803.36071	0.04438
1802.39634	0.05076
1801.43198	0.05541
1800.46761	0.05871
1799.50325	0.06112
1798.53889	0.06103
1797.57452	0.06279
1796.61016	0.069
1795.64579	0.07464
1794.68143	0.07719
1793.71707	0.08289
1792.7527	0.09526
1791.78834	0.10431
1790.82397	0.10418
1789.85961	0.1024
1788.89525	0.10359
1787.93088	0.10864
1786.96652	0.11673
1786.00215	0.12834
1785.03779	0.14337
1784.07343	0.15697
1783.10906	0.16882
1782.1447	0.18478
1781.18033	0.2085
1780.21597	0.23584
1779.25161	0.25948
1778.28724	0.28257
1777.32288	0.30902
1776.35851	0.34028
1775.39415	0.37136
1774.42979	0.39126
1773.46542	0.4024
1772.50106	0.4022
1771.53669	0.37106
1770.57233	0.33193
1769.60797	0.30326
1768.6436	0.27597
1767.67924	0.24265
1766.71487	0.21513
1765.75051	0.19632
1764.78615	0.18243
1763.82178	0.17379
1762.85742	0.17072
1761.89305	0.16726
1760.92869	0.15672
1759.96432	0.1471
1758.99996	0.14274
1758.0356	0.14283
1757.07123	0.14364
1756.10687	0.14036
1755.1425	0.13661
1754.17814	0.13811
1753.21378	0.14592
1752.24941	0.16113
1751.28505	0.18536
1750.32068	0.20376
1749.35632	0.21017
1748.39196	0.20813
1747.42759	0.19787
1746.46323	0.18769
1745.49886	0.18373
1744.5345	0.18558
1743.57014	0.18504
1742.60577	0.17558
1741.64141	0.16806
1740.67704	0.17109
1739.71268	0.18238
1738.74832	0.18876
1737.78395	0.1917
1736.81959	0.1964
1735.85522	0.20339
1734.89086	0.21426
1733.9265	0.21284
1732.96213	0.18568
1731.99777	0.16605
1731.0334	0.15464
1730.06904	0.14231
1729.10468	0.12529
1728.14031	0.11142
1727.17595	0.10242
1726.21158	0.096
1725.24722	0.09201
1724.28286	0.09056
1723.31849	0.08849
1722.35413	0.08391
1721.38976	0.07998
1720.4254	0.07978
1719.46104	0.0857
1718.49667	0.0999
1717.53231	0.10653
1716.56794	0.09843
1715.60358	0.0935
1714.63922	0.08735
1713.67485	0.07597
1712.71049	0.06617
1711.74612	0.06184
1710.78176	0.06177
1709.8174	0.06098
1708.85303	0.05902
1707.88867	0.06108
1706.9243	0.06811
1705.95994	0.07335
1704.99558	0.07246
1704.03121	0.06844
1703.06685	0.06541
1702.10248	0.06649
1701.13812	0.07433
1700.17376	0.08727
1699.20939	0.08351
1698.24503	0.07995
1697.28066	0.0823
1696.3163	0.08721
1695.35194	0.08053
1694.38757	0.06942
1693.42321	0.06313
1692.45884	0.06128
1691.49448	0.06393
1690.53012	0.07013
1689.56575	0.07669
1688.60139	0.08035
1687.63702	0.08118
1686.67266	0.08306
1685.7083	0.09179
1684.74393	0.11698
1683.77957	0.13009
1682.8152	0.11371
1681.85084	0.10817
1680.88648	0.11308
1679.92211	0.1176
1678.95775	0.11302
1677.99338	0.10731
1677.02902	0.10643
1676.06466	0.11066
1675.10029	0.11295
1674.13593	0.10735
1673.17156	0.10491
1672.2072	0.10935
1671.24284	0.11715
1670.27847	0.12452
1669.31411	0.13214
1668.34974	0.13066
1667.38538	0.12444
1666.42102	0.12389
1665.45665	0.1302
1664.49229	0.14171
1663.52792	0.16132
1662.56356	0.19003
1661.5992	0.2125
1660.63483	0.23137
1659.67047	0.25683
1658.7061	0.28777
1657.74174	0.31756
1656.77738	0.33896
1655.81301	0.35082
1654.84865	0.35899
1653.88428	0.36184
1652.91992	0.29262
1651.95556	0.23313
1650.99119	0.20949
1650.02683	0.19437
1649.06246	0.18729
1648.0981	0.18872
1647.13374	0.18859
1646.16937	0.17186
1645.20501	0.15071
1644.24064	0.13865
1643.27628	0.13341
1642.31192	0.13162
1641.34755	0.13121
1640.38319	0.13156
1639.41882	0.1337
1638.45446	0.14007
1637.4901	0.15113
1636.52573	0.16303
1635.56137	0.17056
1634.597	0.1649
1633.63264	0.15912
1632.66828	0.16021
1631.70391	0.16792
1630.73955	0.18098
1629.77518	0.19815
1628.81082	0.22094
1627.84646	0.24855
1626.88209	0.26619
1625.91773	0.27204
1624.95336	0.27513
1623.989	0.27286
1623.02464	0.25015
1622.06027	0.21859
1621.09591	0.19268
1620.13154	0.1716
1619.16718	0.15714
1618.20281	0.15075
1617.23845	0.14785
1616.27409	0.13279
1615.30972	0.11411
1614.34536	0.10165
1613.38099	0.09289
1612.41663	0.08645
1611.45227	0.08212
1610.4879	0.08056
1609.52354	0.07938
1608.55917	0.07642
1607.59481	0.07306
1606.63045	0.06915
1605.66608	0.06472
1604.70172	0.06254
1603.73735	0.06262
1602.77299	0.06182
1601.80863	0.05945
1600.84426	0.0567
1599.8799	0.05432
1598.91553	0.05288
1597.95117	0.05289
1596.98681	0.05427
1596.02244	0.05658
1595.05808	0.05907
1594.09371	0.06033
1593.12935	0.06104
1592.16499	0.06341
1591.20062	0.06724
1590.23626	0.07018
1589.27189	0.07029
1588.30753	0.06746
1587.34317	0.06317
1586.3788	0.05875
1585.41444	0.05487
1584.45007	0.0521
1583.48571	0.05053
1582.52135	0.04993
1581.55698	0.05013
1580.59262	0.05132
1579.62825	0.05416
1578.66389	0.05999
1577.69953	0.06995
1576.73516	0.08497
1575.7708	0.09244
1574.80643	0.08707
1573.84207	0.08461
1572.87771	0.08788
1571.91334	0.09537
1570.94898	0.10719
1569.98461	0.12655
1569.02025	0.13857
1568.05589	0.13399
1567.09152	0.13086
1566.12716	0.1333
1565.16279	0.13708
1564.19843	0.13528
1563.23407	0.13104
1562.2697	0.13091
1561.30534	0.1363
1560.34097	0.15119
1559.37661	0.18498
1558.41225	0.1744
1557.44788	0.13733
1556.48352	0.12236
1555.51915	0.11797
1554.55479	0.11537
1553.59043	0.10612
1552.62606	0.09765
1551.6617	0.09676
1550.69733	0.10405
1549.73297	0.10963
1548.76861	0.1041
1547.80424	0.09845
1546.83988	0.09892
1545.87551	0.10598
1544.91115	0.11468
1543.94679	0.1168
1542.98242	0.11742
1542.01806	0.1211
1541.05369	0.12701
1540.08933	0.13506
1539.12497	0.11926
1538.1606	0.09261
1537.19624	0.07941
1536.23187	0.07501
1535.26751	0.07736
1534.30315	0.08524
1533.33878	0.08964
1532.37442	0.08161
1531.41005	0.07137
1530.44569	0.06505
1529.48133	0.0657
1528.51696	0.07238
1527.5526	0.07755
1526.58823	0.07889
1525.62387	0.08014
1524.65951	0.07886
1523.69514	0.07858
1522.73078	0.08636
1521.76641	0.10054
1520.80205	0.09455
1519.83769	0.07628
1518.87332	0.06912
1517.90896	0.07436
1516.94459	0.08346
1515.98023	0.0763
1515.01587	0.06398
1514.0515	0.057
1513.08714	0.05658
1512.12277	0.05928
1511.15841	0.0618
1510.19405	0.06795
1509.22968	0.08043
1508.26532	0.09745
1507.30095	0.11636
1506.33659	0.10633
1505.37223	0.07407
1504.40786	0.05735
1503.4435	0.05052
1502.47913	0.04938
1501.51477	0.05025
1500.55041	0.0517
1499.58604	0.05619
1498.62168	0.06185
1497.65731	0.06424
1496.69295	0.06613
1495.72859	0.0631
1494.76422	0.05572
1493.79986	0.0516
1492.83549	0.05244
1491.87113	0.05947
1490.90677	0.07532
1489.9424	0.09049
1488.97804	0.08817
1488.01367	0.08307
1487.04931	0.08173
1486.08495	0.07984
1485.12058	0.07872
1484.15622	0.08103
1483.19185	0.08656
1482.22749	0.09425
1481.26312	0.10067
1480.29876	0.10151
1479.3344	0.09978
1478.37003	0.10036
1477.40567	0.10535
1476.4413	0.11393
1475.47694	0.11965
1474.51258	0.12483
1473.54821	0.13762
1472.58385	0.15115
1471.61948	0.14639
1470.65512	0.13773
1469.69076	0.13508
1468.72639	0.13742
1467.76203	0.14236
1466.79766	0.14915
1465.8333	0.15905
1464.86894	0.1687
1463.90457	0.16835
1462.94021	0.1652
1461.97584	0.16595
1461.01148	0.17053
1460.04712	0.17952
1459.08275	0.19411
1458.11839	0.20994
1457.15402	0.21301
1456.18966	0.1995
1455.2253	0.18363
1454.26093	0.17077
1453.29657	0.16377
1452.3322	0.16141
1451.36784	0.15871
1450.40348	0.15545
1449.43911	0.15559
1448.47475	0.15911
1447.51038	0.15895
1446.54602	0.15362
1445.58166	0.14909
1444.61729	0.14655
1443.65293	0.14542
1442.68856	0.14568
1441.7242	0.14667
1440.75984	0.14729
1439.79547	0.14782
1438.83111	0.15012
1437.86674	0.15647
1436.90238	0.1661
1435.93802	0.16451
1434.97365	0.15609
1434.00929	0.15183
1433.04492	0.15113
1432.08056	0.15116
1431.1162	0.1527
1430.15183	0.15522
1429.18747	0.15409
1428.2231	0.15071
1427.25874	0.14884
1426.29438	0.14912
1425.33001	0.15287
1424.36565	0.15961
1423.40128	0.16156
1422.43692	0.15824
1421.47256	0.15817
1420.50819	0.16439
1419.54383	0.17647
1418.57946	0.18251
1417.6151	0.17929
1416.65074	0.17407
1415.68637	0.16846
1414.72201	0.16476
1413.75764	0.16463
1412.79328	0.16716
1411.82892	0.16913
1410.86455	0.16819
1409.90019	0.16537
1408.93582	0.16252
1407.97146	0.16038
1407.0071	0.16
1406.04273	0.1627
1405.07837	0.16612
1404.114	0.16503
1403.14964	0.16264
1402.18528	0.16331
1401.22091	0.16745
1400.25655	0.17577
1399.29218	0.18725
1398.32782	0.193
1397.36346	0.19251
1396.39909	0.1945
1395.43473	0.20092
1394.47036	0.20378
1393.506	0.1995
1392.54164	0.19578
1391.57727	0.19505
1390.61291	0.19548
1389.64854	0.19664
1388.68418	0.20083
1387.71982	0.20777
1386.75545	0.20956
1385.79109	0.20545
1384.82672	0.20291
1383.86236	0.20309
1382.898	0.20382
1381.93363	0.20442
1380.96927	0.20631
1380.0049	0.21006
1379.04054	0.21396
1378.07618	0.21539
1377.11181	0.21472
1376.14745	0.21593
1375.18308	0.22041
1374.21872	0.22236
1373.25436	0.21721
1372.28999	0.21104
1371.32563	0.20796
1370.36126	0.20745
1369.3969	0.2072
1368.43254	0.20374
1367.46817	0.19701
1366.50381	0.19148
1365.53944	0.18892
1364.57508	0.18988
1363.61072	0.19347
1362.64635	0.19289
1361.68199	0.18569
1360.71762	0.17743
1359.75326	0.17086
1358.7889	0.16642
1357.82453	0.16314
1356.86017	0.16076
1355.8958	0.16025
1354.93144	0.16005
1353.96708	0.15779
1353.00271	0.15492
1352.03835	0.15358
1351.07398	0.15382
1350.10962	0.15474
1349.14526	0.15485
1348.18089	0.15389
1347.21653	0.15346
1346.25216	0.15425
1345.2878	0.15538
1344.32344	0.15621
1343.35907	0.15698
1342.39471	0.15921
1341.43034	0.16527
1340.46598	0.17433
1339.50161	0.17898
1338.53725	0.17595
1337.57289	0.17189
1336.60852	0.16963
1335.64416	0.16749
1334.67979	0.16543
1333.71543	0.16458
1332.75107	0.16467
1331.7867	0.16524
1330.82234	0.16596
1329.85797	0.16639
1328.89361	0.16673
1327.92925	0.16763
1326.96488	0.16922
1326.00052	0.17106
1325.03615	0.1732
1324.07179	0.17617
1323.10743	0.18004
1322.14306	0.18458
1321.1787	0.18955
1320.21433	0.19414
1319.24997	0.19613
1318.28561	0.19406
1317.32124	0.18862
1316.35688	0.18091
1315.39251	0.1725
1314.42815	0.16526
1313.46379	0.15923
1312.49942	0.15288
1311.53506	0.14581
1310.57069	0.13978
1309.60633	0.13608
1308.64197	0.13424
1307.6776	0.13279
1306.71324	0.13109
1305.74887	0.12962
1304.78451	0.12885
1303.82015	0.12884
1302.85578	0.12914
1301.89142	0.12912
1300.92705	0.12862
1299.96269	0.12825
1298.99833	0.12836
1298.03396	0.12878
1297.0696	0.12865
1296.10523	0.12757
1295.14087	0.12628
1294.17651	0.12563
1293.21214	0.12528
1292.24778	0.12453
1291.28341	0.12355
1290.31905	0.12276
1289.35469	0.1226
1288.39032	0.12282
1287.42596	0.12203
1286.46159	0.12023
1285.49723	0.1192
1284.53287	0.11974
1283.5685	0.12096
1282.60414	0.1221
1281.63977	0.12342
1280.67541	0.12539
1279.71105	0.12773
1278.74668	0.12938
1277.78232	0.12954
1276.81795	0.12838
1275.85359	0.12692
1274.88923	0.12581
1273.92486	0.12483
1272.9605	0.12376
1271.99613	0.12253
1271.03177	0.12154
1270.06741	0.12152
1269.10304	0.1222
1268.13868	0.12295
1267.17431	0.1242
1266.20995	0.12671
1265.24559	0.13005
1264.28122	0.13299
1263.31686	0.13456
1262.35249	0.13504
1261.38813	0.1355
1260.42377	0.13554
1259.4594	0.13376
1258.49504	0.13037
1257.53067	0.1269
1256.56631	0.12449
1255.60195	0.12336
1254.63758	0.12265
1253.67322	0.12145
1252.70885	0.12004
1251.74449	0.1193
1250.78013	0.1194
1249.81576	0.11925
1248.8514	0.11811
1247.88703	0.11647
1246.92267	0.1155
1245.95831	0.11546
1244.99394	0.11553
1244.02958	0.11468
1243.06521	0.11316
1242.10085	0.11227
1241.13649	0.1124
1240.17212	0.11244
1239.20776	0.11165
1238.24339	0.11056
1237.27903	0.11032
1236.31467	0.11112
1235.3503	0.11194
1234.38594	0.112
1233.42157	0.11184
1232.45721	0.11283
1231.49285	0.11517
1230.52848	0.11792
1229.56412	0.12045
1228.59975	0.12349
1227.63539	0.12821
1226.67103	0.13431
1225.70666	0.13985
1224.7423	0.14262
1223.77793	0.14219
1222.81357	0.1396
1221.84921	0.13546
1220.88484	0.12948
1219.92048	0.12204
1218.95611	0.11457
1217.99175	0.10858
1217.02739	0.10442
1216.06302	0.10112
1215.09866	0.09779
1214.13429	0.09501
1213.16993	0.0939
1212.20557	0.09416
1211.2412	0.09429
1210.27684	0.09359
1209.31247	0.09288
1208.34811	0.09318
1207.38375	0.0944
1206.41938	0.09517
1205.45502	0.09461
1204.49065	0.0935
1203.52629	0.09317
1202.56193	0.09382
1201.59756	0.09418
1200.6332	0.09343
1199.66883	0.09239
1198.70447	0.09246
1197.7401	0.09376
1196.77574	0.0951
1195.81138	0.09577
1194.84701	0.09659
1193.88265	0.09875
1192.91828	0.10211
1191.95392	0.10523
1190.98956	0.10744
1190.02519	0.10983
1189.06083	0.11406
1188.09646	0.12029
1187.1321	0.12687
1186.16774	0.13255
1185.20337	0.13848
1184.23901	0.14651
1183.27464	0.15637
1182.31028	0.16599
1181.34592	0.17396
1180.38155	0.18091
1179.41719	0.18855
1178.45282	0.19724
1177.48846	0.20588
1176.5241	0.214
1175.55973	0.22262
1174.59537	0.23297
1173.631	0.24501
1172.66664	0.25792
1171.70228	0.27147
1170.73791	0.28662
1169.77355	0.30449
1168.80918	0.32477
1167.84482	0.34548
1166.88046	0.36509
1165.91609	0.38338
1164.95173	0.40018
1163.98736	0.41479
1163.023	0.42674
1162.05864	0.43656
1161.09427	0.44584
1160.12991	0.45615
1159.16554	0.46717
1158.20118	0.47747
1157.23682	0.48606
1156.27245	0.49289
1155.30809	0.49813
1154.34372	0.50143
1153.37936	0.50271
1152.415	0.50301
1151.45063	0.50386
1150.48627	0.50504
1149.5219	0.50339
1148.55754	0.49529
1147.59318	0.48074
1146.62881	0.46374
1145.66445	0.44853
1144.70008	0.43657
1143.73572	0.42679
1142.77136	0.41836
1141.80699	0.41188
1140.84263	0.40807
1139.87826	0.40701
1138.9139	0.40805
1137.94954	0.41095
1136.98517	0.41655
1136.02081	0.42581
1135.05644	0.43878
1134.09208	0.45431
1133.12772	0.47111
1132.16335	0.48759
1131.19899	0.50155
1130.23462	0.51034
1129.27026	0.51218
1128.3059	0.50727
1127.34153	0.49784
1126.37717	0.48686
1125.4128	0.47611
1124.44844	0.46593
1123.48408	0.45632
1122.51971	0.44791
1121.55535	0.44168
1120.59098	0.43773
1119.62662	0.43538
1118.66226	0.43433
1117.69789	0.43514
1116.73353	0.43855
1115.76916	0.4444
1114.8048	0.45133
1113.84044	0.45787
1112.87607	0.46338
1111.91171	0.46756
1110.94734	0.4701
1109.98298	0.47064
1109.01862	0.46957
1108.05425	0.46806
1107.08989	0.46715
1106.12552	0.46718
1105.16116	0.46771
1104.1968	0.46828
1103.23243	0.46906
1102.26807	0.47068
1101.3037	0.47316
1100.33934	0.4761
1099.37498	0.47932
1098.41061	0.4831
1097.44625	0.48809
1096.48188	0.49458
1095.51752	0.50224
1094.55316	0.51061
1093.58879	0.51987
1092.62443	0.53045
1091.66006	0.54227
1090.6957	0.55475
1089.73134	0.56727
1088.76697	0.57934
1087.80261	0.59083
1086.83824	0.60172
1085.87388	0.61149
1084.90952	0.6191
1083.94515	0.62388
1082.98079	0.62565
1082.01642	0.62409
1081.05206	0.61885
1080.0877	0.61005
1079.12333	0.59786
1078.15897	0.5827
1077.1946	0.56598
1076.23024	0.549
1075.26588	0.53249
1074.30151	0.51743
1073.33715	0.50509
1072.37278	0.49646
1071.40842	0.49201
1070.44406	0.49143
1069.47969	0.49382
1068.51533	0.49873
1067.55096	0.50628
1066.5866	0.51628
1065.62224	0.52759
1064.65787	0.53941
1063.69351	0.55193
1062.72914	0.5657
1061.76478	0.5806
1060.80042	0.59588
1059.83605	0.61102
1058.87169	0.62604
1057.90732	0.64149
1056.94296	0.65764
1055.97859	0.67403
1055.01423	0.69007
1054.04987	0.70607
1053.0855	0.72281
1052.12114	0.74067
1051.15677	0.75949
1050.19241	0.7788
1049.22805	0.79855
1048.26368	0.81897
1047.29932	0.83922
1046.33495	0.85692
1045.37059	0.86994
1044.40623	0.87943
1043.44186	0.88908
1042.4775	0.90214
1041.51313	0.91922
1040.54877	0.93874
1039.58441	0.95835
1038.62004	0.97569
1037.65568	0.98905
1036.69131	0.99725
1035.72695	1
1034.76259	0.99849
1033.79822	0.99506
1032.83386	0.99115
1031.86949	0.98574
1030.90513	0.97662
1029.94077	0.96319
1028.9764	0.9477
1028.01204	0.93227
1027.04767	0.91666
1026.08331	0.89949
1025.11895	0.88027
1024.15458	0.86019
1023.19022	0.84051
1022.22585	0.82071
1021.26149	0.79933
1020.29713	0.77626
1019.33276	0.75341
1018.3684	0.73248
1017.40403	0.71319
1016.43967	0.69415
1015.47531	0.67524
1014.51094	0.65791
1013.54658	0.64341
1012.58221	0.63083
1011.61785	0.61789
1010.65349	0.60368
1009.68912	0.58956
1008.72476	0.57714
1007.76039	0.56572
1006.79603	0.55293
1005.83167	0.53788
1004.8673	0.52257
1003.90294	0.50897
1002.93857	0.49608
1001.97421	0.48152
1001.00985	0.46485
1000.04548	0.44824
999.08112	0.43379
998.11675	0.42092
997.15239	0.4074
996.18803	0.39314
995.22366	0.38103
994.2593	0.37363
993.29493	0.37016
992.33057	0.36768
991.36621	0.36469
990.40184	0.3619
989.43748	0.35933
988.47311	0.35407
987.50875	0.34247
986.54439	0.32454
985.58002	0.30442
984.61566	0.28586
983.65129	0.26867
982.68693	0.25047
981.72257	0.23109
980.7582	0.2137
979.79384	0.20068
978.82947	0.19022
977.86511	0.17874
976.90075	0.16565
975.93638	0.15401
974.97202	0.1461
974.00765	0.13999
973.04329	0.13213
972.07893	0.12217
971.11456	0.11346
970.1502	0.10851
969.18583	0.10551
968.22147	0.10115
967.25711	0.09555
966.29274	0.09236
965.32838	0.0934
964.36401	0.09517
963.39965	0.09266
962.43529	0.08596
961.47092	0.08001
960.50656	0.07823
959.54219	0.07876
958.57783	0.07807
957.61347	0.07637
956.6491	0.07736
955.68474	0.0826
954.72037	0.08889
953.75601	0.09206
952.79165	0.09252
951.82728	0.09451
950.86292	0.10031
949.89855	0.10697
948.93419	0.11066
947.96983	0.11168
947.00546	0.11404
946.0411	0.11948
945.07673	0.12485
944.11237	0.12606
943.14801	0.12331
942.18364	0.12056
941.21928	0.12011
940.25491	0.11953
939.29055	0.11554
938.32619	0.10917
937.36182	0.1046
936.39746	0.10389
935.43309	0.10413
934.46873	0.10147
933.50437	0.09656
932.54	0.09366
931.57564	0.09454
930.61127	0.09594
929.64691	0.09409
928.68255	0.0898
927.71818	0.08717
926.75382	0.08755
925.78945	0.08715
924.82509	0.08233
923.86073	0.07461
922.89636	0.06869
921.932	0.06631
920.96763	0.06421
920.00327	0.05897
919.03891	0.05192
918.07454	0.04737
917.11018	0.04681
916.14581	0.04654
915.18145	0.04278
914.21708	0.03691
913.25272	0.03352
912.28836	0.03405
911.32399	0.03464
910.35963	0.03148
909.39526	0.02612
908.4309	0.02317
907.46654	0.02405
906.50217	0.02501
905.53781	0.02248
904.57344	0.01809
903.60908	0.01622
902.64472	0.01813
901.68035	0.01999
900.71599	0.01839
899.75162	0.01498
898.78726	0.01422
897.8229	0.01698
896.85853	0.0192
895.89417	0.01755
894.9298	0.01399
893.96544	0.01305
893.00108	0.01553
892.03671	0.01746
891.07235	0.01566
890.10798	0.01201
889.14362	0.0108
888.17926	0.01279
887.21489	0.01422
886.25053	0.01215
885.28616	0.00884
884.3218	0.00883
883.35744	0.01256
882.39307	0.01583
881.42871	0.01567
880.46434	0.01399
879.49998	0.01441
878.53562	0.01709
877.57125	0.01865
876.60689	0.01683
875.64252	0.01436
874.67816	0.01533
873.7138	0.01974
872.74943	0.02355
871.78507	0.02425
870.8207	0.02428
869.85634	0.02753
868.89198	0.03383
867.92761	0.0391
866.96325	0.04118
865.99888	0.04276
865.03452	0.04778
864.07016	0.05601
863.10579	0.0637
862.14143	0.06909
861.17706	0.07466
860.2127	0.08326
859.24834	0.09299
858.28397	0.09827
857.31961	0.09633
856.35524	0.09056
855.39088	0.08618
854.42652	0.08421
853.46215	0.08152
852.49779	0.07635
851.53342	0.07104
850.56906	0.06893
849.6047	0.06949
848.64033	0.06897
847.67597	0.06566
846.7116	0.06221
845.74724	0.06179
844.78288	0.06349
843.81851	0.06322
842.85415	0.05935
841.88978	0.05473
840.92542	0.05263
839.96106	0.05232
838.99669	0.05023
838.03233	0.04518
837.06796	0.04014
836.1036	0.03791
835.13924	0.03735
834.17487	0.03495
833.21051	0.02988
832.24614	0.02527
831.28178	0.024
830.31742	0.02492
829.35305	0.0243
828.38869	0.02114
827.42432	0.01846
826.45996	0.01902
825.4956	0.02134
824.53123	0.0219
823.56687	0.01996
822.6025	0.01836
821.63814	0.01945
820.67378	0.02175
819.70941	0.02203
818.74505	0.02006
817.78068	0.01908
816.81632	0.02117
815.85196	0.0242
814.88759	0.02497
813.92323	0.02365
812.95886	0.02325
811.9945	0.02554
811.03014	0.02864
810.06577	0.02981
809.10141	0.02929
808.13704	0.03018
807.17268	0.03418
806.20832	0.03891
805.24395	0.04125
804.27959	0.04114
803.31522	0.04085
802.35086	0.04153
801.3865	0.04179
800.42213	0.04004
799.45777	0.03725
798.4934	0.03598
797.52904	0.03699
796.56468	0.03815
795.60031	0.0375
794.63595	0.03587
793.67158	0.03576
792.70722	0.03762
791.74286	0.039
790.77849	0.03794
789.81413	0.03589
788.84976	0.03548
787.8854	0.03692
786.92104	0.03804
785.95667	0.03714
784.99231	0.03529
784.02794	0.03487
783.06358	0.0363
782.09922	0.03744
781.13485	0.03731
780.17049	0.03772
779.20612	0.04072
778.24176	0.04599
777.2774	0.05145
776.31303	0.05616
775.34867	0.06134
774.3843	0.06807
773.41994	0.07462
772.45557	0.0774
771.49121	0.07556
770.52685	0.072
769.56248	0.06981
768.59812	0.06925
767.63375	0.06875
766.66939	0.06789
765.70503	0.06823
764.74066	0.07106
763.7763	0.07518
762.81193	0.07833
761.84757	0.08028
760.88321	0.08291
759.91884	0.08757
758.95448	0.09298
757.99011	0.09667
757.02575	0.09822
756.06139	0.09934
755.09702	0.10058
754.13266	0.09952
753.16829	0.09426
752.20393	0.08621
751.23957	0.07904
750.2752	0.07477
749.31084	0.07229
748.34647	0.06948
747.38211	0.06624
746.41775	0.06435
745.45338	0.06439
744.48902	0.06434
743.52465	0.06228
742.56029	0.0591
741.59593	0.0571
740.63156	0.05681
739.6672	0.0565
738.70283	0.05484
737.73847	0.05316
736.77411	0.05362
735.80974	0.05655
734.84538	0.06033
733.88101	0.06325
732.91665	0.06513
731.95229	0.06689
730.98792	0.06841
730.02356	0.06836
729.05919	0.0664
728.09483	0.06441
727.13047	0.06411
726.1661	0.06524
725.20174	0.06578
724.23737	0.06466
723.27301	0.0634
722.30865	0.06368
721.34428	0.06531
720.37992	0.06721
719.41555	0.06916
718.45119	0.07184
717.48683	0.07576
716.52246	0.08006
715.5581	0.08313
714.59373	0.08457
713.62937	0.0858
712.66501	0.08808
711.70064	0.09075
710.73628	0.09212
709.77191	0.09209
708.80755	0.09249
707.84319	0.09417
706.87882	0.0959
705.91446	0.09604
704.95009	0.0945
703.98573	0.09307
703.02137	0.09296
702.057	0.09307
701.09264	0.09162
700.12827	0.08881
699.16391	0.08678
698.19955	0.08609
697.23518	0.08468
696.27082	0.08135
695.30645	0.07771
694.34209	0.07591
693.37773	0.07595
692.41336	0.07587
691.449	0.0744
690.48463	0.07259
689.52027	0.07246
688.55591	0.07372
687.59154	0.07393
686.62718	0.07201
685.66281	0.06989
684.69845	0.06981
683.73409	0.07148
682.76972	0.07231
681.80536	0.07098
680.84099	0.06948
679.87663	0.07011
678.91227	0.07223
677.9479	0.07325
676.98354	0.07253
676.01917	0.07187
675.05481	0.07303
674.09045	0.07561
673.12608	0.07727
672.16172	0.07685
671.19735	0.07584
670.23299	0.07496
669.26863	0.0729
668.30426	0.07266
667.3399	0.08104
666.37553	0.08716
665.41117	0.09138
664.44681	0.0947
663.48244	0.09513
662.51808	0.09229
661.55371	0.08898
660.58935	0.08783
659.62499	0.08794
658.66062	0.08635
657.69626	0.08268
656.73189	0.08011
655.76753	0.08058
654.80317	0.08225
653.8388	0.08186
652.87444	0.07937
651.91007	0.07826
650.94571	0.07968
649.98135	0.08104
649.01698	0.08003
648.05262	0.07782
647.08825	0.07745
646.12389	0.07986
645.15953	0.08251
644.19516	0.08228
643.2308	0.07986
642.26643	0.07894
641.30207	0.08097
640.33771	0.08328
639.37334	0.08306
638.40898	0.08149
637.44461	0.08194
636.48025	0.0857
635.51589	0.08978
634.55152	0.09076
633.58716	0.09013
632.62279	0.09136
631.65843	0.09474
630.69406	0.09766
629.7297	0.09767
628.76534	0.09583
627.80097	0.09582
626.83661	0.09912
625.87224	0.10275
624.90788	0.10301
623.94352	0.10147
622.97915	0.10263
622.01479	0.1067
621.05042	0.11019
620.08606	0.11065
619.1217	0.10999
618.15733	0.11185
617.19297	0.11683
616.2286	0.12089
615.26424	0.1213
614.29988	0.12082
613.33551	0.12294
612.37115	0.12658
611.40678	0.12852
610.44242	0.12769
609.47806	0.12663
608.51369	0.12784
607.54933	0.13033
606.58496	0.13145
605.6206	0.13044
604.65624	0.12923
603.69187	0.13035
602.72751	0.13352
601.76314	0.13605
600.79878	0.1358
599.83442	0.13354
598.87005	0.13232
597.90569	0.13336
596.94132	0.13403
595.97696	0.13237
595.0126	0.13036
594.04823	0.13105
593.08387	0.13479
592.1195	0.13769
591.15514	0.13575
590.19078	0.13255
589.22641	0.13281
588.26205	0.13529
587.29768	0.13628
586.33332	0.13519
585.36896	0.13461
584.40459	0.13592
583.44023	0.13785
582.47586	0.13889
581.5115	0.13891
580.54714	0.13814
579.58277	0.13713
578.61841	0.13627
577.65404	0.13493
576.68968	0.13264
575.72532	0.12933
574.76095	0.12649
573.79659	0.12527
572.83222	0.12403
571.86786	0.12136
570.9035	0.11899
569.93913	0.1188
568.97477	0.11912
568.0104	0.11696
567.04604	0.11241
566.08168	0.10815
565.11731	0.1066
564.15295	0.10684
563.18858	0.10564
562.22422	0.10216
561.25986	0.09962
560.29549	0.10036
559.33113	0.10211
558.36676	0.10152
557.4024	0.09882
556.43804	0.09723
555.47367	0.09866
554.50931	0.10114
553.54494	0.10173
552.58058	0.10079
551.61622	0.10135
550.65185	0.10511
549.68749	0.10952
548.72312	0.11113
547.75876	0.11072
546.7944	0.11145
545.83003	0.11381
544.86567	0.11501
543.9013	0.11338
542.93694	0.11056
541.97258	0.10959
541.00821	0.11138
540.04385	0.11294
539.07948	0.11147
538.11512	0.10816
537.15076	0.10595
536.18639	0.10588
535.22203	0.10575
534.25766	0.10325
533.2933	0.09916
532.32894	0.09647
531.36457	0.0964
530.40021	0.09703
529.43584	0.09605
528.47148	0.09406
527.50712	0.09481
526.54275	0.09978
525.57839	0.10279
524.61402	0.09939
523.64966	0.09491
522.6853	0.09346
521.72093	0.09515
520.75657	0.09782
519.7922	0.09776
518.82784	0.0947
517.86348	0.09338
516.89911	0.09295
515.93475	0.08886
514.97038	0.08275
514.00602	0.07756
513.04166	0.07535
512.07729	0.07684
511.11293	0.07841
510.14856	0.07607
509.1842	0.0723
508.21984	0.07292
507.25547	0.0775
506.29111	0.0785
505.32674	0.07422
504.36238	0.07103
503.39802	0.07335
502.43365	0.07781
501.46929	0.07529
500.50492	0.06768
499.54056	0.06335
498.5762	0.06454
497.61183	0.06742
496.64747	0.06687
495.6831	0.06266
494.71874	0.0594
493.75437	0.06091
492.79001	0.06593
491.82565	0.06745
490.86128	0.06221
489.89692	0.05747
488.93255	0.05878
487.96819	0.06303
487.00383	0.06386
486.03946	0.06024
485.0751	0.05864
484.11073	0.06236
483.14637	0.06423
482.18201	0.05988
481.21764	0.05432
480.25328	0.05309
479.28891	0.05689
478.32455	0.06062
477.36019	0.05942
476.39582	0.05469
475.43146	0.05233
474.46709	0.05696
473.50273	0.06607
472.53837	0.06726
471.574	0.05669
470.60964	0.05131
469.64527	0.05448
468.68091	0.0576
467.71655	0.05319
466.75218	0.04528
465.78782	0.04277
464.82345	0.04506
463.85909	0.04507
462.89473	0.04119
461.93036	0.03892
460.966	0.04234
460.00163	0.04884
459.03727	0.05505
458.07291	0.05674
457.10854	0.04913
456.14418	0.04379
455.17981	0.04423
454.21545	0.04462
453.25109	0.04216
452.28672	0.03818
451.32236	0.0369
450.35799	0.03862
449.39363	0.03824
448.42927	0.03565
447.4649	0.03726
446.50054	0.0429
445.53617	0.0456
444.57181	0.04517
443.60745	0.04439
442.64308	0.04476
441.67872	0.04547
440.71435	0.04264
439.74999	0.03579
438.78563	0.02957
437.82126	0.03122
436.8569	0.04043
435.89253	0.04457
434.92817	0.03778
433.96381	0.03109
432.99944	0.03307
432.03508	0.03914
431.07071	0.03842
430.10635	0.02974
429.14199	0.02399
428.17762	0.02731
427.21326	0.03448
426.24889	0.03725
425.28453	0.03331
424.32017	0.03085
423.3558	0.03647
422.39144	0.04293
421.42707	0.04498
420.46271	0.04956
419.49835	0.06269
418.53398	0.06903
417.56962	0.05382
416.60525	0.03683
415.64089	0.02512
414.67653	0.02264
413.71216	0.02706
412.7478	0.0273
411.78343	0.01994
410.81907	0.0166
409.85471	0.02264
408.89034	0.02706
407.92598	0.0273
406.96161	0.01994
405.99725	0.0166
405.03289	0.02264
404.06852	0.02706
403.10416	0.0273
402.13979	0.01994
401.17543	0.0166
400.21107	0.02264