3996.41167	0.01274
3994.4829	0.01226
3992.55413	0.01183
3990.62536	0.0116
3988.69659	0.01154
3986.76782	0.01156
3984.83905	0.01164
3982.91028	0.01174
3980.98151	0.01178
3979.05274	0.01176
3977.12397	0.01168
3975.1952	0.01168
3973.26643	0.0118
3971.33766	0.01188
3969.40889	0.01161
3967.48012	0.01102
3965.55135	0.01052
3963.62258	0.01055
3961.69381	0.01107
3959.76504	0.01165
3957.83627	0.01194
3955.9075	0.01192
3953.97873	0.01172
3952.04996	0.01146
3950.12119	0.01129
3948.19242	0.01129
3946.26365	0.01117
3944.33488	0.01101
3942.40611	0.01094
3940.47734	0.01079
3938.54857	0.01071
3936.6198	0.0108
3934.69103	0.01087
3932.76226	0.0108
3930.83349	0.01055
3928.90472	0.01026
3926.97595	0.01001
3925.04718	0.00992
3923.11841	0.01003
3921.18964	0.01023
3919.26087	0.01037
3917.3321	0.0103
3915.40333	0.00991
3913.47456	0.00942
3911.54579	0.00923
3909.61702	0.00918
3907.68825	0.00899
3905.75948	0.00904
3903.83071	0.00979
3901.90194	0.01056
3899.97317	0.01051
3898.0444	0.0101
3896.11563	0.00981
3894.18686	0.00976
3892.25809	0.0102
3890.32932	0.01058
3888.40055	0.01053
3886.47178	0.0104
3884.54301	0.01037
3882.61424	0.01042
3880.68547	0.01061
3878.7567	0.01062
3876.82792	0.01024
3874.89915	0.00968
3872.97038	0.00925
3871.04161	0.00929
3869.11284	0.00991
3867.18407	0.01049
3865.2553	0.01051
3863.32653	0.01019
3861.39776	0.01005
3859.46899	0.01003
3857.54022	0.00987
3855.61145	0.00958
3853.68268	0.00947
3851.75391	0.0098
3849.82514	0.01014
3847.89637	0.01009
3845.9676	0.00957
3844.03883	0.00894
3842.11006	0.00842
3840.18129	0.0081
3838.25252	0.00802
3836.32375	0.00794
3834.39498	0.00783
3832.46621	0.00794
3830.53744	0.00794
3828.60867	0.00774
3826.6799	0.00771
3824.75113	0.00769
3822.82236	0.00758
3820.89359	0.00764
3818.96482	0.00783
3817.03605	0.00797
3815.10728	0.00793
3813.17851	0.00767
3811.24974	0.0074
3809.32097	0.00745
3807.3922	0.00792
3805.46343	0.00824
3803.53466	0.00782
3801.60589	0.00694
3799.67712	0.00632
3797.74835	0.00639
3795.81958	0.00671
3793.89081	0.00674
3791.96204	0.00653
3790.03327	0.00618
3788.1045	0.00581
3786.17573	0.00558
3784.24696	0.00536
3782.31819	0.00493
3780.38942	0.00455
3778.46065	0.00477
3776.53188	0.00535
3774.60311	0.0057
3772.67434	0.00572
3770.74557	0.00572
3768.8168	0.0059
3766.88803	0.00622
3764.95926	0.00645
3763.03049	0.00632
3761.10172	0.00599
3759.17295	0.00594
3757.24418	0.00629
3755.31541	0.00624
3753.38664	0.00593
3751.45787	0.00656
3749.5291	0.00801
3747.60033	0.00885
3745.67156	0.00981
3743.74279	0.01035
3741.81402	0.00887
3739.88525	0.0079
3737.95648	0.00682
3736.02771	0.00455
3734.09894	0.00415
3732.17017	0.00377
3730.2414	0.0024
3728.31263	0.00122
3726.38386	0
3724.45509	8.25272E-4
3722.52632	0.00112
3720.59755	0.00327
3718.66878	0.00501
3716.74001	0.00843
3714.81124	0.01143
3712.88247	0.00751
3710.9537	0.00513
3709.02493	0.00283
3707.09616	0.00343
3705.16739	0.00388
3703.23861	0.0045
3701.30984	0.0061
3699.38107	0.0072
3697.4523	0.00806
3695.52353	0.00952
3693.59476	0.0091
3691.66599	0.01169
3689.73722	0.01451
3687.80845	0.01711
3685.87968	0.01688
3683.95091	0.0169
3682.02214	0.01642
3680.09337	0.01633
3678.1646	0.01662
3676.23583	0.01879
3674.30706	0.02102
3672.37829	0.02207
3670.44952	0.02309
3668.52075	0.02501
3666.59198	0.02701
3664.66321	0.02863
3662.73444	0.02968
3660.80567	0.03088
3658.8769	0.03243
3656.94813	0.03438
3655.01936	0.0363
3653.09059	0.03746
3651.16182	0.03884
3649.23305	0.04211
3647.30428	0.04611
3645.37551	0.0485
3643.44674	0.05012
3641.51797	0.052
3639.5892	0.05392
3637.66043	0.05601
3635.73166	0.05854
3633.80289	0.05993
3631.87412	0.06156
3629.94535	0.06467
3628.01658	0.06846
3626.08781	0.07072
3624.15904	0.07439
3622.23027	0.07742
3620.3015	0.07976
3618.37273	0.08495
3616.44396	0.08953
3614.51519	0.09486
3612.58642	0.09989
3610.65765	0.10041
3608.72888	0.10192
3606.80011	0.1056
3604.87134	0.10805
3602.94257	0.1108
3601.0138	0.11496
3599.08503	0.12001
3597.15626	0.12276
3595.22749	0.12699
3593.29872	0.13005
3591.36995	0.13492
3589.44118	0.1382
3587.51241	0.14409
3585.58364	0.1498
3583.65487	0.15352
3581.7261	0.15635
3579.79733	0.15993
3577.86856	0.1644
3575.93979	0.16931
3574.01102	0.17386
3572.08225	0.17728
3570.15348	0.1799
3568.22471	0.18405
3566.29594	0.19041
3564.36717	0.19648
3562.4384	0.20111
3560.50963	0.2054
3558.58086	0.20987
3556.65209	0.21418
3554.72332	0.21863
3552.79455	0.22361
3550.86578	0.22844
3548.93701	0.23289
3547.00824	0.23816
3545.07947	0.24419
3543.1507	0.24949
3541.22193	0.25352
3539.29316	0.25717
3537.36439	0.26145
3535.43562	0.2661
3533.50685	0.2703
3531.57807	0.27412
3529.6493	0.27835
3527.72053	0.28347
3525.79176	0.28918
3523.86299	0.2946
3521.93422	0.29922
3520.00545	0.30324
3518.07668	0.30751
3516.14791	0.31218
3514.21914	0.31667
3512.29037	0.3208
3510.3616	0.32522
3508.43283	0.33007
3506.50406	0.33506
3504.57529	0.34048
3502.64652	0.3462
3500.71775	0.35109
3498.78898	0.35511
3496.86021	0.3592
3494.93144	0.36353
3493.00267	0.36764
3491.0739	0.37172
3489.14513	0.37642
3487.21636	0.38151
3485.28759	0.38615
3483.35882	0.39054
3481.43005	0.39526
3479.50128	0.39981
3477.57251	0.40404
3475.64374	0.40882
3473.71497	0.41417
3471.7862	0.41912
3469.85743	0.42344
3467.92866	0.42781
3465.99989	0.43272
3464.07112	0.43797
3462.14235	0.44332
3460.21358	0.44838
3458.28481	0.45296
3456.35604	0.45756
3454.42727	0.46264
3452.4985	0.46785
3450.56973	0.47277
3448.64096	0.47816
3446.71219	0.48455
3444.78342	0.49046
3442.85465	0.49531
3440.92588	0.49994
3438.99711	0.5046
3437.06834	0.5094
3435.13957	0.51452
3433.2108	0.51991
3431.28203	0.52526
3429.35326	0.5304
3427.42449	0.53562
3425.49572	0.54084
3423.56695	0.54576
3421.63818	0.55085
3419.70941	0.5564
3417.78064	0.56154
3415.85187	0.56604
3413.9231	0.57063
3411.99433	0.57548
3410.06556	0.58057
3408.13679	0.58577
3406.20802	0.59076
3404.27925	0.59525
3402.35048	0.5992
3400.42171	0.6032
3398.49294	0.60835
3396.56417	0.61369
3394.6354	0.6182
3392.70663	0.62215
3390.77786	0.62613
3388.84909	0.63022
3386.92032	0.63454
3384.99155	0.63885
3383.06278	0.64271
3381.13401	0.64618
3379.20524	0.64952
3377.27647	0.65286
3375.3477	0.6562
3373.41893	0.65933
3371.49016	0.66208
3369.56139	0.66477
3367.63262	0.66775
3365.70385	0.67082
3363.77508	0.67352
3361.84631	0.67596
3359.91753	0.67836
3357.98876	0.68054
3356.05999	0.68251
3354.13122	0.68455
3352.20245	0.6865
3350.27368	0.68822
3348.34491	0.6898
3346.41614	0.69134
3344.48737	0.69276
3342.5586	0.69421
3340.62983	0.69558
3338.70106	0.69667
3336.77229	0.69761
3334.84352	0.69866
3332.91475	0.69971
3330.98598	0.70053
3329.05721	0.70135
3327.12844	0.70226
3325.19967	0.70298
3323.2709	0.70316
3321.34213	0.70287
3319.41336	0.70264
3317.48459	0.70262
3315.55582	0.70257
3313.62705	0.70264
3311.69828	0.70311
3309.76951	0.70376
3307.84074	0.70413
3305.91197	0.70385
3303.9832	0.70281
3302.05443	0.7015
3300.12566	0.70038
3298.19689	0.69963
3296.26812	0.69913
3294.33935	0.69852
3292.41058	0.69718
3290.48181	0.69498
3288.55304	0.69275
3286.62427	0.69102
3284.6955	0.68957
3282.76673	0.68803
3280.83796	0.6866
3278.90919	0.68551
3276.98042	0.68455
3275.05165	0.68329
3273.12288	0.68157
3271.19411	0.6792
3269.26534	0.67618
3267.33657	0.67313
3265.4078	0.67062
3263.47903	0.66861
3261.55026	0.6668
3259.62149	0.66482
3257.69272	0.66241
3255.76395	0.65967
3253.83518	0.65694
3251.90641	0.65443
3249.97764	0.65196
3248.04887	0.64956
3246.1201	0.64725
3244.19133	0.64481
3242.26256	0.64194
3240.33379	0.63876
3238.40502	0.63564
3236.47625	0.63273
3234.54748	0.62994
3232.61871	0.62714
3230.68994	0.62422
3228.76117	0.62095
3226.8324	0.61735
3224.90363	0.61355
3222.97486	0.60988
3221.04609	0.60648
3219.11732	0.60323
3217.18855	0.59972
3215.25978	0.59593
3213.33101	0.59205
3211.40224	0.58814
3209.47347	0.58426
3207.5447	0.58033
3205.61593	0.57614
3203.68716	0.57181
3201.75839	0.56747
3199.82962	0.56302
3197.90085	0.55836
3195.97208	0.55358
3194.04331	0.54895
3192.11454	0.54448
3190.18577	0.53991
3188.257	0.53509
3186.32822	0.53014
3184.39945	0.52494
3182.47068	0.51946
3180.54191	0.514
3178.61314	0.50883
3176.68437	0.50382
3174.7556	0.4989
3172.82683	0.49391
3170.89806	0.48858
3168.96929	0.48319
3167.04052	0.47809
3165.11175	0.47309
3163.18298	0.46789
3161.25421	0.46262
3159.32544	0.45745
3157.39667	0.4525
3155.4679	0.44778
3153.53913	0.44311
3151.61036	0.43824
3149.68159	0.43313
3147.75282	0.42801
3145.82405	0.4234
3143.89528	0.41924
3141.96651	0.41503
3140.03774	0.41053
3138.10897	0.40586
3136.1802	0.4012
3134.25143	0.39676
3132.32266	0.39256
3130.39389	0.38843
3128.46512	0.38436
3126.53635	0.38044
3124.60758	0.37676
3122.67881	0.3731
3120.75004	0.36927
3118.82127	0.36552
3116.8925	0.3621
3114.96373	0.35863
3113.03496	0.35483
3111.10619	0.35095
3109.17742	0.34727
3107.24865	0.34373
3105.31988	0.34005
3103.39111	0.33638
3101.46234	0.333
3099.53357	0.32964
3097.6048	0.32587
3095.67603	0.32196
3093.74726	0.31846
3091.81849	0.31539
3089.88972	0.31237
3087.96095	0.30916
3086.03218	0.30587
3084.10341	0.30262
3082.17464	0.2994
3080.24587	0.2963
3078.3171	0.29325
3076.38833	0.29
3074.45956	0.28678
3072.53079	0.28385
3070.60202	0.28115
3068.67325	0.27852
3066.74448	0.27588
3064.81571	0.27315
3062.88694	0.27021
3060.95817	0.26716
3059.0294	0.26454
3057.10063	0.26246
3055.17186	0.26034
3053.24309	0.25784
3051.31432	0.25513
3049.38555	0.25251
3047.45678	0.25024
3045.52801	0.24822
3043.59924	0.24612
3041.67047	0.24388
3039.7417	0.24169
3037.81293	0.23969
3035.88416	0.23803
3033.95539	0.23652
3032.02662	0.23486
3030.09785	0.23282
3028.16908	0.23069
3026.24031	0.22881
3024.31154	0.22729
3022.38277	0.22602
3020.454	0.22493
3018.52523	0.22404
3016.59646	0.22339
3014.66768	0.22299
3012.73891	0.22271
3010.81014	0.22248
3008.88137	0.22231
3006.9526	0.22243
3005.02383	0.22328
3003.09506	0.2248
3001.16629	0.22661
2999.23752	0.22878
2997.30875	0.23171
2995.37998	0.23541
2993.45121	0.23996
2991.52244	0.24547
2989.59367	0.25182
2987.6649	0.25816
2985.73613	0.26426
2983.80736	0.2705
2981.87859	0.27684
2979.94982	0.28279
2978.02105	0.28783
2976.09228	0.29163
2974.16351	0.2938
2972.23474	0.29383
2970.30597	0.29182
2968.3772	0.28832
2966.44843	0.28419
2964.51966	0.28035
2962.59089	0.27753
2960.66212	0.27573
2958.73335	0.27473
2956.80458	0.27468
2954.87581	0.2761
2952.94704	0.27928
2951.01827	0.28387
2949.0895	0.28953
2947.16073	0.29588
2945.23196	0.30237
2943.30319	0.3085
2941.37442	0.31396
2939.44565	0.31859
2937.51688	0.32227
2935.58811	0.32483
2933.65934	0.32637
2931.73057	0.3269
2929.8018	0.32637
2927.87303	0.32488
2925.94426	0.32267
2924.01549	0.31985
2922.08672	0.3168
2920.15795	0.31384
2918.22918	0.31105
2916.30041	0.3085
2914.37164	0.30607
2912.44287	0.30346
2910.5141	0.30048
2908.58533	0.29758
2906.65656	0.29512
2904.72779	0.29308
2902.79902	0.29124
2900.87025	0.28925
2898.94148	0.28693
2897.01271	0.28438
2895.08394	0.28166
2893.15517	0.27886
2891.2264	0.27601
2889.29763	0.27299
2887.36886	0.26988
2885.44009	0.26672
2883.51132	0.26347
2881.58255	0.26002
2879.65378	0.25644
2877.72501	0.25283
2875.79624	0.24922
2873.86747	0.24497
2871.9387	0.23951
2870.00993	0.23337
2868.08116	0.22718
2866.15239	0.22086
2864.22362	0.21443
2862.29485	0.20856
2860.36608	0.20339
2858.43731	0.1985
2856.50854	0.19378
2854.57977	0.18948
2852.651	0.18573
2850.72223	0.18263
2848.79346	0.18001
2846.86469	0.17761
2844.93592	0.17528
2843.00714	0.17329
2841.07837	0.17181
2839.1496	0.17036
2837.22083	0.1685
2835.29206	0.1664
2833.36329	0.16441
2831.43452	0.16254
2829.50575	0.16073
2827.57698	0.15893
2825.64821	0.1571
2823.71944	0.15518
2821.79067	0.15319
2819.8619	0.15125
2817.93313	0.14923
2816.00436	0.14689
2814.07559	0.14463
2812.14682	0.14279
2810.21805	0.14104
2808.28928	0.13906
2806.36051	0.13709
2804.43174	0.13531
2802.50297	0.13381
2800.5742	0.13269
2798.64543	0.13176
2796.71666	0.13047
2794.78789	0.12898
2792.85912	0.12791
2790.93035	0.12723
2789.00158	0.12628
2787.07281	0.12488
2785.14404	0.12361
2783.21527	0.12281
2781.2865	0.12211
2779.35773	0.12152
2777.42896	0.12123
2775.50019	0.12103
2773.57142	0.12033
2771.64265	0.11918
2769.71388	0.11818
2767.78511	0.11758
2765.85634	0.11713
2763.92757	0.11657
2761.9988	0.11607
2760.07003	0.11577
2758.14126	0.11542
2756.21249	0.11484
2754.28372	0.11417
2752.35495	0.11385
2750.42618	0.11369
2748.49741	0.11324
2746.56864	0.11224
2744.63987	0.11098
2742.7111	0.10992
2740.78233	0.10927
2738.85356	0.10881
2736.92479	0.10818
2734.99602	0.10736
2733.06725	0.10661
2731.13848	0.10596
2729.20971	0.10554
2727.28094	0.10543
2725.35217	0.10498
2723.4234	0.10393
2721.49463	0.10275
2719.56586	0.10178
2717.63709	0.10098
2715.70832	0.10013
2713.77955	0.09928
2711.85078	0.09866
2709.92201	0.0981
2707.99324	0.09737
2706.06447	0.09658
2704.1357	0.0958
2702.20693	0.09505
2700.27816	0.09443
2698.34939	0.0938
2696.42062	0.09312
2694.49185	0.09244
2692.56308	0.09187
2690.63431	0.09138
2688.70554	0.09095
2686.77677	0.09047
2684.848	0.08994
2682.91923	0.08957
2680.99046	0.08936
2679.06169	0.08894
2677.13292	0.08821
2675.20415	0.08731
2673.27538	0.08646
2671.34661	0.08564
2669.41783	0.08488
2667.48906	0.08423
2665.56029	0.08361
2663.63152	0.08296
2661.70275	0.08221
2659.77398	0.0814
2657.84521	0.08041
2655.91644	0.07936
2653.98767	0.07843
2652.0589	0.07761
2650.13013	0.07673
2648.20136	0.07576
2646.27259	0.07483
2644.34382	0.0739
2642.41505	0.07302
2640.48628	0.07228
2638.55751	0.07158
2636.62874	0.07068
2634.69997	0.06959
2632.7712	0.06834
2630.84243	0.06712
2628.91366	0.06618
2626.98489	0.06555
2625.05612	0.06482
2623.12735	0.06396
2621.19858	0.06319
2619.26981	0.06254
2617.34104	0.06192
2615.41227	0.06116
2613.4835	0.06024
2611.55473	0.05946
2609.62596	0.05892
2607.69719	0.05847
2605.76842	0.05796
2603.83965	0.05734
2601.91088	0.05676
2599.98211	0.05613
2598.05334	0.05548
2596.12457	0.05508
2594.1958	0.05493
2592.26703	0.05464
2590.33826	0.05419
2588.40949	0.05383
2586.48072	0.05367
2584.55195	0.05355
2582.62318	0.05328
2580.69441	0.05274
2578.76564	0.05218
2576.83687	0.0518
2574.9081	0.05149
2572.97933	0.0512
2571.05056	0.05097
2569.12179	0.05052
2567.19302	0.04984
2565.26425	0.04929
2563.33548	0.04905
2561.40671	0.04898
2559.47794	0.04876
2557.54917	0.04839
2555.6204	0.04792
2553.69163	0.04756
2551.76286	0.04739
2549.83409	0.0473
2547.90532	0.04719
2545.97655	0.04706
2544.04778	0.04687
2542.11901	0.0466
2540.19024	0.04642
2538.26147	0.04632
2536.3327	0.0461
2534.40393	0.04562
2532.47516	0.04507
2530.54639	0.04477
2528.61762	0.04467
2526.68885	0.04454
2524.76008	0.04437
2522.83131	0.04404
2520.90254	0.04381
2518.97377	0.04372
2517.045	0.04346
2515.11623	0.04304
2513.18746	0.04283
2511.25869	0.04272
2509.32992	0.04246
2507.40115	0.04215
2505.47238	0.04196
2503.54361	0.04173
2501.61484	0.04127
2499.68607	0.0408
2497.75729	0.04053
2495.82852	0.04033
2493.89975	0.04003
2491.97098	0.03977
2490.04221	0.03968
2488.11344	0.0396
2486.18467	0.0393
2484.2559	0.03882
2482.32713	0.03837
2480.39836	0.03803
2478.46959	0.03764
2476.54082	0.03735
2474.61205	0.03747
2472.68328	0.03769
2470.75451	0.03749
2468.82574	0.03709
2466.89697	0.03689
2464.9682	0.03698
2463.03943	0.03696
2461.11066	0.03664
2459.18189	0.0363
2457.25312	0.03605
2455.32435	0.03567
2453.39558	0.0353
2451.46681	0.03515
2449.53804	0.03505
2447.60927	0.03469
2445.6805	0.03419
2443.75173	0.03394
2441.82296	0.03392
2439.89419	0.03382
2437.96542	0.03365
2436.03665	0.03365
2434.10788	0.0334
2432.17911	0.03289
2430.25034	0.03246
2428.32157	0.03224
2426.3928	0.03222
2424.46403	0.03224
2422.53526	0.03229
2420.60649	0.03235
2418.67772	0.03237
2416.74895	0.03223
2414.82018	0.03201
2412.89141	0.03175
2410.96264	0.0315
2409.03387	0.03137
2407.1051	0.0313
2405.17633	0.03115
2403.24756	0.0309
2401.31879	0.03072
2399.39002	0.0315
2397.46125	0.03157
2395.53248	0.03125
2393.60371	0.03092
2391.67494	0.03081
2389.74617	0.03102
2387.8174	0.03203
2385.88863	0.03443
2383.95986	0.03453
2382.03109	0.03093
2380.10232	0.02926
2378.17355	0.02411
2376.24478	0.02411
2374.31601	0.02411
2372.38724	0.02411
2370.45847	0.02411
2368.5297	0.02411
2366.60093	0.02411
2364.67216	0.02411
2362.74339	0.02411
2360.81462	0.02411
2358.88585	0.02411
2356.95708	0.02411
2355.02831	0.02411
2353.09954	0.02411
2351.17077	0.02411
2349.242	0.02411
2347.31323	0.02411
2345.38446	0.02411
2343.45569	0.02411
2341.52692	0.02411
2339.59815	0.02411
2337.66938	0.02411
2335.74061	0.02411
2333.81184	0.02411
2331.88307	0.02411
2329.9543	0.02411
2328.02553	0.02411
2326.09675	0.02411
2324.16798	0.02411
2322.23921	0.02411
2320.31044	0.02411
2318.38167	0.02411
2316.4529	0.02411
2314.52413	0.02411
2312.59536	0.02411
2310.66659	0.02411
2308.73782	0.02411
2306.80905	0.02411
2304.88028	0.02411
2302.95151	0.02411
2301.02274	0.02411
2299.09397	0.02411
2297.1652	0.02411
2295.23643	0.02411
2293.30766	0.02411
2291.37889	0.02411
2289.45012	0.02411
2287.52135	0.02411
2285.59258	0.02411
2283.66381	0.02411
2281.73504	0.02411
2279.80627	0.02411
2277.8775	0.02411
2275.94873	0.02411
2274.01996	0.02411
2272.09119	0.02411
2270.16242	0.02411
2268.23365	0.02411
2266.30488	0.02411
2264.37611	0.02411
2262.44734	0.02411
2260.51857	0.02411
2258.5898	0.02411
2256.66103	0.02411
2254.73226	0.02411
2252.80349	0.02411
2250.87472	0.02411
2248.94595	0.02411
2247.01718	0.02411
2245.08841	0.02411
2243.15964	0.02411
2241.23087	0.02411
2239.3021	0.02411
2237.37333	0.02411
2235.44456	0.02411
2233.51579	0.02411
2231.58702	0.02411
2229.65825	0.02411
2227.72948	0.02411
2225.80071	0.02411
2223.87194	0.02411
2221.94317	0.02411
2220.0144	0.02411
2218.08563	0.02411
2216.15686	0.02411
2214.22809	0.02411
2212.29932	0.02411
2210.37055	0.02411
2208.44178	0.02411
2206.51301	0.02411
2204.58424	0.02411
2202.65547	0.02411
2200.7267	0.02411
2198.79793	0.02411
2196.86916	0.02411
2194.94039	0.02411
2193.01162	0.02411
2191.08285	0.02411
2189.15408	0.02411
2187.22531	0.02411
2185.29654	0.02411
2183.36777	0.02411
2181.439	0.02411
2179.51023	0.02411
2177.58146	0.02411
2175.65269	0.02411
2173.72392	0.02411
2171.79515	0.02411
2169.86638	0.02411
2167.93761	0.02411
2166.00884	0.02411
2164.08007	0.02411
2162.1513	0.02411
2160.22253	0.02411
2158.29376	0.02411
2156.36499	0.02411
2154.43622	0.02411
2152.50744	0.02411
2150.57867	0.02411
2148.6499	0.02411
2146.72113	0.02411
2144.79236	0.02411
2142.86359	0.02411
2140.93482	0.02411
2139.00605	0.02411
2137.07728	0.02411
2135.14851	0.02411
2133.21974	0.02412
2131.29097	0.02437
2129.3622	0.02459
2127.43343	0.02457
2125.50466	0.02463
2123.57589	0.02472
2121.64712	0.02472
2119.71835	0.02496
2117.78958	0.02538
2115.86081	0.02546
2113.93204	0.025
2112.00327	0.02446
2110.0745	0.02425
2108.14573	0.02413
2106.21696	0.0239
2104.28819	0.02382
2102.35942	0.02372
2100.43065	0.02345
2098.50188	0.02317
2096.57311	0.02324
2094.64434	0.02344
2092.71557	0.02342
2090.7868	0.02323
2088.85803	0.02311
2086.92926	0.02301
2085.00049	0.02286
2083.07172	0.02268
2081.14295	0.02253
2079.21418	0.02226
2077.28541	0.02189
2075.35664	0.02162
2073.42787	0.02138
2071.4991	0.02105
2069.57033	0.02063
2067.64156	0.0202
2065.71279	0.0198
2063.78402	0.01962
2061.85525	0.0197
2059.92648	0.01985
2057.99771	0.01984
2056.06894	0.01947
2054.14017	0.01876
2052.2114	0.01794
2050.28263	0.01714
2048.35386	0.01624
2046.42509	0.01529
2044.49632	0.01472
2042.56755	0.01471
2040.63878	0.01492
2038.71001	0.01469
2036.78124	0.01391
2034.85247	0.01296
2032.9237	0.01196
2030.99493	0.0113
2029.06616	0.01126
2027.13739	0.01148
2025.20862	0.01153
2023.27985	0.01128
2021.35108	0.01087
2019.42231	0.01046
2017.49354	0.00995
2015.56477	0.00942
2013.636	0.0092
2011.70723	0.00935
2009.77846	0.00959
2007.84969	0.00966
2005.92092	0.00952
2003.99215	0.00941
2002.06338	0.00969
2000.13461	0.01009
1998.20584	0.01011
1996.27707	0.00988
1994.3483	0.00972
1992.41953	0.00968
1990.49076	0.00974
1988.56199	0.00974
1986.63322	0.00978
1984.70445	0.00963
1982.77568	0.00867
1980.8469	0.00688
1978.91813	0.00513
1976.98936	0.0042
1975.06059	0.00411
1973.13182	0.00429
1971.20305	0.00452
1969.27428	0.00502
1967.34551	0.00607
1965.41674	0.00742
1963.48797	0.00845
1961.5592	0.0088
1959.63043	0.00903
1957.70166	0.00942
1955.77289	0.00977
1953.84412	0.01016
1951.91535	0.01062
1949.98658	0.01091
1948.05781	0.01087
1946.12904	0.01067
1944.20027	0.01051
1942.2715	0.01066
1940.34273	0.01107
1938.41396	0.01136
1936.48519	0.01144
1934.55642	0.01147
1932.62765	0.01156
1930.69888	0.01168
1928.77011	0.0118
1926.84134	0.01194
1924.91257	0.01201
1922.9838	0.01214
1921.05503	0.01233
1919.12626	0.0124
1917.19749	0.01244
1915.26872	0.01242
1913.33995	0.01214
1911.41118	0.01171
1909.48241	0.01148
1907.55364	0.01147
1905.62487	0.01138
1903.6961	0.01119
1901.76733	0.01092
1899.83856	0.01069
1897.90979	0.0104
1895.98102	0.0101
1894.05225	0.00982
1892.12348	0.00955
1890.19471	0.00925
1888.26594	0.00904
1886.33717	0.0089
1884.4084	0.00878
1882.47963	0.00867
1880.55086	0.00852
1878.62209	0.00837
1876.69332	0.00825
1874.76455	0.00809
1872.83578	0.00759
1870.90701	0.00673
1868.97824	0.00616
1867.04947	0.00641
1865.1207	0.00706
1863.19193	0.00735
1861.26316	0.00723
1859.33439	0.00702
1857.40562	0.00689
1855.47685	0.00686
1853.54808	0.00685
1851.61931	0.00683
1849.69054	0.00675
1847.76177	0.00654
1845.833	0.00631
1843.90423	0.00629
1841.97546	0.00665
1840.04669	0.00705
1838.11792	0.00732
1836.18915	0.00754
1834.26038	0.00762
1832.33161	0.00744
1830.40284	0.0073
1828.47407	0.00761
1826.5453	0.00824
1824.61653	0.00899
1822.68776	0.00978
1820.75899	0.01055
1818.83022	0.01157
1816.90145	0.01292
1814.97268	0.01458
1813.04391	0.01666
1811.11514	0.01965
1809.18636	0.02367
1807.25759	0.02854
1805.32882	0.03442
1803.40005	0.04212
1801.47128	0.05275
1799.54251	0.06578
1797.61374	0.07912
1795.68497	0.09228
1793.7562	0.10737
1791.82743	0.12495
1789.89866	0.14058
1787.96989	0.15157
1786.04112	0.15965
1784.11235	0.1659
1782.18358	0.17012
1780.25481	0.17295
1778.32604	0.17503
1776.39727	0.17669
1774.4685	0.17852
1772.53973	0.18124
1770.61096	0.1847
1768.68219	0.18864
1766.75342	0.1936
1764.82465	0.20026
1762.89588	0.2091
1760.96711	0.21787
1759.03834	0.22245
1757.10957	0.22265
1755.1808	0.22061
1753.25203	0.21723
1751.32326	0.21214
1749.39449	0.20517
1747.46572	0.19739
1745.53695	0.18954
1743.60818	0.18155
1741.67941	0.17319
1739.75064	0.16467
1737.82187	0.15673
1735.8931	0.14865
1733.96433	0.13896
1732.03556	0.12921
1730.10679	0.12074
1728.17802	0.11244
1726.24925	0.10361
1724.32048	0.09447
1722.39171	0.08592
1720.46294	0.07833
1718.53417	0.0707
1716.6054	0.06337
1714.67663	0.05848
1712.74786	0.05567
1710.81909	0.05342
1708.89032	0.05129
1706.96155	0.04956
1705.03278	0.0485
1703.10401	0.04828
1701.17524	0.04985
1699.24647	0.0542
1697.3177	0.0611
1695.38893	0.06942
1693.46016	0.07699
1691.53139	0.08362
1689.60262	0.0905
1687.67385	0.09741
1685.74508	0.10577
1683.81631	0.1178
1681.88754	0.12914
1679.95877	0.13645
1678.03	0.14184
1676.10123	0.14749
1674.17246	0.15318
1672.24369	0.15775
1670.31492	0.16221
1668.38615	0.16713
1666.45738	0.17096
1664.52861	0.17436
1662.59984	0.17903
1660.67107	0.18398
1658.7423	0.18702
1656.81353	0.18807
1654.88476	0.18958
1652.95599	0.19398
1651.02722	0.19859
1649.09845	0.20198
1647.16968	0.20712
1645.24091	0.21329
1643.31214	0.217
1641.38337	0.21838
1639.4546	0.21853
1637.52583	0.2178
1635.59705	0.21602
1633.66828	0.21264
1631.73951	0.20724
1629.81074	0.19919
1627.88197	0.18852
1625.9532	0.17623
1624.02443	0.16286
1622.09566	0.14972
1620.16689	0.1389
1618.23812	0.129
1616.30935	0.11887
1614.38058	0.1107
1612.45181	0.10485
1610.52304	0.09943
1608.59427	0.09378
1606.6655	0.08828
1604.73673	0.08315
1602.80796	0.07828
1600.87919	0.07383
1598.95042	0.07011
1597.02165	0.06739
1595.09288	0.06582
1593.16411	0.06549
1591.23534	0.06606
1589.30657	0.0672
1587.3778	0.06852
1585.44903	0.06979
1583.52026	0.07094
1581.59149	0.07178
1579.66272	0.07215
1577.73395	0.07262
1575.80518	0.07389
1573.87641	0.07526
1571.94764	0.07576
1570.01887	0.07562
1568.0901	0.07517
1566.16133	0.0743
1564.23256	0.07282
1562.30379	0.07079
1560.37502	0.06894
1558.44625	0.06879
1556.51748	0.07052
1554.58871	0.07235
1552.65994	0.07371
1550.73117	0.07461
1548.8024	0.07513
1546.87363	0.07506
1544.94486	0.07425
1543.01609	0.07275
1541.08732	0.07094
1539.15855	0.06981
1537.22978	0.06931
1535.30101	0.0681
1533.37224	0.06593
1531.44347	0.06372
1529.5147	0.06172
1527.58593	0.05937
1525.65716	0.05655
1523.72839	0.05324
1521.79962	0.04921
1519.87085	0.04512
1517.94208	0.04132
1516.01331	0.03768
1514.08454	0.03461
1512.15577	0.03188
1510.227	0.02878
1508.29823	0.0251
1506.36946	0.02215
1504.44069	0.02129
1502.51192	0.02114
1500.58315	0.02046
1498.65438	0.01961
1496.72561	0.01941
1494.79684	0.01992
1492.86807	0.02075
1490.9393	0.02296
1489.01053	0.02828
1487.08176	0.03611
1485.15299	0.04416
1483.22422	0.05064
1481.29545	0.05419
1479.36668	0.05421
1477.43791	0.05214
1475.50914	0.05086
1473.58037	0.0532
1471.6516	0.05927
1469.72283	0.06589
1467.79406	0.07217
1465.86529	0.07972
1463.93651	0.08788
1462.00774	0.09354
1460.07897	0.09634
1458.1502	0.09846
1456.22143	0.10069
1454.29266	0.10187
1452.36389	0.10189
1450.43512	0.10133
1448.50635	0.10043
1446.57758	0.0993
1444.64881	0.09805
1442.72004	0.09672
1440.79127	0.09544
1438.8625	0.09444
1436.93373	0.09411
1435.00496	0.09456
1433.07619	0.09543
1431.14742	0.09696
1429.21865	0.09937
1427.28988	0.10214
1425.36111	0.1049
1423.43234	0.10766
1421.50357	0.11041
1419.5748	0.11382
1417.64603	0.1177
1415.71726	0.1204
1413.78849	0.12146
1411.85972	0.12141
1409.93095	0.12058
1408.00218	0.119
1406.07341	0.11668
1404.14464	0.11424
1402.21587	0.11259
1400.2871	0.11226
1398.35833	0.11301
1396.42956	0.11405
1394.50079	0.11512
1392.57202	0.11661
1390.64325	0.11936
1388.71448	0.12455
1386.78571	0.13209
1384.85694	0.13948
1382.92817	0.14514
1380.9994	0.14958
1379.07063	0.15363
1377.14186	0.15787
1375.21309	0.16287
1373.28432	0.16806
1371.35555	0.17125
1369.42678	0.17095
1367.49801	0.16718
1365.56924	0.16047
1363.64047	0.15117
1361.7117	0.14065
1359.78293	0.13155
1357.85416	0.12483
1355.92539	0.11987
1353.99662	0.11626
1352.06785	0.11372
1350.13908	0.112
1348.21031	0.11096
1346.28154	0.11059
1344.35277	0.11086
1342.424	0.1118
1340.49523	0.11345
1338.56646	0.11541
1336.63769	0.11674
1334.70892	0.11705
1332.78015	0.1165
1330.85138	0.11542
1328.92261	0.11404
1326.99384	0.11247
1325.06507	0.11076
1323.1363	0.10896
1321.20753	0.10714
1319.27876	0.10563
1317.34999	0.10467
1315.42122	0.10432
1313.49245	0.10434
1311.56368	0.10446
1309.63491	0.10451
1307.70614	0.10441
1305.77737	0.10422
1303.8486	0.10378
1301.91983	0.10267
1299.99106	0.10032
1298.06229	0.09639
1296.13352	0.09114
1294.20475	0.08544
1292.27597	0.08058
1290.3472	0.07744
1288.41843	0.07626
1286.48966	0.07658
1284.56089	0.07765
1282.63212	0.07846
1280.70335	0.07801
1278.77458	0.07581
1276.84581	0.07221
1274.91704	0.06803
1272.98827	0.06391
1271.0595	0.06011
1269.13073	0.0566
1267.20196	0.0533
1265.27319	0.05015
1263.34442	0.04722
1261.41565	0.04499
1259.48688	0.04406
1257.55811	0.04451
1255.62934	0.04586
1253.70057	0.04758
1251.7718	0.04935
1249.84303	0.05108
1247.91426	0.05281
1245.98549	0.05453
1244.05672	0.05612
1242.12795	0.05714
1240.19918	0.05711
1238.27041	0.05606
1236.34164	0.05448
1234.41287	0.05303
1232.4841	0.05233
1230.55533	0.05265
1228.62656	0.05388
1226.69779	0.05556
1224.76902	0.05728
1222.84025	0.05832
1220.91148	0.05795
1218.98271	0.05567
1217.05394	0.05149
1215.12517	0.04602
1213.1964	0.04009
1211.26763	0.03479
1209.33886	0.03087
1207.41009	0.02853
1205.48132	0.02733
1203.55255	0.0267
1201.62378	0.02623
1199.69501	0.02575
1197.76624	0.02511
1195.83747	0.02414
1193.9087	0.02278
1191.97993	0.02123
1190.05116	0.02003
1188.12239	0.01962
1186.19362	0.01997
1184.26485	0.02072
1182.33608	0.02154
1180.40731	0.02265
1178.47854	0.02462
1176.54977	0.02831
1174.621	0.03485
1172.69223	0.0458
1170.76346	0.06268
1168.83469	0.08628
1166.90592	0.11647
1164.97715	0.15205
1163.04838	0.19039
1161.11961	0.22757
1159.19084	0.25929
1157.26207	0.28183
1155.3333	0.29296
1153.40453	0.29255
1151.47576	0.28263
1149.54699	0.26649
1147.61822	0.24753
1145.68945	0.22851
1143.76068	0.21147
1141.83191	0.19791
1139.90314	0.18888
1137.97437	0.18473
1136.0456	0.18494
1134.11683	0.18852
1132.18806	0.19396
1130.25929	0.19953
1128.33052	0.20343
1126.40175	0.20436
1124.47298	0.20201
1122.54421	0.1971
1120.61544	0.19086
1118.68666	0.18491
1116.75789	0.18126
1114.82912	0.18118
1112.90035	0.18475
1110.97158	0.19121
1109.04281	0.19957
1107.11404	0.20864
1105.18527	0.2169
1103.2565	0.22294
1101.32773	0.22583
1099.39896	0.22566
1097.47019	0.22384
1095.54142	0.22275
1093.61265	0.2251
1091.68388	0.23319
1089.75511	0.24845
1087.82634	0.27139
1085.89757	0.30146
1083.9688	0.33621
1082.04003	0.37008
1080.11126	0.39419
1078.18249	0.39805
1076.25372	0.37514
1074.32495	0.33064
1072.39618	0.28161
1070.46741	0.24542
1068.53864	0.2294
1066.60987	0.2312
1064.6811	0.24506
1062.75233	0.26669
1060.82356	0.29405
1058.89479	0.32589
1056.96602	0.36024
1055.03725	0.39474
1053.10848	0.42749
1051.17971	0.45721
1049.25094	0.48352
1047.32217	0.50687
1045.3934	0.52767
1043.46463	0.54635
1041.53586	0.56418
1039.60709	0.58344
1037.67832	0.60712
1035.74955	0.63887
1033.82078	0.68146
1031.89201	0.73542
1029.96324	0.79855
1028.03447	0.86581
1026.1057	0.92863
1024.17693	0.97639
1022.24816	1
1020.31939	0.99382
1018.39062	0.95842
1016.46185	0.90133
1014.53308	0.83402
1012.60431	0.76893
1010.67554	0.71689
1008.74677	0.68494
1006.818	0.67404
1004.88923	0.67871
1002.96046	0.69045
1001.03169	0.70163
999.10292	0.7069
997.17415	0.70183
995.24538	0.68248
993.31661	0.64829
991.38784	0.60429
989.45907	0.55859
987.5303	0.51727
985.60153	0.48134
983.67276	0.44735
981.74399	0.411
979.81522	0.37082
977.88645	0.32913
975.95768	0.28962
974.02891	0.25497
972.10014	0.22587
970.17137	0.20166
968.2426	0.1811
966.31383	0.16305
964.38506	0.14669
962.45629	0.13182
960.52752	0.11847
958.59875	0.10655
956.66998	0.09603
954.74121	0.08787
952.81244	0.08444
950.88367	0.08915
948.9549	0.10386
947.02612	0.12626
945.09735	0.14951
943.16858	0.16617
941.23981	0.17331
939.31104	0.17346
937.38227	0.17015
935.4535	0.16406
933.52473	0.1543
931.59596	0.14109
929.66719	0.12622
927.73842	0.11168
925.80965	0.09858
923.88088	0.08704
921.95211	0.07687
920.02334	0.06794
918.09457	0.06015
916.1658	0.05315
914.23703	0.0466
912.30826	0.0401
910.37949	0.03332
908.45072	0.02627
906.52195	0.01943
904.59318	0.01351
902.66441	0.00915
900.73564	0.00662
898.80687	0.00575
896.8781	0.00594
894.94933	0.00648
893.02056	0.00682
891.09179	0.00696
889.16302	0.0074
887.23425	0.0088
885.30548	0.01132
883.37671	0.01447
881.44794	0.01755
879.51917	0.01976
877.5904	0.02066
875.66163	0.02076
873.73286	0.02124
871.80409	0.02298
869.87532	0.02639
867.94655	0.0313
866.01778	0.03699
864.08901	0.04251
862.16024	0.04696
860.23147	0.0498
858.3027	0.05102
856.37393	0.05074
854.44516	0.04922
852.51639	0.04681
850.58762	0.04391
848.65885	0.04082
846.73008	0.0377
844.80131	0.03459
842.87254	0.03143
840.94377	0.02807
839.015	0.02419
837.08623	0.01982
835.15746	0.01528
833.22869	0.0111
831.29992	0.00765
829.37115	0.00509
827.44238	0.0035
825.51361	0.00284
823.58484	0.00308
821.65607	0.00405
819.7273	0.00571
817.79853	0.00782
815.86976	0.00982
813.94099	0.0111
812.01222	0.01163
810.08345	0.01198
808.15468	0.01258
806.22591	0.01339
804.29714	0.01412
802.36837	0.01457
800.4396	0.01474
798.51083	0.01477
796.58206	0.01482
794.65329	0.01514
792.72452	0.01582
790.79575	0.01671
788.86698	0.01765
786.93821	0.01854
785.00944	0.01968
783.08067	0.0217
781.1519	0.02505
779.22313	0.02972
777.29436	0.0354
775.36558	0.04154
773.43681	0.04735
771.50804	0.05223
769.57927	0.05649
767.6505	0.06126
765.72173	0.06737
763.79296	0.07446
761.86419	0.0816
759.93542	0.08757
758.00665	0.091
756.07788	0.09074
754.14911	0.08657
752.22034	0.07978
750.29157	0.07239
748.3628	0.06572
746.43403	0.06033
744.50526	0.0564
742.57649	0.05389
740.64772	0.05256
738.71895	0.05197
736.79018	0.05199
734.86141	0.05258
732.93264	0.05362
731.00387	0.05501
729.0751	0.05656
727.14633	0.05787
725.21756	0.05881
723.28879	0.06075
721.36002	0.06088
719.43125	0.06322
717.50248	0.06719
715.57371	0.07049
713.64494	0.07583
711.71617	0.08295
709.7874	0.09053
707.85863	0.09741
705.92986	0.1025
704.00109	0.10486
702.07232	0.10401
700.14355	0.10076
698.21478	0.09644
696.28601	0.09211
694.35724	0.08864
692.42847	0.08628
690.4997	0.08491
688.57093	0.08423
686.64216	0.0838
684.71339	0.08359
682.78462	0.0834
680.85585	0.08322
678.92708	0.08279
676.99831	0.08168
675.06954	0.08155
673.14077	0.09096
671.212	0.10738
669.28323	0.07762
667.35446	0.03751
665.42569	0.09438
663.49692	0.09171
661.56815	0.07845
659.63938	0.07738
657.71061	0.07931
655.78184	0.0797
653.85307	0.08071
651.9243	0.08053
649.99553	0.07964
648.06676	0.07891
646.13799	0.0777
644.20922	0.07584
642.28045	0.07389
640.35168	0.07217
638.42291	0.07055
636.49414	0.06908
634.56537	0.0679
632.6366	0.0669
630.70783	0.06623
628.77906	0.06588
626.85029	0.06676
624.92152	0.06874
622.99275	0.07182
621.06398	0.07583
619.13521	0.08079
617.20644	0.087
615.27767	0.09401
613.3489	0.10067
611.42013	0.10608
609.49136	0.10977
607.56259	0.11152
605.63382	0.11161
603.70505	0.11094
601.77627	0.11044
599.8475	0.11087
597.91873	0.11245
595.98996	0.11488
594.06119	0.11789
592.13242	0.12168
590.20365	0.12644
588.27488	0.13193
586.34611	0.13776
584.41734	0.14313
582.48857	0.14709
580.5598	0.14902
578.63103	0.14856
576.70226	0.14569
574.77349	0.14105
572.84472	0.1356
570.91595	0.13
568.98718	0.12458
567.05841	0.11951
565.12964	0.11465
563.20087	0.10977
561.2721	0.10482
559.34333	0.09989
557.41456	0.09514
555.48579	0.09078
553.55702	0.08699
551.62825	0.08379
549.69948	0.08136
547.77071	0.07979
545.84194	0.07913
543.91317	0.0794
541.9844	0.08047
540.05563	0.08211
538.12686	0.08422
536.19809	0.08688
534.26932	0.09005
532.34055	0.09323
530.41178	0.09569
528.48301	0.09693
526.55424	0.0969
524.62547	0.09565
522.6967	0.09318
520.76793	0.08953
518.83916	0.08513
516.91039	0.08072
514.98162	0.07674
513.05285	0.0731
511.12408	0.06979
509.19531	0.06691
507.26654	0.06451
505.33777	0.06265
503.409	0.06125
501.48023	0.06
499.55146	0.0585
497.62269	0.05675
495.69392	0.05478
493.76515	0.05272
491.83638	0.05069
489.90761	0.04881
487.97884	0.04727
486.05007	0.04639
484.1213	0.04624
482.19253	0.04637
480.26376	0.04619
478.33499	0.04547
476.40622	0.0439
474.47745	0.04117
472.54868	0.03746
470.61991	0.03372
468.69114	0.03052
466.76237	0.02771
464.8336	0.02505
462.90483	0.02257
460.97606	0.02037
459.04729	0.01838
457.11852	0.01678
455.18975	0.01598
453.26098	0.01584
451.33221	0.01602
449.40344	0.01657
447.47467	0.01755
445.5459	0.01871
443.61713	0.01978
441.68836	0.02077
439.75959	0.02166
437.83082	0.0223
435.90205	0.02271
433.97328	0.02288
432.04451	0.02277
430.11573	0.02248
428.18696	0.02191
426.25819	0.02109
424.32942	0.02043
422.40065	0.02003
420.47188	0.01959
418.54311	0.01913
416.61434	0.01882
414.68557	0.01854
412.7568	0.01791
410.82803	0.01657
408.89926	0.01456
406.97049	0.01233
405.04172	0.01035
403.11295	0.00871
401.18418	0.00726
399.25541	0.00589