3996.41167	0.01792
3994.4829	0.01765
3992.55413	0.0174
3990.62536	0.01717
3988.69659	0.01696
3986.76782	0.01675
3984.83905	0.01657
3982.91028	0.0164
3980.98151	0.01625
3979.05274	0.01611
3977.12397	0.01599
3975.1952	0.01588
3973.26643	0.01579
3971.33766	0.01555
3969.40889	0.01544
3967.48012	0.01544
3965.55135	0.01547
3963.62258	0.01553
3961.69381	0.01564
3959.76504	0.01575
3957.83627	0.01583
3955.9075	0.01589
3953.97873	0.01601
3952.04996	0.01625
3950.12119	0.01655
3948.19242	0.01683
3946.26365	0.01705
3944.33488	0.01722
3942.40611	0.01728
3940.47734	0.01725
3938.54857	0.01726
3936.6198	0.01737
3934.69103	0.01753
3932.76226	0.01769
3930.83349	0.01781
3928.90472	0.01781
3926.97595	0.01762
3925.04718	0.01737
3923.11841	0.01726
3921.18964	0.01729
3919.26087	0.01744
3917.3321	0.01769
3915.40333	0.01792
3913.47456	0.01809
3911.54579	0.01828
3909.61702	0.01855
3907.68825	0.01888
3905.75948	0.01926
3903.83071	0.01961
3901.90194	0.01991
3899.97317	0.02025
3898.0444	0.0206
3896.11563	0.02089
3894.18686	0.02111
3892.25809	0.02129
3890.32932	0.02141
3888.40055	0.02143
3886.47178	0.02131
3884.54301	0.02111
3882.61424	0.02089
3880.68547	0.02075
3878.7567	0.02071
3876.82792	0.02066
3874.89915	0.02063
3872.97038	0.02076
3871.04161	0.021
3869.11284	0.02127
3867.18407	0.02158
3865.2553	0.02194
3863.32653	0.02229
3861.39776	0.0226
3859.46899	0.02285
3857.54022	0.02306
3855.61145	0.02324
3853.68268	0.02335
3851.75391	0.02336
3849.82514	0.02329
3847.89637	0.02317
3845.9676	0.02296
3844.03883	0.0226
3842.11006	0.02211
3840.18129	0.02162
3838.25252	0.02121
3836.32375	0.02095
3834.39498	0.02075
3832.46621	0.02042
3830.53744	0.01994
3828.60867	0.01961
3826.6799	0.01953
3824.75113	0.01952
3822.82236	0.01943
3820.89359	0.01929
3818.96482	0.01914
3817.03605	0.01902
3815.10728	0.01893
3813.17851	0.01884
3811.24974	0.01876
3809.32097	0.01866
3807.3922	0.01856
3805.46343	0.01846
3803.53466	0.01833
3801.60589	0.01809
3799.67712	0.01771
3797.74835	0.01723
3795.81958	0.01678
3793.89081	0.01635
3791.96204	0.01589
3790.03327	0.01549
3788.1045	0.01514
3786.17573	0.01478
3784.24696	0.01439
3782.31819	0.01402
3780.38942	0.01369
3778.46065	0.01344
3776.53188	0.01333
3774.60311	0.01326
3772.67434	0.01324
3770.74557	0.01344
3768.8168	0.01383
3766.88803	0.01431
3764.95926	0.01499
3763.03049	0.01584
3761.10172	0.01679
3759.17295	0.01773
3757.24418	0.01843
3755.31541	0.01897
3753.38664	0.01966
3751.45787	0.0203
3749.5291	0.02063
3747.60033	0.02042
3745.67156	0.0199
3743.74279	0.01916
3741.81402	0.01828
3739.88525	0.01716
3737.95648	0.01586
3736.02771	0.01467
3734.09894	0.01348
3732.17017	0.01244
3730.2414	0.01137
3728.31263	0.01026
3726.38386	0.00921
3724.45509	0.0083
3722.52632	0.0076
3720.59755	0.0072
3718.66878	0.00723
3716.74001	0.0077
3714.81124	0.00825
3712.88247	0.00879
3710.9537	0.00955
3709.02493	0.01117
3707.09616	0.01349
3705.16739	0.01606
3703.23861	0.01859
3701.30984	0.02089
3699.38107	0.02302
3697.4523	0.02513
3695.52353	0.02753
3693.59476	0.03013
3691.66599	0.03289
3689.73722	0.03586
3687.80845	0.03871
3685.87968	0.04153
3683.95091	0.04403
3682.02214	0.04623
3680.09337	0.04811
3678.1646	0.04982
3676.23583	0.05152
3674.30706	0.05307
3672.37829	0.05425
3670.44952	0.05509
3668.52075	0.05558
3666.59198	0.05612
3664.66321	0.05696
3662.73444	0.05808
3660.80567	0.05907
3658.8769	0.0597
3656.94813	0.0599
3655.01936	0.05966
3653.09059	0.0591
3651.16182	0.05869
3649.23305	0.05858
3647.30428	0.05843
3645.37551	0.05829
3643.44674	0.05834
3641.51797	0.05843
3639.5892	0.05869
3637.66043	0.05915
3635.73166	0.05987
3633.80289	0.0611
3631.87412	0.06274
3629.94535	0.06461
3628.01658	0.06669
3626.08781	0.06894
3624.15904	0.07139
3622.23027	0.0741
3620.3015	0.0771
3618.37273	0.08018
3616.44396	0.08339
3614.51519	0.08652
3612.58642	0.08968
3610.65765	0.09278
3608.72888	0.09585
3606.80011	0.09907
3604.87134	0.10257
3602.94257	0.10618
3601.0138	0.10967
3599.08503	0.11316
3597.15626	0.11668
3595.22749	0.12029
3593.29872	0.12419
3591.36995	0.1282
3589.44118	0.13231
3587.51241	0.13668
3585.58364	0.1411
3583.65487	0.14557
3581.7261	0.15015
3579.79733	0.15472
3577.86856	0.1592
3575.93979	0.16369
3574.01102	0.16831
3572.08225	0.17285
3570.15348	0.17737
3568.22471	0.18179
3566.29594	0.1864
3564.36717	0.19112
3562.4384	0.19604
3560.50963	0.20104
3558.58086	0.20599
3556.65209	0.21086
3554.72332	0.21566
3552.79455	0.22041
3550.86578	0.22513
3548.93701	0.2298
3547.00824	0.23441
3545.07947	0.239
3543.1507	0.24366
3541.22193	0.24845
3539.29316	0.25328
3537.36439	0.2581
3535.43562	0.26288
3533.50685	0.26761
3531.57807	0.27228
3529.6493	0.27691
3527.72053	0.2815
3525.79176	0.28607
3523.86299	0.29073
3521.93422	0.29559
3520.00545	0.30059
3518.07668	0.3056
3516.14791	0.31056
3514.21914	0.31546
3512.29037	0.32032
3510.3616	0.32515
3508.43283	0.32992
3506.50406	0.33465
3504.57529	0.33938
3502.64652	0.34419
3500.71775	0.34907
3498.78898	0.35396
3496.86021	0.35881
3494.93144	0.36362
3493.00267	0.36839
3491.0739	0.37312
3489.14513	0.37778
3487.21636	0.38239
3485.28759	0.38696
3483.35882	0.39153
3481.43005	0.39611
3479.50128	0.40077
3477.57251	0.40549
3475.64374	0.41019
3473.71497	0.4148
3471.7862	0.41932
3469.85743	0.42382
3467.92866	0.42834
3465.99989	0.43294
3464.07112	0.43765
3462.14235	0.44247
3460.21358	0.44739
3458.28481	0.45238
3456.35604	0.45739
3454.42727	0.46233
3452.4985	0.46727
3450.56973	0.47228
3448.64096	0.47735
3446.71219	0.48243
3444.78342	0.48748
3442.85465	0.49257
3440.92588	0.49771
3438.99711	0.50288
3437.06834	0.50802
3435.13957	0.51309
3433.2108	0.51806
3431.28203	0.52293
3429.35326	0.5277
3427.42449	0.53242
3425.49572	0.53713
3423.56695	0.54188
3421.63818	0.54666
3419.70941	0.55144
3417.78064	0.55619
3415.85187	0.5609
3413.9231	0.5656
3411.99433	0.57027
3410.06556	0.57486
3408.13679	0.5794
3406.20802	0.58394
3404.27925	0.58848
3402.35048	0.59297
3400.42171	0.59744
3398.49294	0.6019
3396.56417	0.60631
3394.6354	0.61061
3392.70663	0.61475
3390.77786	0.61878
3388.84909	0.62272
3386.92032	0.62663
3384.99155	0.63045
3383.06278	0.63413
3381.13401	0.63764
3379.20524	0.641
3377.27647	0.64424
3375.3477	0.64733
3373.41893	0.65032
3371.49016	0.65319
3369.56139	0.65593
3367.63262	0.65859
3365.70385	0.66114
3363.77508	0.66356
3361.84631	0.66585
3359.91753	0.66804
3357.98876	0.67009
3356.05999	0.672
3354.13122	0.67378
3352.20245	0.67544
3350.27368	0.67696
3348.34491	0.67838
3346.41614	0.67972
3344.48737	0.681
3342.5586	0.68223
3340.62983	0.68342
3338.70106	0.68455
3336.77229	0.68562
3334.84352	0.68661
3332.91475	0.68753
3330.98598	0.68839
3329.05721	0.68923
3327.12844	0.69002
3325.19967	0.69074
3323.2709	0.69139
3321.34213	0.69198
3319.41336	0.69244
3317.48459	0.69271
3315.55582	0.69281
3313.62705	0.69281
3311.69828	0.69273
3309.76951	0.69256
3307.84074	0.6923
3305.91197	0.69191
3303.9832	0.69138
3302.05443	0.6907
3300.12566	0.6899
3298.19689	0.68906
3296.26812	0.68821
3294.33935	0.68734
3292.41058	0.6864
3290.48181	0.68536
3288.55304	0.6842
3286.62427	0.68295
3284.6955	0.68165
3282.76673	0.68032
3280.83796	0.67898
3278.90919	0.67763
3276.98042	0.67624
3275.05165	0.67472
3273.12288	0.67303
3271.19411	0.6712
3269.26534	0.66931
3267.33657	0.66741
3265.4078	0.66548
3263.47903	0.66353
3261.55026	0.66156
3259.62149	0.65956
3257.69272	0.6575
3255.76395	0.65538
3253.83518	0.6532
3251.90641	0.65101
3249.97764	0.64883
3248.04887	0.64663
3246.1201	0.64436
3244.19133	0.64205
3242.26256	0.6397
3240.33379	0.6373
3238.40502	0.63486
3236.47625	0.63238
3234.54748	0.62985
3232.61871	0.62718
3230.68994	0.62432
3228.76117	0.62128
3226.8324	0.6181
3224.90363	0.61477
3222.97486	0.6113
3221.04609	0.60772
3219.11732	0.60405
3217.18855	0.60028
3215.25978	0.59633
3213.33101	0.59219
3211.40224	0.58786
3209.47347	0.58337
3207.5447	0.57881
3205.61593	0.57425
3203.68716	0.56965
3201.75839	0.56498
3199.82962	0.56024
3197.90085	0.55546
3195.97208	0.55066
3194.04331	0.54584
3192.11454	0.54096
3190.18577	0.53602
3188.257	0.53099
3186.32822	0.52592
3184.39945	0.52082
3182.47068	0.5157
3180.54191	0.51054
3178.61314	0.50533
3176.68437	0.50008
3174.7556	0.49483
3172.82683	0.48956
3170.89806	0.48428
3168.96929	0.47897
3167.04052	0.47366
3165.11175	0.4684
3163.18298	0.46319
3161.25421	0.45804
3159.32544	0.45294
3157.39667	0.44783
3155.4679	0.44271
3153.53913	0.43761
3151.61036	0.43254
3149.68159	0.42751
3147.75282	0.42247
3145.82405	0.4174
3143.89528	0.41233
3141.96651	0.40733
3140.03774	0.40243
3138.10897	0.3976
3136.1802	0.39284
3134.25143	0.38816
3132.32266	0.38358
3130.39389	0.37908
3128.46512	0.37462
3126.53635	0.37019
3124.60758	0.36578
3122.67881	0.36141
3120.75004	0.35715
3118.82127	0.353
3116.8925	0.34893
3114.96373	0.34491
3113.03496	0.34094
3111.10619	0.33702
3109.17742	0.33317
3107.24865	0.32944
3105.31988	0.32583
3103.39111	0.32233
3101.46234	0.31893
3099.53357	0.31567
3097.6048	0.31256
3095.67603	0.30959
3093.74726	0.30673
3091.81849	0.30399
3089.88972	0.30136
3087.96095	0.29884
3086.03218	0.29645
3084.10341	0.29416
3082.17464	0.2919
3080.24587	0.28964
3078.3171	0.28741
3076.38833	0.28522
3074.45956	0.28308
3072.53079	0.28095
3070.60202	0.2788
3068.67325	0.27666
3066.74448	0.27457
3064.81571	0.27255
3062.88694	0.27058
3060.95817	0.26867
3059.0294	0.26678
3057.10063	0.2649
3055.17186	0.26307
3053.24309	0.26135
3051.31432	0.25975
3049.38555	0.25826
3047.45678	0.25687
3045.52801	0.25557
3043.59924	0.25437
3041.67047	0.25333
3039.7417	0.25249
3037.81293	0.25184
3035.88416	0.2514
3033.95539	0.25119
3032.02662	0.25129
3030.09785	0.25174
3028.16908	0.25249
3026.24031	0.25356
3024.31154	0.25498
3022.38277	0.25679
3020.454	0.25903
3018.52523	0.26171
3016.59646	0.26477
3014.66768	0.26799
3012.73891	0.27139
3010.81014	0.27545
3008.88137	0.28045
3006.9526	0.28627
3005.02383	0.29258
3003.09506	0.29915
3001.16629	0.30585
2999.23752	0.31259
2997.30875	0.31932
2995.37998	0.32607
2993.45121	0.33285
2991.52244	0.33964
2989.59367	0.34633
2987.6649	0.35271
2985.73613	0.35854
2983.80736	0.36365
2981.87859	0.36797
2979.94982	0.37147
2978.02105	0.37411
2976.09228	0.37582
2974.16351	0.3766
2972.23474	0.37647
2970.30597	0.37545
2968.3772	0.37376
2966.44843	0.37197
2964.51966	0.37055
2962.59089	0.36948
2960.66212	0.36852
2958.73335	0.36775
2956.80458	0.3674
2954.87581	0.36764
2952.94704	0.3686
2951.01827	0.37037
2949.0895	0.37301
2947.16073	0.37645
2945.23196	0.38053
2943.30319	0.385
2941.37442	0.38957
2939.44565	0.39404
2937.51688	0.39826
2935.58811	0.40216
2933.65934	0.40566
2931.73057	0.40869
2929.8018	0.4111
2927.87303	0.41275
2925.94426	0.41355
2924.01549	0.41373
2922.08672	0.41373
2920.15795	0.41363
2918.22918	0.41323
2916.30041	0.41245
2914.37164	0.41136
2912.44287	0.41006
2910.5141	0.40857
2908.58533	0.40691
2906.65656	0.40514
2904.72779	0.40335
2902.79902	0.4015
2900.87025	0.39946
2898.94148	0.39709
2897.01271	0.39429
2895.08394	0.39104
2893.15517	0.38733
2891.2264	0.38317
2889.29763	0.37869
2887.36886	0.37396
2885.44009	0.36888
2883.51132	0.36327
2881.58255	0.35715
2879.65378	0.3507
2877.72501	0.34415
2875.79624	0.33743
2873.86747	0.33023
2871.9387	0.32245
2870.00993	0.31429
2868.08116	0.30595
2866.15239	0.29752
2864.22362	0.28912
2862.29485	0.28096
2860.36608	0.27319
2858.43731	0.26584
2856.50854	0.25887
2854.57977	0.25221
2852.651	0.24591
2850.72223	0.24005
2848.79346	0.23466
2846.86469	0.22971
2844.93592	0.22522
2843.00714	0.2212
2841.07837	0.21757
2839.1496	0.21423
2837.22083	0.21112
2835.29206	0.20816
2833.36329	0.20533
2831.43452	0.20258
2829.50575	0.19987
2827.57698	0.19718
2825.64821	0.19454
2823.71944	0.19195
2821.79067	0.18942
2819.8619	0.18699
2817.93313	0.1847
2816.00436	0.18253
2814.07559	0.18045
2812.14682	0.17846
2810.21805	0.17661
2808.28928	0.17483
2806.36051	0.17308
2804.43174	0.17135
2802.50297	0.16966
2800.5742	0.16802
2798.64543	0.16643
2796.71666	0.16488
2794.78789	0.1634
2792.85912	0.16197
2790.93035	0.16056
2789.00158	0.1592
2787.07281	0.15794
2785.14404	0.15676
2783.21527	0.15561
2781.2865	0.15449
2779.35773	0.15342
2777.42896	0.1524
2775.50019	0.15142
2773.57142	0.15049
2771.64265	0.14961
2769.71388	0.14878
2767.78511	0.148
2765.85634	0.14728
2763.92757	0.1466
2761.9988	0.1459
2760.07003	0.14516
2758.14126	0.14443
2756.21249	0.1437
2754.28372	0.14292
2752.35495	0.14207
2750.42618	0.14117
2748.49741	0.14028
2746.56864	0.13939
2744.63987	0.13852
2742.7111	0.13766
2740.78233	0.1368
2738.85356	0.13592
2736.92479	0.13501
2734.99602	0.13408
2733.06725	0.13316
2731.13848	0.13225
2729.20971	0.13135
2727.28094	0.13047
2725.35217	0.12964
2723.4234	0.12883
2721.49463	0.12801
2719.56586	0.12718
2717.63709	0.12636
2715.70832	0.12552
2713.77955	0.12469
2711.85078	0.12386
2709.92201	0.12304
2707.99324	0.1222
2706.06447	0.12137
2704.1357	0.12059
2702.20693	0.11991
2700.27816	0.11934
2698.34939	0.11885
2696.42062	0.1184
2694.49185	0.11796
2692.56308	0.11756
2690.63431	0.11717
2688.70554	0.11679
2686.77677	0.11645
2684.848	0.11617
2682.91923	0.1159
2680.99046	0.11562
2679.06169	0.11534
2677.13292	0.11507
2675.20415	0.1148
2673.27538	0.11449
2671.34661	0.11411
2669.41783	0.11368
2667.48906	0.11321
2665.56029	0.11271
2663.63152	0.11219
2661.70275	0.11163
2659.77398	0.11105
2657.84521	0.11044
2655.91644	0.10981
2653.98767	0.10918
2652.0589	0.10851
2650.13013	0.10777
2648.20136	0.107
2646.27259	0.10619
2644.34382	0.10531
2642.41505	0.10437
2640.48628	0.1034
2638.55751	0.10239
2636.62874	0.10135
2634.69997	0.1003
2632.7712	0.09923
2630.84243	0.09812
2628.91366	0.09695
2626.98489	0.09573
2625.05612	0.0945
2623.12735	0.09328
2621.19858	0.09207
2619.26981	0.09088
2617.34104	0.08968
2615.41227	0.08847
2613.4835	0.08725
2611.55473	0.08601
2609.62596	0.08479
2607.69719	0.08361
2605.76842	0.0825
2603.83965	0.08145
2601.91088	0.08045
2599.98211	0.07949
2598.05334	0.07855
2596.12457	0.07766
2594.1958	0.07681
2592.26703	0.07604
2590.33826	0.07532
2588.40949	0.0746
2586.48072	0.07386
2584.55195	0.0731
2582.62318	0.07234
2580.69441	0.07159
2578.76564	0.07086
2576.83687	0.0701
2574.9081	0.06932
2572.97933	0.06851
2571.05056	0.06771
2569.12179	0.06698
2567.19302	0.06628
2565.26425	0.06557
2563.33548	0.06487
2561.40671	0.06422
2559.47794	0.06362
2557.54917	0.06306
2555.6204	0.06254
2553.69163	0.06203
2551.76286	0.06153
2549.83409	0.06102
2547.90532	0.06052
2545.97655	0.06007
2544.04778	0.05961
2542.11901	0.05912
2540.19024	0.05862
2538.26147	0.05815
2536.3327	0.05769
2534.40393	0.05722
2532.47516	0.05674
2530.54639	0.05623
2528.61762	0.05572
2526.68885	0.05525
2524.76008	0.05483
2522.83131	0.05444
2520.90254	0.054
2518.97377	0.05351
2517.045	0.05298
2515.11623	0.05246
2513.18746	0.05195
2511.25869	0.05144
2509.32992	0.05091
2507.40115	0.05036
2505.47238	0.04981
2503.54361	0.0493
2501.61484	0.04885
2499.68607	0.04844
2497.75729	0.048
2495.82852	0.04754
2493.89975	0.0471
2491.97098	0.04671
2490.04221	0.0463
2488.11344	0.0459
2486.18467	0.0455
2484.2559	0.04514
2482.32713	0.04481
2480.39836	0.04453
2478.46959	0.04428
2476.54082	0.04402
2474.61205	0.04371
2472.68328	0.04337
2470.75451	0.04305
2468.82574	0.04273
2466.89697	0.04243
2464.9682	0.04214
2463.03943	0.04188
2461.11066	0.04166
2459.18189	0.04148
2457.25312	0.04132
2455.32435	0.04115
2453.39558	0.04095
2451.46681	0.04072
2449.53804	0.04049
2447.60927	0.04029
2445.6805	0.04007
2443.75173	0.03982
2441.82296	0.03957
2439.89419	0.0393
2437.96542	0.03901
2436.03665	0.03868
2434.10788	0.03832
2432.17911	0.03792
2430.25034	0.03745
2428.32157	0.03692
2426.3928	0.03637
2424.46403	0.03579
2422.53526	0.0352
2420.60649	0.03459
2418.67772	0.03398
2416.74895	0.03336
2414.82018	0.03276
2412.89141	0.03218
2410.96264	0.0316
2409.03387	0.03102
2407.1051	0.03044
2405.17633	0.02986
2403.24756	0.02929
2401.31879	0.02871
2399.39002	0.02813
2397.46125	0.02755
2395.53248	0.02697
2393.60371	0.02639
2391.67494	0.02582
2389.74617	0.02524
2387.8174	0.02466
2385.88863	0.02408
2383.95986	0.0235
2382.03109	0.02292
2380.10232	0.02235
2378.17355	0.02177
2376.24478	0.02119
2374.31601	0.02061
2372.38724	0.02003
2370.45847	0.01945
2368.5297	0.01888
2366.60093	0.01833
2364.67216	0.01786
2362.74339	0.0174
2360.81462	0.01693
2358.88585	0.01646
2356.95708	0.01599
2355.02831	0.01552
2353.09954	0.01506
2351.17077	0.01459
2349.242	0.01412
2347.31323	0.01365
2345.38446	0.01318
2343.45569	0.01272
2341.52692	0.01225
2339.59815	0.01178
2337.66938	0.01131
2335.74061	0.01084
2333.81184	0.01038
2331.88307	0.00991
2329.9543	0.00944
2328.02553	0.00897
2326.09675	0.0085
2324.16798	0.00804
2322.23921	0.00757
2320.31044	0.0071
2318.38167	0.00663
2316.4529	0.00616
2314.52413	0.00529
2312.59536	0.00445
2310.66659	0.00355
2308.73782	0.0028
2306.80905	0.00235
2304.88028	0.00233
2302.95151	0.00268
2301.02274	0.00331
2299.09397	0.00426
2297.1652	0.00544
2295.23643	0.00678
2293.30766	0.00825
2291.37889	0.0098
2289.45012	0.01136
2287.52135	0.01286
2285.59258	0.01432
2283.66381	0.01578
2281.73504	0.01704
2279.80627	0.01811
2277.8775	0.01904
2275.94873	0.01972
2274.01996	0.0201
2272.09119	0.02006
2270.16242	0.01966
2268.23365	0.01886
2266.30488	0.01822
2264.37611	0.0175
2262.44734	0.01694
2260.51857	0.01653
2258.5898	0.01634
2256.66103	0.01626
2254.73226	0.01622
2252.80349	0.01625
2250.87472	0.01626
2248.94595	0.01627
2247.01718	0.01627
2245.08841	0.01627
2243.15964	0.01629
2241.23087	0.01633
2239.3021	0.01638
2237.37333	0.01643
2235.44456	0.0164
2233.51579	0.01642
2231.58702	0.01648
2229.65825	0.01651
2227.72948	0.01652
2225.80071	0.01648
2223.87194	0.01647
2221.94317	0.01645
2220.0144	0.01635
2218.08563	0.01615
2216.15686	0.01592
2214.22809	0.01582
2212.29932	0.0159
2210.37055	0.01604
2208.44178	0.01614
2206.51301	0.01625
2204.58424	0.01639
2202.65547	0.01654
2200.7267	0.01669
2198.79793	0.01687
2196.86916	0.01705
2194.94039	0.01722
2193.01162	0.01739
2191.08285	0.01756
2189.15408	0.0177
2187.22531	0.01779
2185.29654	0.01787
2183.36777	0.01796
2181.439	0.01794
2179.51023	0.01768
2177.58146	0.01722
2175.65269	0.01667
2173.72392	0.01607
2171.79515	0.01546
2169.86638	0.01496
2167.93761	0.01461
2166.00884	0.01441
2164.08007	0.01429
2162.1513	0.01428
2160.22253	0.01446
2158.29376	0.01482
2156.36499	0.01534
2154.43622	0.01599
2152.50744	0.01673
2150.57867	0.01755
2148.6499	0.01845
2146.72113	0.01936
2144.79236	0.02025
2142.86359	0.02113
2140.93482	0.022
2139.00605	0.02281
2137.07728	0.02355
2135.14851	0.02412
2133.21974	0.02447
2131.29097	0.02475
2129.3622	0.02502
2127.43343	0.02523
2125.50466	0.02534
2123.57589	0.02539
2121.64712	0.02539
2119.71835	0.02536
2117.78958	0.02532
2115.86081	0.0253
2113.93204	0.02533
2112.00327	0.02536
2110.0745	0.02534
2108.14573	0.02522
2106.21696	0.02503
2104.28819	0.02483
2102.35942	0.02465
2100.43065	0.02448
2098.50188	0.02429
2096.57311	0.02412
2094.64434	0.02399
2092.71557	0.02387
2090.7868	0.02374
2088.85803	0.02359
2086.92926	0.02336
2085.00049	0.02305
2083.07172	0.02267
2081.14295	0.02222
2079.21418	0.02175
2077.28541	0.02134
2075.35664	0.02099
2073.42787	0.0207
2071.4991	0.02045
2069.57033	0.02019
2067.64156	0.01986
2065.71279	0.01937
2063.78402	0.01867
2061.85525	0.01791
2059.92648	0.01728
2057.99771	0.01679
2056.06894	0.01629
2054.14017	0.01565
2052.2114	0.01488
2050.28263	0.01408
2048.35386	0.0133
2046.42509	0.01258
2044.49632	0.01194
2042.56755	0.01137
2040.63878	0.01079
2038.71001	0.0102
2036.78124	0.00965
2034.85247	0.00915
2032.9237	0.00875
2030.99493	0.00846
2029.06616	0.00821
2027.13739	0.00789
2025.20862	0.00745
2023.27985	0.00688
2021.35108	0.00629
2019.42231	0.00575
2017.49354	0.00538
2015.56477	0.00522
2013.636	0.00519
2011.70723	0.00511
2009.77846	0.00492
2007.84969	0.00467
2005.92092	0.00449
2003.99215	0.00452
2002.06338	0.00473
2000.13461	0.00496
1998.20584	0.00504
1996.27707	0.00491
1994.3483	0.00459
1992.41953	0.00417
1990.49076	0.00366
1988.56199	0.00307
1986.63322	0.00248
1984.70445	0.00195
1982.77568	0.00141
1980.8469	8.31469E-4
1978.91813	3.2387E-4
1976.98936	2.5797E-5
1975.06059	0
1973.13182	2.29176E-4
1971.20305	6.56473E-4
1969.27428	0.00122
1967.34551	0.00191
1965.41674	0.00274
1963.48797	0.0037
1961.5592	0.00479
1959.63043	0.00598
1957.70166	0.00721
1955.77289	0.00828
1953.84412	0.00912
1951.91535	0.00981
1949.98658	0.01042
1948.05781	0.01101
1946.12904	0.01158
1944.20027	0.01209
1942.2715	0.01251
1940.34273	0.01289
1938.41396	0.01325
1936.48519	0.01357
1934.55642	0.01389
1932.62765	0.01425
1930.69888	0.01462
1928.77011	0.01502
1926.84134	0.01545
1924.91257	0.01591
1922.9838	0.01637
1921.05503	0.0168
1919.12626	0.0172
1917.19749	0.01756
1915.26872	0.01788
1913.33995	0.01816
1911.41118	0.01837
1909.48241	0.01846
1907.55364	0.01825
1905.62487	0.01801
1903.6961	0.01776
1901.76733	0.01748
1899.83856	0.01718
1897.90979	0.01685
1895.98102	0.01652
1894.05225	0.01621
1892.12348	0.01589
1890.19471	0.01551
1888.26594	0.01505
1886.33717	0.01455
1884.4084	0.01405
1882.47963	0.0136
1880.55086	0.0132
1878.62209	0.01281
1876.69332	0.01243
1874.76455	0.01207
1872.83578	0.01173
1870.90701	0.01142
1868.97824	0.01113
1867.04947	0.01084
1865.1207	0.01055
1863.19193	0.01028
1861.26316	0.01007
1859.33439	0.00989
1857.40562	0.00976
1855.47685	0.00971
1853.54808	0.00973
1851.61931	0.00978
1849.69054	0.00983
1847.76177	0.00981
1845.833	0.00972
1843.90423	0.00957
1841.97546	0.00943
1840.04669	0.00933
1838.11792	0.00928
1836.18915	0.00927
1834.26038	0.00924
1832.33161	0.00921
1830.40284	0.00924
1828.47407	0.00942
1826.5453	0.00979
1824.61653	0.01034
1822.68776	0.01118
1820.75899	0.01251
1818.83022	0.01455
1816.90145	0.01738
1814.97268	0.02099
1813.04391	0.02547
1811.11514	0.03088
1809.18636	0.03711
1807.25759	0.04395
1805.32882	0.05119
1803.40005	0.05871
1801.47128	0.06641
1799.54251	0.07425
1797.61374	0.08216
1795.68497	0.09005
1793.7562	0.09784
1791.82743	0.10545
1789.89866	0.11284
1787.96989	0.12004
1786.04112	0.12708
1784.11235	0.13399
1782.18358	0.14086
1780.25481	0.14775
1778.32604	0.15475
1776.39727	0.1619
1774.4685	0.16925
1772.53973	0.17663
1770.61096	0.18359
1768.68219	0.18966
1766.75342	0.19459
1764.82465	0.19817
1762.89588	0.20017
1760.96711	0.20047
1759.03834	0.19913
1757.10957	0.19633
1755.1808	0.19218
1753.25203	0.18665
1751.32326	0.1798
1749.39449	0.17171
1747.46572	0.16257
1745.53695	0.15261
1743.60818	0.14211
1741.67941	0.13136
1739.75064	0.12054
1737.82187	0.10988
1735.8931	0.09975
1733.96433	0.09044
1732.03556	0.0821
1730.10679	0.0748
1728.17802	0.06857
1726.24925	0.06339
1724.32048	0.05909
1722.39171	0.05559
1720.46294	0.05318
1718.53417	0.05214
1716.6054	0.05267
1714.67663	0.05482
1712.74786	0.05859
1710.81909	0.06378
1708.89032	0.07003
1706.96155	0.07696
1705.03278	0.08419
1703.10401	0.09139
1701.17524	0.09828
1699.24647	0.10463
1697.3177	0.11018
1695.38893	0.11468
1693.46016	0.11795
1691.53139	0.11995
1689.60262	0.12073
1687.67385	0.12035
1685.74508	0.11889
1683.81631	0.11645
1681.88754	0.11323
1679.95877	0.10947
1678.03	0.10517
1676.10123	0.10041
1674.17246	0.09556
1672.24369	0.09109
1670.31492	0.08719
1668.38615	0.08396
1666.45738	0.08146
1664.52861	0.07973
1662.59984	0.07877
1660.67107	0.07845
1658.7423	0.07861
1656.81353	0.07923
1654.88476	0.08029
1652.95599	0.08173
1651.02722	0.08342
1649.09845	0.08525
1647.16968	0.08712
1645.24091	0.08893
1643.31214	0.09059
1641.38337	0.0921
1639.4546	0.0934
1637.52583	0.09434
1635.59705	0.09478
1633.66828	0.09463
1631.73951	0.0938
1629.81074	0.09229
1627.88197	0.09034
1625.9532	0.08814
1624.02443	0.08567
1622.09566	0.08298
1620.16689	0.08012
1618.23812	0.07712
1616.30935	0.07399
1614.38058	0.07072
1612.45181	0.06737
1610.52304	0.06401
1608.59427	0.06075
1606.6655	0.05763
1604.73673	0.05468
1602.80796	0.05193
1600.87919	0.04939
1598.95042	0.04705
1597.02165	0.04495
1595.09288	0.04317
1593.16411	0.04169
1591.23534	0.04043
1589.30657	0.03945
1587.3778	0.03883
1585.44903	0.03865
1583.52026	0.03884
1581.59149	0.03926
1579.66272	0.0399
1577.73395	0.04082
1575.80518	0.04204
1573.87641	0.0435
1571.94764	0.04514
1570.01887	0.04695
1568.0901	0.0489
1566.16133	0.05095
1564.23256	0.05304
1562.30379	0.05505
1560.37502	0.05693
1558.44625	0.05872
1556.51748	0.06044
1554.58871	0.06203
1552.65994	0.06346
1550.73117	0.06477
1548.8024	0.06596
1546.87363	0.06698
1544.94486	0.06787
1543.01609	0.06869
1541.08732	0.0695
1539.15855	0.07028
1537.22978	0.0709
1535.30101	0.07135
1533.37224	0.07181
1531.44347	0.0724
1529.5147	0.07297
1527.58593	0.07331
1525.65716	0.0734
1523.72839	0.07335
1521.79962	0.07319
1519.87085	0.07293
1517.94208	0.07251
1516.01331	0.0719
1514.08454	0.07115
1512.15577	0.07019
1510.227	0.06887
1508.29823	0.06714
1506.36946	0.06521
1504.44069	0.06334
1502.51192	0.06177
1500.58315	0.06056
1498.65438	0.05963
1496.72561	0.05878
1494.79684	0.05787
1492.86807	0.05692
1490.9393	0.05604
1489.01053	0.0553
1487.08176	0.05477
1485.15299	0.05463
1483.22422	0.05504
1481.29545	0.05618
1479.36668	0.05825
1477.43791	0.06127
1475.50914	0.06503
1473.58037	0.06931
1471.6516	0.07387
1469.72283	0.07848
1467.79406	0.08288
1465.86529	0.08687
1463.93651	0.09038
1462.00774	0.09352
1460.07897	0.09637
1458.1502	0.09891
1456.22143	0.10102
1454.29266	0.10242
1452.36389	0.1029
1450.43512	0.10241
1448.50635	0.10114
1446.57758	0.09942
1444.64881	0.09747
1442.72004	0.09546
1440.79127	0.09371
1438.8625	0.0927
1436.93373	0.09266
1435.00496	0.0936
1433.07619	0.09544
1431.14742	0.09805
1429.21865	0.10135
1427.28988	0.10522
1425.36111	0.10942
1423.43234	0.1136
1421.50357	0.11744
1419.5748	0.12075
1417.64603	0.12352
1415.71726	0.1259
1413.78849	0.12789
1411.85972	0.12933
1409.93095	0.13003
1408.00218	0.12989
1406.07341	0.12896
1404.14464	0.12736
1402.21587	0.12518
1400.2871	0.12256
1398.35833	0.11964
1396.42956	0.11673
1394.50079	0.11434
1392.57202	0.11293
1390.64325	0.11266
1388.71448	0.11348
1386.78571	0.1153
1384.85694	0.11793
1382.92817	0.12106
1380.9994	0.12428
1379.07063	0.12727
1377.14186	0.12984
1375.21309	0.13195
1373.28432	0.13363
1371.35555	0.13502
1369.42678	0.13605
1367.49801	0.13649
1365.56924	0.13611
1363.64047	0.1349
1361.7117	0.13308
1359.78293	0.13089
1357.85416	0.12853
1355.92539	0.12619
1353.99662	0.12408
1352.06785	0.12243
1350.13908	0.12154
1348.21031	0.12157
1346.28154	0.12246
1344.35277	0.12392
1342.424	0.12563
1340.49523	0.12729
1338.56646	0.12863
1336.63769	0.12947
1334.70892	0.1298
1332.78015	0.12969
1330.85138	0.12923
1328.92261	0.12846
1326.99384	0.12739
1325.06507	0.12606
1323.1363	0.1246
1321.20753	0.12314
1319.27876	0.12183
1317.34999	0.1208
1315.42122	0.12007
1313.49245	0.11963
1311.56368	0.11941
1309.63491	0.11931
1307.70614	0.11927
1305.77737	0.11925
1303.8486	0.1192
1301.91983	0.11909
1299.99106	0.1188
1298.06229	0.11817
1296.13352	0.11703
1294.20475	0.11527
1292.27597	0.11287
1290.3472	0.10988
1288.41843	0.10641
1286.48966	0.10257
1284.56089	0.09845
1282.63212	0.0941
1280.70335	0.08966
1278.77458	0.08535
1276.84581	0.08145
1274.91704	0.07817
1272.98827	0.07564
1271.0595	0.07391
1269.13073	0.07291
1267.20196	0.07256
1265.27319	0.07291
1263.34442	0.07404
1261.41565	0.07595
1259.48688	0.07846
1257.55811	0.08138
1255.62934	0.08449
1253.70057	0.08756
1251.7718	0.09034
1249.84303	0.09264
1247.91426	0.09427
1245.98549	0.09509
1244.05672	0.09496
1242.12795	0.09378
1240.19918	0.09146
1238.27041	0.08801
1236.34164	0.08351
1234.41287	0.07819
1232.4841	0.07236
1230.55533	0.06637
1228.62656	0.06056
1226.69779	0.05526
1224.76902	0.05072
1222.84025	0.04711
1220.91148	0.04455
1218.98271	0.04309
1217.05394	0.04261
1215.12517	0.04282
1213.1964	0.04338
1211.26763	0.04416
1209.33886	0.04507
1207.41009	0.04604
1205.48132	0.04694
1203.55255	0.04759
1201.62378	0.04777
1199.69501	0.04722
1197.76624	0.04573
1195.83747	0.0432
1193.9087	0.03962
1191.97993	0.03519
1190.05116	0.03027
1188.12239	0.02547
1186.19362	0.02167
1184.26485	0.01994
1182.33608	0.02134
1180.40731	0.02674
1178.47854	0.0367
1176.54977	0.05131
1174.621	0.07023
1172.69223	0.09276
1170.76346	0.11791
1168.83469	0.14462
1166.90592	0.17182
1164.97715	0.19848
1163.04838	0.22359
1161.11961	0.24615
1159.19084	0.2653
1157.26207	0.2804
1155.3333	0.29105
1153.40453	0.29711
1151.47576	0.29871
1149.54699	0.29621
1147.61822	0.29013
1145.68945	0.28113
1143.76068	0.27009
1141.83191	0.25806
1139.90314	0.24617
1137.97437	0.23557
1136.0456	0.22721
1134.11683	0.22179
1132.18806	0.21971
1130.25929	0.22108
1128.33052	0.22572
1126.40175	0.23321
1124.47298	0.24292
1122.54421	0.25409
1120.61544	0.26576
1118.68666	0.27686
1116.75789	0.28635
1114.82912	0.29341
1112.90035	0.29768
1110.97158	0.29925
1109.04281	0.29857
1107.11404	0.29643
1105.18527	0.29399
1103.2565	0.29279
1101.32773	0.29461
1099.39896	0.30096
1097.47019	0.31225
1095.54142	0.32736
1093.61265	0.34398
1091.68388	0.3598
1089.75511	0.37351
1087.82634	0.38487
1085.89757	0.39401
1083.9688	0.40093
1082.04003	0.40576
1080.11126	0.40889
1078.18249	0.41074
1076.25372	0.41148
1074.32495	0.4111
1072.39618	0.40951
1070.46741	0.40675
1068.53864	0.40314
1066.60987	0.39938
1064.6811	0.3964
1062.75233	0.3953
1060.82356	0.39734
1058.89479	0.40384
1056.96602	0.41585
1055.03725	0.43377
1053.10848	0.45698
1051.17971	0.48407
1049.25094	0.51362
1047.32217	0.54495
1045.3934	0.57848
1043.46463	0.61528
1041.53586	0.65607
1039.60709	0.70046
1037.67832	0.74716
1035.74955	0.79454
1033.82078	0.84068
1031.89201	0.88335
1029.96324	0.92045
1028.03447	0.95065
1026.1057	0.97345
1024.17693	0.98897
1022.24816	0.99763
1020.31939	1
1018.39062	0.99671
1016.46185	0.98842
1014.53308	0.97554
1012.60431	0.9582
1010.67554	0.93646
1008.74677	0.91076
1006.818	0.88215
1004.88923	0.85227
1002.96046	0.82288
1001.03169	0.79531
999.10292	0.7702
997.17415	0.74762
995.24538	0.72687
993.31661	0.70655
991.38784	0.68494
989.45907	0.66043
987.5303	0.63193
985.60153	0.59916
983.67276	0.56276
981.74399	0.52407
979.81522	0.48469
977.88645	0.44593
975.95768	0.40866
974.02891	0.37329
972.10014	0.34002
970.17137	0.30894
968.2426	0.28022
966.31383	0.25423
964.38506	0.23137
962.45629	0.2119
960.52752	0.19602
958.59875	0.18394
956.66998	0.17587
954.74121	0.17181
952.81244	0.17141
950.88367	0.17405
948.9549	0.17894
947.02612	0.18525
945.09735	0.19218
943.16858	0.19901
941.23981	0.2051
939.31104	0.20987
937.38227	0.21288
935.4535	0.21375
933.52473	0.2121
931.59596	0.20758
929.66719	0.19996
927.73842	0.18927
925.80965	0.17612
923.88088	0.16159
921.95211	0.14694
920.02334	0.13313
918.09457	0.12055
916.1658	0.10918
914.23703	0.09905
912.30826	0.09027
910.37949	0.08281
908.45072	0.07644
906.52195	0.07084
904.59318	0.06572
902.66441	0.06091
900.73564	0.05633
898.80687	0.05187
896.8781	0.04751
894.94933	0.04329
893.02056	0.03939
891.09179	0.03602
889.16302	0.03336
887.23425	0.03153
885.30548	0.03054
883.37671	0.03035
881.44794	0.03093
879.51917	0.03222
877.5904	0.03421
875.66163	0.03689
873.73286	0.04025
871.80409	0.04421
869.87532	0.04863
867.94655	0.05332
866.01778	0.05804
864.08901	0.0625
862.16024	0.06651
860.23147	0.06996
858.3027	0.07271
856.37393	0.07463
854.44516	0.07559
852.51639	0.0755
850.58762	0.07438
848.65885	0.07238
846.73008	0.06964
844.80131	0.0663
842.87254	0.0625
840.94377	0.05834
839.015	0.05395
837.08623	0.04944
835.15746	0.04495
833.22869	0.04059
831.29992	0.03644
829.37115	0.03254
827.44238	0.02886
825.51361	0.02543
823.58484	0.02231
821.65607	0.01955
819.7273	0.01712
817.79853	0.01508
815.86976	0.01354
813.94099	0.01251
812.01222	0.01196
810.08345	0.01188
808.15468	0.01223
806.22591	0.01292
804.29714	0.01387
802.36837	0.01497
800.4396	0.01616
798.51083	0.01741
796.58206	0.01876
794.65329	0.02028
792.72452	0.02198
790.79575	0.02387
788.86698	0.02597
786.93821	0.02831
785.00944	0.03096
783.08067	0.03406
781.1519	0.03778
779.22313	0.04235
777.29436	0.04783
775.36558	0.05411
773.43681	0.06085
771.50804	0.0677
769.57927	0.07431
767.6505	0.08038
765.72173	0.08567
763.79296	0.09002
761.86419	0.0933
759.93542	0.09544
758.00665	0.09641
756.07788	0.09624
754.14911	0.09502
752.22034	0.09289
750.29157	0.08998
748.3628	0.08643
746.43403	0.08235
744.50526	0.07792
742.57649	0.07334
740.64772	0.06898
738.71895	0.06517
736.79018	0.06216
734.86141	0.06014
732.93264	0.05922
731.00387	0.05932
729.0751	0.06036
727.14633	0.0623
725.21756	0.06524
723.28879	0.06926
721.36002	0.07434
719.43125	0.08037
717.50248	0.08709
715.57371	0.09419
713.64494	0.10131
711.71617	0.10814
709.7874	0.11443
707.85863	0.12001
705.92986	0.12473
704.00109	0.12849
702.07232	0.13122
700.14355	0.13287
698.21478	0.13334
696.28601	0.1322
694.35724	0.12892
692.42847	0.12573
690.4997	0.12461
688.57093	0.11955
686.64216	0.11427
684.71339	0.10966
682.78462	0.1054
680.85585	0.10171
678.92708	0.0989
676.99831	0.0969
675.06954	0.09567
673.14077	0.095
671.212	0.09469
669.28323	0.09463
667.35446	0.09468
665.42569	0.09478
663.49692	0.09486
661.56815	0.09489
659.63938	0.09482
657.71061	0.09462
655.78184	0.09428
653.85307	0.09373
651.9243	0.09288
649.99553	0.09164
648.06676	0.09056
646.13799	0.09096
644.20922	0.091
642.28045	0.08725
640.35168	0.08584
638.42291	0.08465
636.49414	0.08316
634.56537	0.0821
632.6366	0.08184
630.70783	0.08246
628.77906	0.08414
626.85029	0.0868
624.92152	0.09028
622.99275	0.09442
621.06398	0.09894
619.13521	0.10366
617.20644	0.10845
615.27767	0.1132
613.3489	0.11783
611.42013	0.12228
609.49136	0.12655
607.56259	0.13066
605.63382	0.13469
603.70505	0.13871
601.77627	0.14283
599.8475	0.1471
597.91873	0.15148
595.98996	0.15582
594.06119	0.15994
592.13242	0.16375
590.20365	0.16721
588.27488	0.17021
586.34611	0.17264
584.41734	0.17433
582.48857	0.17512
580.5598	0.17483
578.63103	0.17334
576.70226	0.17058
574.77349	0.1666
572.84472	0.16149
570.91595	0.15541
568.98718	0.14855
567.05841	0.14115
565.12964	0.13352
563.20087	0.12603
561.2721	0.11899
559.34333	0.1127
557.41456	0.10735
555.48579	0.10307
553.55702	0.09992
551.62825	0.09794
549.69948	0.09709
547.77071	0.09731
545.84194	0.09848
543.91317	0.10044
541.9844	0.10306
540.05563	0.10614
538.12686	0.10939
536.19809	0.11255
534.26932	0.11539
532.34055	0.11773
530.41178	0.11947
528.48301	0.12055
526.55424	0.12094
524.62547	0.12066
522.6967	0.11969
520.76793	0.11805
518.83916	0.11578
516.91039	0.11292
514.98162	0.10952
513.05285	0.10571
511.12408	0.10163
509.19531	0.09751
507.26654	0.09358
505.33777	0.09001
503.409	0.08692
501.48023	0.08435
499.55146	0.08231
497.62269	0.08078
495.69392	0.07966
493.76515	0.07875
491.83638	0.07781
489.90761	0.07673
487.97884	0.07549
486.05007	0.07413
484.1213	0.07265
482.19253	0.07105
480.26376	0.06932
478.33499	0.0674
476.40622	0.06525
474.47745	0.06282
472.54868	0.06013
470.61991	0.05723
468.69114	0.05417
466.76237	0.05101
464.8336	0.04785
462.90483	0.0448
460.97606	0.04199
459.04729	0.03952
457.11852	0.03749
455.18975	0.03598
453.26098	0.03498
451.33221	0.03443
449.40344	0.03417
447.47467	0.03407
445.5459	0.03407
443.61713	0.03416
441.68836	0.03432
439.75959	0.03452
437.83082	0.03474
435.90205	0.03494
433.97328	0.03511
432.04451	0.03523
430.11573	0.03532
428.18696	0.03537
426.25819	0.03533
424.32942	0.03513
422.40065	0.03474
420.47188	0.03419
418.54311	0.03355
416.61434	0.03283
414.68557	0.03202
412.7568	0.03113
410.82803	0.03016
408.89926	0.0291
406.97049	0.02796
405.04172	0.02674
403.11295	0.02543
401.18418	0.02404
399.25541	0.02257