401	0.02191
402	0.02255
403	0.02298
404	0.02235
405	0.01939
406	0.01555
407	0.01494
408	0.01709
409	0.01798
410	0.01808
411	0.01949
412	0.02215
413	0.02375
414	0.02378
415	0.0246
416	0.02736
417	0.02978
418	0.02858
419	0.02564
420	0.02651
421	0.02924
422	0.03052
423	0.03117
424	0.03195
425	0.03381
426	0.03697
427	0.03888
428	0.03813
429	0.03683
430	0.0372
431	0.03894
432	0.04028
433	0.04046
434	0.04069
435	0.04096
436	0.04009
437	0.03931
438	0.03968
439	0.04017
440	0.04043
441	0.04025
442	0.03935
443	0.03889
444	0.03924
445	0.03907
446	0.0381
447	0.03769
448	0.03883
449	0.04053
450	0.04126
451	0.0409
452	0.04068
453	0.04167
454	0.04296
455	0.04305
456	0.04185
457	0.04041
458	0.04052
459	0.0417
460	0.042
461	0.04189
462	0.04271
463	0.04403
464	0.0441
465	0.04295
466	0.04199
467	0.04193
468	0.04253
469	0.04352
470	0.04461
471	0.04557
472	0.04614
473	0.04619
474	0.0462
475	0.04683
476	0.04805
477	0.04938
478	0.05025
479	0.05051
480	0.05085
481	0.0518
482	0.05272
483	0.05301
484	0.05333
485	0.05423
486	0.05576
487	0.05731
488	0.05831
489	0.05932
490	0.06073
491	0.06212
492	0.06339
493	0.06504
494	0.06701
495	0.06887
496	0.07016
497	0.07085
498	0.07193
499	0.07373
500	0.075
501	0.07496
502	0.07463
503	0.07532
504	0.07645
505	0.07664
506	0.07618
507	0.07636
508	0.07728
509	0.07806
510	0.07828
511	0.0783
512	0.07857
513	0.07923
514	0.07997
515	0.08029
516	0.08019
517	0.08021
518	0.08076
519	0.08146
520	0.08207
521	0.08287
522	0.08386
523	0.08478
524	0.08539
525	0.08588
526	0.08679
527	0.08815
528	0.08962
529	0.09102
530	0.09242
531	0.09393
532	0.09547
533	0.09686
534	0.09834
535	0.10022
536	0.10197
537	0.10308
538	0.10394
539	0.10519
540	0.10681
541	0.10809
542	0.10864
543	0.10879
544	0.10919
545	0.11023
546	0.1115
547	0.11238
548	0.11306
549	0.11401
550	0.11526
551	0.11638
552	0.11724
553	0.11833
554	0.12027
555	0.12278
556	0.12491
557	0.12644
558	0.12825
559	0.13106
560	0.13431
561	0.13668
562	0.13797
563	0.13963
564	0.14255
565	0.14574
566	0.14763
567	0.14853
568	0.15002
569	0.15246
570	0.15447
571	0.15506
572	0.15519
573	0.15613
574	0.15762
575	0.15827
576	0.1575
577	0.15643
578	0.15619
579	0.15634
580	0.15586
581	0.15435
582	0.1527
583	0.15198
584	0.15174
585	0.15074
586	0.14898
587	0.14763
588	0.14732
589	0.14721
590	0.14613
591	0.14424
592	0.1431
593	0.14358
594	0.14415
595	0.14347
596	0.14222
597	0.14199
598	0.14292
599	0.1437
600	0.14344
601	0.14302
602	0.14348
603	0.14451
604	0.14496
605	0.1445
606	0.14397
607	0.14397
608	0.144
609	0.14305
610	0.14081
611	0.13807
612	0.13545
613	0.13271
614	0.12914
615	0.12456
616	0.11942
617	0.11446
618	0.11062
619	0.10781
620	0.10481
621	0.10157
622	0.09892
623	0.0967
624	0.09418
625	0.09139
626	0.08916
627	0.08764
628	0.08616
629	0.08449
630	0.08277
631	0.08124
632	0.08028
633	0.07967
634	0.07898
635	0.07827
636	0.07775
637	0.07732
638	0.07684
639	0.07625
640	0.07564
641	0.07503
642	0.07443
643	0.07389
644	0.07335
645	0.07263
646	0.07172
647	0.0707
648	0.06967
649	0.06892
650	0.06853
651	0.06808
652	0.06779
653	0.06782
654	0.06754
655	0.0666
656	0.06569
657	0.06548
658	0.06553
659	0.0651
660	0.06419
661	0.0634
662	0.06336
663	0.0639
664	0.06416
665	0.0633
666	0.06091
667	0.05452
668	0.04176
669	0.0396
670	0.04698
671	0.05283
672	0.05526
673	0.05547
674	0.05421
675	0.05228
676	0.05098
677	0.0508
678	0.05069
679	0.04948
680	0.04788
681	0.04739
682	0.04808
683	0.0486
684	0.04816
685	0.04759
686	0.04799
687	0.04909
688	0.04983
689	0.05014
690	0.05109
691	0.05344
692	0.05656
693	0.05939
694	0.06188
695	0.06507
696	0.06945
697	0.07411
698	0.07784
699	0.08075
700	0.08366
701	0.08652
702	0.08836
703	0.08841
704	0.08711
705	0.08569
706	0.08429
707	0.0819
708	0.07818
709	0.07407
710	0.07051
711	0.06721
712	0.06345
713	0.05924
714	0.05548
715	0.05275
716	0.05053
717	0.04805
718	0.0452
719	0.04249
720	0.04068
721	0.04033
722	0.04061
723	0.04044
724	0.04009
725	0.03996
726	0.03962
727	0.03888
728	0.03814
729	0.03774
730	0.03747
731	0.03691
732	0.03599
733	0.03522
734	0.03501
735	0.03502
736	0.03484
737	0.03475
738	0.03528
739	0.03643
740	0.03775
741	0.03907
742	0.04088
743	0.0434
744	0.0463
745	0.04913
746	0.05187
747	0.0547
748	0.05775
749	0.06077
750	0.06347
751	0.06589
752	0.06824
753	0.07041
754	0.07208
755	0.07322
756	0.07401
757	0.07448
758	0.07437
759	0.07342
760	0.07175
761	0.06979
762	0.06771
763	0.06533
764	0.06259
765	0.05981
766	0.05738
767	0.05534
768	0.05346
769	0.05156
770	0.04969
771	0.04799
772	0.04623
773	0.04412
774	0.04178
775	0.03946
776	0.03718
777	0.03471
778	0.03191
779	0.02904
780	0.02645
781	0.02415
782	0.02186
783	0.0196
784	0.01779
785	0.01667
786	0.01584
787	0.01479
788	0.0137
789	0.01306
790	0.01295
791	0.01287
792	0.01251
793	0.01215
794	0.01231
795	0.01301
796	0.0136
797	0.01378
798	0.01399
799	0.01459
800	0.01526
801	0.0154
802	0.01498
803	0.01461
804	0.01471
805	0.01482
806	0.01425
807	0.01314
808	0.01235
809	0.01229
810	0.0123
811	0.01157
812	0.01039
813	0.00985
814	0.01002
815	0.00992
816	0.00902
817	0.00789
818	0.00733
819	0.00716
820	0.00659
821	0.00528
822	0.00386
823	0.00309
824	0.00281
825	0.00217
826	0.00111
827	4.87319E-4
828	7.73354E-4
829	0.0015
830	0.0019
831	0.00204
832	0.00274
833	0.00438
834	0.00634
835	0.00783
836	0.00904
837	0.01078
838	0.01327
839	0.01569
840	0.01744
841	0.01896
842	0.021
843	0.02358
844	0.02604
845	0.02797
846	0.02981
847	0.03234
848	0.03556
849	0.03893
850	0.0422
851	0.04581
852	0.05023
853	0.05524
854	0.06004
855	0.064
856	0.06725
857	0.07002
858	0.07184
859	0.07197
860	0.07018
861	0.06693
862	0.0628
863	0.05793
864	0.05233
865	0.04615
866	0.03993
867	0.03439
868	0.02965
869	0.02531
870	0.02128
871	0.01795
872	0.01551
873	0.01377
874	0.01238
875	0.01128
876	0.01062
877	0.01042
878	0.01048
879	0.01055
880	0.01055
881	0.01055
882	0.01066
883	0.01094
884	0.01124
885	0.01131
886	0.01127
887	0.01145
888	0.01201
889	0.01267
890	0.01305
891	0.01324
892	0.01371
893	0.01461
894	0.01551
895	0.01608
896	0.01664
897	0.01778
898	0.01964
899	0.02184
900	0.02395
901	0.02612
902	0.0288
903	0.032
904	0.03513
905	0.03781
906	0.04027
907	0.04298
908	0.04595
909	0.04869
910	0.0508
911	0.05247
912	0.05423
913	0.05615
914	0.05766
915	0.05835
916	0.05856
917	0.05899
918	0.0595
919	0.05935
920	0.05831
921	0.05709
922	0.0564
923	0.05615
924	0.05579
925	0.05514
926	0.05486
927	0.05559
928	0.05712
929	0.05882
930	0.06062
931	0.06312
932	0.06669
933	0.07089
934	0.07509
935	0.0793
936	0.084
937	0.0893
938	0.09466
939	0.0995
940	0.10368
941	0.10745
942	0.11078
943	0.11304
944	0.11386
945	0.11395
946	0.11451
947	0.11603
948	0.11806
949	0.12017
950	0.12253
951	0.12547
952	0.12897
953	0.13267
954	0.13648
955	0.14104
956	0.14705
957	0.15453
958	0.16302
959	0.17219
960	0.182
961	0.19237
962	0.2027
963	0.21208
964	0.21996
965	0.22636
966	0.23116
967	0.23385
968	0.23387
969	0.23123
970	0.22638
971	0.21996
972	0.21248
973	0.20464
974	0.19743
975	0.19206
976	0.18934
977	0.18934
978	0.19171
979	0.19603
980	0.20187
981	0.20852
982	0.21507
983	0.22056
984	0.22441
985	0.22638
986	0.22658
987	0.2252
988	0.22269
989	0.21991
990	0.21792
991	0.21765
992	0.21982
993	0.22493
994	0.23342
995	0.24566
996	0.26185
997	0.28179
998	0.30488
999	0.33038
1000	0.35762
1001	0.38598
1002	0.41438
1003	0.44149
1004	0.46644
1005	0.48883
1006	0.50845
1007	0.52496
1008	0.53813
1009	0.5483
1010	0.55659
1011	0.56417
1012	0.5715
1013	0.57876
1014	0.58645
1015	0.59508
1016	0.6047
1017	0.61502
1018	0.62581
1019	0.63718
1020	0.64953
1021	0.66337
1022	0.67851
1023	0.69432
1024	0.71037
1025	0.72659
1026	0.74291
1027	0.75902
1028	0.77499
1029	0.79131
1030	0.80845
1031	0.82647
1032	0.84507
1033	0.86378
1034	0.88228
1035	0.90084
1036	0.91912
1037	0.93628
1038	0.95178
1039	0.96549
1040	0.97738
1041	0.98716
1042	0.99426
1043	0.99846
1044	1
1045	0.99906
1046	0.99584
1047	0.99043
1048	0.98277
1049	0.97314
1050	0.9624
1051	0.95054
1052	0.93684
1053	0.92138
1054	0.9048
1055	0.88752
1056	0.86957
1057	0.85087
1058	0.83137
1059	0.81153
1060	0.79161
1061	0.77132
1062	0.75079
1063	0.73011
1064	0.70923
1065	0.68815
1066	0.66685
1067	0.64526
1068	0.62363
1069	0.6025
1070	0.58252
1071	0.56441
1072	0.54921
1073	0.5383
1074	0.53357
1075	0.53672
1076	0.54814
1077	0.56726
1078	0.59307
1079	0.6239
1080	0.65712
1081	0.6896
1082	0.71831
1083	0.74113
1084	0.75745
1085	0.76692
1086	0.76912
1087	0.76471
1088	0.75506
1089	0.74132
1090	0.72479
1091	0.70677
1092	0.68781
1093	0.6686
1094	0.65026
1095	0.63354
1096	0.61849
1097	0.60513
1098	0.5935
1099	0.58356
1100	0.57517
1101	0.56779
1102	0.56071
1103	0.55379
1104	0.54717
1105	0.54081
1106	0.53441
1107	0.52769
1108	0.52066
1109	0.51375
1110	0.50729
1111	0.50081
1112	0.49392
1113	0.48693
1114	0.48036
1115	0.47451
1116	0.46919
1117	0.46427
1118	0.46011
1119	0.45738
1120	0.45631
1121	0.45658
1122	0.45771
1123	0.45958
1124	0.46218
1125	0.46511
1126	0.46758
1127	0.46894
1128	0.46919
1129	0.4687
1130	0.46757
1131	0.46563
1132	0.46276
1133	0.45931
1134	0.45583
1135	0.45243
1136	0.44865
1137	0.44438
1138	0.44014
1139	0.43656
1140	0.43362
1141	0.431
1142	0.42896
1143	0.42828
1144	0.42979
1145	0.43369
1146	0.43988
1147	0.44835
1148	0.45912
1149	0.47202
1150	0.48647
1151	0.50161
1152	0.51663
1153	0.53097
1154	0.54376
1155	0.55388
1156	0.56043
1157	0.56303
1158	0.56158
1159	0.5562
1160	0.54693
1161	0.53369
1162	0.51689
1163	0.49743
1164	0.47592
1165	0.45233
1166	0.4268
1167	0.39999
1168	0.3727
1169	0.34557
1170	0.31904
1171	0.29353
1172	0.26963
1173	0.24793
1174	0.22872
1175	0.2121
1176	0.19818
1177	0.18688
1178	0.17802
1179	0.17146
1180	0.16695
1181	0.16418
1182	0.16296
1183	0.163
1184	0.16404
1185	0.16588
1186	0.1684
1187	0.17126
1188	0.17427
1189	0.17738
1190	0.18054
1191	0.18343
1192	0.18548
1193	0.18647
1194	0.18646
1195	0.18553
1196	0.18365
1197	0.18081
1198	0.17719
1199	0.17319
1200	0.16906
1201	0.16476
1202	0.16019
1203	0.15557
1204	0.15122
1205	0.14724
1206	0.14347
1207	0.13979
1208	0.13646
1209	0.13393
1210	0.1323
1211	0.13136
1212	0.13115
1213	0.13195
1214	0.13382
1215	0.13644
1216	0.13918
1217	0.14162
1218	0.14371
1219	0.14544
1220	0.14634
1221	0.1458
1222	0.1438
1223	0.14084
1224	0.13722
1225	0.13296
1226	0.12804
1227	0.12283
1228	0.1179
1229	0.11344
1230	0.10923
1231	0.10514
1232	0.10137
1233	0.09831
1234	0.09598
1235	0.09405
1236	0.09233
1237	0.09099
1238	0.0903
1239	0.09007
1240	0.08982
1241	0.08935
1242	0.08891
1243	0.0887
1244	0.08853
1245	0.08804
1246	0.08716
1247	0.08623
1248	0.08555
1249	0.08487
1250	0.0839
1251	0.08279
1252	0.08186
1253	0.08116
1254	0.08046
1255	0.07959
1256	0.07869
1257	0.07803
1258	0.0775
1259	0.07686
1260	0.07605
1261	0.07528
1262	0.07472
1263	0.07422
1264	0.07352
1265	0.07261
1266	0.07178
1267	0.07123
1268	0.07082
1269	0.07032
1270	0.06983
1271	0.06973
1272	0.07023
1273	0.07111
1274	0.07216
1275	0.07349
1276	0.07534
1277	0.07752
1278	0.07958
1279	0.08121
1280	0.0824
1281	0.08314
1282	0.08328
1283	0.08262
1284	0.08135
1285	0.0799
1286	0.07857
1287	0.0775
1288	0.07683
1289	0.07678
1290	0.07756
1291	0.07915
1292	0.08137
1293	0.08407
1294	0.08721
1295	0.09065
1296	0.09409
1297	0.09726
1298	0.09997
1299	0.10226
1300	0.1042
1301	0.10567
1302	0.10668
1303	0.10743
1304	0.10812
1305	0.10882
1306	0.10942
1307	0.10991
1308	0.11041
1309	0.11107
1310	0.11173
1311	0.11215
1312	0.1123
1313	0.11241
1314	0.11262
1315	0.11274
1316	0.11254
1317	0.11215
1318	0.1118
1319	0.11153
1320	0.11125
1321	0.11084
1322	0.11028
1323	0.10964
1324	0.10887
1325	0.10793
1326	0.10691
1327	0.10609
1328	0.10557
1329	0.1052
1330	0.10469
1331	0.10396
1332	0.10308
1333	0.10206
1334	0.10063
1335	0.09855
1336	0.09587
1337	0.09294
1338	0.09004
1339	0.08707
1340	0.08421
1341	0.08213
1342	0.08096
1343	0.08033
1344	0.07998
1345	0.07996
1346	0.08051
1347	0.08185
1348	0.08378
1349	0.08596
1350	0.08836
1351	0.09122
1352	0.09471
1353	0.09877
1354	0.10317
1355	0.10829
1356	0.11445
1357	0.12153
1358	0.1294
1359	0.13759
1360	0.14578
1361	0.15424
1362	0.16275
1363	0.17123
1364	0.17901
1365	0.1848
1366	0.18895
1367	0.19197
1368	0.19372
1369	0.19413
1370	0.1934
1371	0.19162
1372	0.18888
1373	0.18502
1374	0.18
1375	0.17527
1376	0.17193
1377	0.16918
1378	0.16615
1379	0.16297
1380	0.16007
1381	0.15744
1382	0.15461
1383	0.1511
1384	0.14687
1385	0.14223
1386	0.13713
1387	0.13086
1388	0.12397
1389	0.11842
1390	0.11379
1391	0.10945
1392	0.10585
1393	0.10314
1394	0.10095
1395	0.09968
1396	0.09975
1397	0.10012
1398	0.09968
1399	0.09857
1400	0.0978
1401	0.09754
1402	0.09721
1403	0.09664
1404	0.09587
1405	0.09522
1406	0.09524
1407	0.09542
1408	0.09515
1409	0.09453
1410	0.09377
1411	0.09292
1412	0.09191
1413	0.09081
1414	0.08958
1415	0.0882
1416	0.08668
1417	0.08505
1418	0.08331
1419	0.08141
1420	0.08017
1421	0.08002
1422	0.0798
1423	0.07888
1424	0.07772
1425	0.07711
1426	0.07685
1427	0.07635
1428	0.07559
1429	0.07456
1430	0.07352
1431	0.07315
1432	0.07322
1433	0.07343
1434	0.07387
1435	0.07439
1436	0.07488
1437	0.07683
1438	0.07992
1439	0.08256
1440	0.08514
1441	0.08796
1442	0.09101
1443	0.09413
1444	0.09719
1445	0.10024
1446	0.10326
1447	0.10617
1448	0.10929
1449	0.11242
1450	0.11492
1451	0.11681
1452	0.11835
1453	0.11969
1454	0.12051
1455	0.12075
1456	0.1206
1457	0.12059
1458	0.1212
1459	0.12217
1460	0.12295
1461	0.12286
1462	0.12168
1463	0.11953
1464	0.11617
1465	0.11112
1466	0.10685
1467	0.10407
1468	0.1008
1469	0.09693
1470	0.09307
1471	0.08885
1472	0.083
1473	0.07645
1474	0.07199
1475	0.06909
1476	0.0659
1477	0.0631
1478	0.06176
1479	0.06108
1480	0.06018
1481	0.05838
1482	0.0552
1483	0.05043
1484	0.04419
1485	0.03738
1486	0.03072
1487	0.02385
1488	0.01781
1489	0.01343
1490	0.00925
1491	0.00658
1492	0.00577
1493	0.00494
1494	0.00377
1495	0.00242
1496	0.00102
1497	2.01284E-4
1498	0
1499	1.05939E-5
1500	4.55537E-4
1501	0.00109
1502	0.00163
1503	0.00208
1504	0.00224
1505	0.00175
1506	4.3435E-4
1507	5.61476E-4
1508	0.00279
1509	0.00545
1510	0.00793
1511	0.00997
1512	0.01176
1513	0.01369
1514	0.01537
1515	0.01659
1516	0.01747
1517	0.01907
1518	0.0221
1519	0.02431
1520	0.02534
1521	0.02644
1522	0.0292
1523	0.03267
1524	0.0352
1525	0.03727
1526	0.03959
1527	0.04187
1528	0.04405
1529	0.04639
1530	0.04844
1531	0.04976
1532	0.05033
1533	0.05047
1534	0.05126
1535	0.0527
1536	0.05376
1537	0.0541
1538	0.05347
1539	0.05109
1540	0.04878
1541	0.04904
1542	0.04934
1543	0.04942
1544	0.04935
1545	0.04878
1546	0.0485
1547	0.04842
1548	0.04779
1549	0.04625
1550	0.04418
1551	0.04276
1552	0.04198
1553	0.04071
1554	0.03847
1555	0.03636
1556	0.03539
1557	0.03425
1558	0.03094
1559	0.02713
1560	0.02744
1561	0.02961
1562	0.03096
1563	0.0315
1564	0.03145
1565	0.03144
1566	0.03203
1567	0.03264
1568	0.03256
1569	0.03143
1570	0.03058
1571	0.03108
1572	0.03127
1573	0.03069
1574	0.02965
1575	0.02811
1576	0.0257
1577	0.02394
1578	0.02383
1579	0.02363
1580	0.02296
1581	0.02205
1582	0.02101
1583	0.01988
1584	0.01875
1585	0.01769
1586	0.01667
1587	0.01562
1588	0.01464
1589	0.01378
1590	0.01319
1591	0.01288
1592	0.01274
1593	0.01268
1594	0.01278
1595	0.01333
1596	0.01438
1597	0.01568
1598	0.01706
1599	0.01855
1600	0.02024
1601	0.02214
1602	0.02413
1603	0.02627
1604	0.02871
1605	0.03133
1606	0.03392
1607	0.03653
1608	0.03926
1609	0.04225
1610	0.04569
1611	0.04938
1612	0.05301
1613	0.05672
1614	0.06048
1615	0.06394
1616	0.06791
1617	0.07479
1618	0.0821
1619	0.08835
1620	0.09487
1621	0.10162
1622	0.10794
1623	0.11543
1624	0.12595
1625	0.13498
1626	0.14189
1627	0.14842
1628	0.15567
1629	0.16257
1630	0.16788
1631	0.17209
1632	0.17539
1633	0.17774
1634	0.17884
1635	0.17816
1636	0.17657
1637	0.17582
1638	0.17524
1639	0.17405
1640	0.17202
1641	0.16912
1642	0.16567
1643	0.16207
1644	0.1587
1645	0.15496
1646	0.14925
1647	0.14257
1648	0.1381
1649	0.13575
1650	0.13418
1651	0.13253
1652	0.12999
1653	0.12342
1654	0.11741
1655	0.11821
1656	0.1189
1657	0.11881
1658	0.11838
1659	0.11806
1660	0.11789
1661	0.11774
1662	0.11759
1663	0.11804
1664	0.11947
1665	0.12118
1666	0.12272
1667	0.12394
1668	0.12475
1669	0.12559
1670	0.12717
1671	0.12903
1672	0.13094
1673	0.13269
1674	0.13367
1675	0.13363
1676	0.13388
1677	0.13482
1678	0.13518
1679	0.13445
1680	0.13261
1681	0.13075
1682	0.12934
1683	0.12671
1684	0.12068
1685	0.11396
1686	0.11196
1687	0.10993
1688	0.10598
1689	0.10072
1690	0.09516
1691	0.08985
1692	0.08481
1693	0.07991
1694	0.07526
1695	0.06956
1696	0.061
1697	0.05473
1698	0.05202
1699	0.0497
1700	0.0441
1701	0.03828
1702	0.03704
1703	0.03625
1704	0.03453
1705	0.03243
1706	0.03087
1707	0.03017
1708	0.03037
1709	0.03071
1710	0.03098
1711	0.03162
1712	0.03251
1713	0.0333
1714	0.03412
1715	0.03554
1716	0.03729
1717	0.03884
1718	0.04161
1719	0.04597
1720	0.04993
1721	0.05313
1722	0.05617
1723	0.05945
1724	0.06331
1725	0.06732
1726	0.07115
1727	0.07489
1728	0.07851
1729	0.08199
1730	0.08597
1731	0.09033
1732	0.09364
1733	0.09602
1734	0.09994
1735	0.10659
1736	0.11154
1737	0.11533
1738	0.11885
1739	0.12238
1740	0.12678
1741	0.13159
1742	0.13554
1743	0.13965
1744	0.14488
1745	0.15051
1746	0.15595
1747	0.16171
1748	0.16853
1749	0.17634
1750	0.18362
1751	0.19066
1752	0.19755
1753	0.20256
1754	0.20544
1755	0.20635
1756	0.20464
1757	0.20006
1758	0.19473
1759	0.1896
1760	0.18399
1761	0.17711
1762	0.16841
1763	0.16196
1764	0.15853
1765	0.15584
1766	0.15382
1767	0.15276
1768	0.15276
1769	0.15412
1770	0.15616
1771	0.1583
1772	0.16162
1773	0.16694
1774	0.17253
1775	0.1777
1776	0.18338
1777	0.18937
1778	0.19519
1779	0.20085
1780	0.20661
1781	0.21277
1782	0.21863
1783	0.22343
1784	0.22714
1785	0.22993
1786	0.23158
1787	0.23173
1788	0.23013
1789	0.22694
1790	0.22208
1791	0.21499
1792	0.20501
1793	0.19293
1794	0.18261
1795	0.1731
1796	0.16151
1797	0.14929
1798	0.13827
1799	0.12681
1800	0.11455
1801	0.10352
1802	0.09366
1803	0.0846
1804	0.07696
1805	0.07022
1806	0.06394
1807	0.05811
1808	0.05285
1809	0.04845
1810	0.04444
1811	0.04052
1812	0.03746
1813	0.03518
1814	0.03316
1815	0.03129
1816	0.02947
1817	0.02768
1818	0.0261
1819	0.02485
1820	0.02377
1821	0.02264
1822	0.02153
1823	0.02049
1824	0.01947
1825	0.01836
1826	0.01756
1827	0.01718
1828	0.01659
1829	0.01548
1830	0.01455
1831	0.0144
1832	0.01447
1833	0.01431
1834	0.01407
1835	0.01378
1836	0.01335
1837	0.01285
1838	0.01257
1839	0.01255
1840	0.01243
1841	0.01212
1842	0.01172
1843	0.01111
1844	0.01041
1845	0.01028
1846	0.01065
1847	0.01076
1848	0.01072
1849	0.01082
1850	0.01094
1851	0.01095
1852	0.01091
1853	0.01091
1854	0.01092
1855	0.0109
1856	0.01088
1857	0.01088
1858	0.01091
1859	0.01092
1860	0.01093
1861	0.01094
1862	0.01105
1863	0.0112
1864	0.01125
1865	0.01114
1866	0.01092
1867	0.01065
1868	0.01034
1869	0.01025
1870	0.01065
1871	0.01125
1872	0.0117
1873	0.01196
1874	0.01208
1875	0.01213
1876	0.01221
1877	0.01235
1878	0.01248
1879	0.01256
1880	0.01265
1881	0.01277
1882	0.01289
1883	0.01297
1884	0.01299
1885	0.01305
1886	0.01323
1887	0.0134
1888	0.01337
1889	0.01314
1890	0.01316
1891	0.01357
1892	0.01395
1893	0.01408
1894	0.01404
1895	0.01396
1896	0.01414
1897	0.01448
1898	0.0147
1899	0.0148
1900	0.01487
1901	0.01499
1902	0.01511
1903	0.0151
1904	0.01499
1905	0.01492
1906	0.01487
1907	0.01475
1908	0.01455
1909	0.01435
1910	0.0143
1911	0.01441
1912	0.01452
1913	0.01453
1914	0.01448
1915	0.01444
1916	0.01433
1917	0.01405
1918	0.01379
1919	0.01394
1920	0.0142
1921	0.0142
1922	0.01389
1923	0.0137
1924	0.0139
1925	0.01417
1926	0.01426
1927	0.01429
1928	0.0143
1929	0.01429
1930	0.01426
1931	0.01424
1932	0.01424
1933	0.01426
1934	0.01426
1935	0.01426
1936	0.01428
1937	0.01429
1938	0.0143
1939	0.01429
1940	0.01423
1941	0.01404
1942	0.01373
1943	0.01369
1944	0.01391
1945	0.01403
1946	0.01407
1947	0.01421
1948	0.01429
1949	0.01427
1950	0.01425
1951	0.01429
1952	0.01434
1953	0.01437
1954	0.0143
1955	0.01424
1956	0.01426
1957	0.01433
1958	0.01435
1959	0.01433
1960	0.01432
1961	0.01437
1962	0.01447
1963	0.01452
1964	0.01449
1965	0.01439
1966	0.01427
1967	0.01423
1968	0.01435
1969	0.01453
1970	0.01464
1971	0.01474
1972	0.01486
1973	0.01494
1974	0.01494
1975	0.01495
1976	0.01503
1977	0.01516
1978	0.01523
1979	0.01522
1980	0.01527
1981	0.0154
1982	0.01558
1983	0.01567
1984	0.01567
1985	0.0157
1986	0.01581
1987	0.0159
1988	0.01591
1989	0.01593
1990	0.01599
1991	0.01596
1992	0.01592
1993	0.01602
1994	0.01618
1995	0.0163
1996	0.01644
1997	0.01657
1998	0.01658
1999	0.01652
2000	0.01653
2001	0.01663
2002	0.01673
2003	0.01674
2004	0.01669
2005	0.01667
2006	0.01675
2007	0.01684
2008	0.01688
2009	0.01683
2010	0.01681
2011	0.01687
2012	0.01695
2013	0.01697
2014	0.01696
2015	0.01694
2016	0.01694
2017	0.01696
2018	0.01703
2019	0.01714
2020	0.01725
2021	0.01738
2022	0.01751
2023	0.01756
2024	0.01758
2025	0.01763
2026	0.01776
2027	0.01787
2028	0.01795
2029	0.018
2030	0.01806
2031	0.01821
2032	0.01835
2033	0.0184
2034	0.01841
2035	0.01849
2036	0.01863
2037	0.01879
2038	0.0189
2039	0.01894
2040	0.01894
2041	0.01902
2042	0.01919
2043	0.01934
2044	0.01941
2045	0.01945
2046	0.01957
2047	0.01974
2048	0.01985
2049	0.01988
2050	0.01988
2051	0.01993
2052	0.02001
2053	0.02009
2054	0.02009
2055	0.02006
2056	0.0201
2057	0.02018
2058	0.02021
2059	0.02014
2060	0.02002
2061	0.01998
2062	0.02001
2063	0.02002
2064	0.01988
2065	0.01974
2066	0.01973
2067	0.01982
2068	0.01986
2069	0.01981
2070	0.01973
2071	0.01969
2072	0.0197
2073	0.01969
2074	0.0196
2075	0.0195
2076	0.01947
2077	0.01947
2078	0.01945
2079	0.01939
2080	0.01931
2081	0.01928
2082	0.01933
2083	0.01936
2084	0.01923
2085	0.01909
2086	0.01907
2087	0.01912
2088	0.0191
2089	0.01897
2090	0.01885
2091	0.01881
2092	0.01885
2093	0.01884
2094	0.01871
2095	0.01858
2096	0.01854
2097	0.01854
2098	0.01851
2099	0.0184
2100	0.0183
2101	0.01824
2102	0.01822
2103	0.01817
2104	0.01808
2105	0.01803
2106	0.01804
2107	0.01804
2108	0.01796
2109	0.01783
2110	0.01773
2111	0.01772
2112	0.01774
2113	0.0177
2114	0.01762
2115	0.01755
2116	0.01755
2117	0.01758
2118	0.01755
2119	0.0175
2120	0.01745
2121	0.01743
2122	0.01737
2123	0.01731
2124	0.01727
2125	0.01727
2126	0.01724
2127	0.01718
2128	0.01712
2129	0.01709
2130	0.01709
2131	0.01707
2132	0.017
2133	0.01693
2134	0.01685
2135	0.0168
2136	0.01677
2137	0.01672
2138	0.01664
2139	0.01658
2140	0.01654
2141	0.01646
2142	0.01638
2143	0.01633
2144	0.01628
2145	0.01622
2146	0.01612
2147	0.01605
2148	0.016
2149	0.01595
2150	0.0159
2151	0.01582
2152	0.01573
2153	0.01567
2154	0.01564
2155	0.01557
2156	0.01551
2157	0.01546
2158	0.01541
2159	0.01535
2160	0.01527
2161	0.01518
2162	0.01511
2163	0.0151
2164	0.01505
2165	0.01495
2166	0.01481
2167	0.01475
2168	0.01469
2169	0.01461
2170	0.0145
2171	0.01441
2172	0.01435
2173	0.01428
2174	0.01416
2175	0.01407
2176	0.01399
2177	0.01394
2178	0.01386
2179	0.01373
2180	0.01361
2181	0.01353
2182	0.01349
2183	0.01343
2184	0.01334
2185	0.0132
2186	0.0131
2187	0.01306
2188	0.01299
2189	0.01285
2190	0.01277
2191	0.01276
2192	0.0127
2193	0.01259
2194	0.01245
2195	0.01235
2196	0.01233
2197	0.01231
2198	0.01218
2199	0.01205
2200	0.01197
2201	0.01197
2202	0.01194
2203	0.01182
2204	0.01169
2205	0.01161
2206	0.01159
2207	0.01155
2208	0.01146
2209	0.01138
2210	0.01131
2211	0.01128
2212	0.01123
2213	0.01116
2214	0.01109
2215	0.01109
2216	0.01107
2217	0.011
2218	0.01089
2219	0.01083
2220	0.01085
2221	0.01084
2222	0.01078
2223	0.01069
2224	0.01065
2225	0.01065
2226	0.01065
2227	0.01065
2228	0.01065
2229	0.01065
2230	0.01065
2231	0.01065
2232	0.01065
2233	0.01065
2234	0.01065
2235	0.01065
2236	0.01065
2237	0.01065
2238	0.01065
2239	0.01065
2240	0.01065
2241	0.01065
2242	0.01065
2243	0.01065
2244	0.01065
2245	0.01065
2246	0.01065
2247	0.01065
2248	0.01065
2249	0.01065
2250	0.01065
2251	0.01065
2252	0.01065
2253	0.01065
2254	0.01065
2255	0.01065
2256	0.01065
2257	0.01065
2258	0.01065
2259	0.01065
2260	0.01065
2261	0.01065
2262	0.01065
2263	0.01065
2264	0.01065
2265	0.01065
2266	0.01065
2267	0.01065
2268	0.01065
2269	0.01065
2270	0.01065
2271	0.01065
2272	0.01065
2273	0.01065
2274	0.01065
2275	0.01065
2276	0.01065
2277	0.01065
2278	0.01065
2279	0.01065
2280	0.01065
2281	0.01065
2282	0.01065
2283	0.01065
2284	0.01065
2285	0.01065
2286	0.01065
2287	0.01065
2288	0.01065
2289	0.01065
2290	0.01065
2291	0.01065
2292	0.01065
2293	0.01065
2294	0.01065
2295	0.01065
2296	0.01065
2297	0.01065
2298	0.01065
2299	0.01065
2300	0.01065
2301	0.01065
2302	0.01065
2303	0.01065
2304	0.01065
2305	0.01065
2306	0.01065
2307	0.01065
2308	0.01065
2309	0.01065
2310	0.01065
2311	0.01065
2312	0.01065
2313	0.01065
2314	0.01065
2315	0.01065
2316	0.01065
2317	0.01065
2318	0.01065
2319	0.01065
2320	0.01065
2321	0.01065
2322	0.01065
2323	0.01065
2324	0.01065
2325	0.01065
2326	0.01065
2327	0.01065
2328	0.01065
2329	0.01065
2330	0.01065
2331	0.01065
2332	0.01065
2333	0.01065
2334	0.01065
2335	0.01065
2336	0.01065
2337	0.01065
2338	0.01065
2339	0.01065
2340	0.01065
2341	0.01065
2342	0.01065
2343	0.01065
2344	0.01065
2345	0.01065
2346	0.01065
2347	0.01065
2348	0.01065
2349	0.01065
2350	0.01065
2351	0.01065
2352	0.01065
2353	0.01065
2354	0.01065
2355	0.01065
2356	0.01065
2357	0.01065
2358	0.01065
2359	0.01065
2360	0.01065
2361	0.01065
2362	0.01065
2363	0.01065
2364	0.01065
2365	0.01065
2366	0.01065
2367	0.01065
2368	0.01065
2369	0.01065
2370	0.01065
2371	0.01065
2372	0.01065
2373	0.01065
2374	0.01065
2375	0.01065
2376	0.01065
2377	0.01065
2378	0.01065
2379	0.01065
2380	0.01065
2381	0.01065
2382	0.01065
2383	0.01065
2384	0.01065
2385	0.01065
2386	0.01065
2387	0.01065
2388	0.01065
2389	0.01065
2390	0.01065
2391	0.01065
2392	0.01065
2393	0.01065
2394	0.01065
2395	0.01065
2396	0.01065
2397	0.01065
2398	0.01065
2399	0.01065
2400	0.01065
2401	0.01065
2402	0.01065
2403	0.01065
2404	0.01065
2405	0.01065
2406	0.01065
2407	0.01069
2408	0.01071
2409	0.01071
2410	0.01076
2411	0.01086
2412	0.01091
2413	0.01093
2414	0.01098
2415	0.01103
2416	0.0111
2417	0.01117
2418	0.01119
2419	0.01119
2420	0.01121
2421	0.01125
2422	0.0113
2423	0.01134
2424	0.0114
2425	0.01146
2426	0.01153
2427	0.01155
2428	0.01157
2429	0.01163
2430	0.0117
2431	0.01172
2432	0.01175
2433	0.0118
2434	0.01187
2435	0.01194
2436	0.01198
2437	0.01202
2438	0.01206
2439	0.0121
2440	0.01214
2441	0.01218
2442	0.01224
2443	0.01231
2444	0.01239
2445	0.01246
2446	0.01248
2447	0.01251
2448	0.01256
2449	0.01264
2450	0.0127
2451	0.01273
2452	0.01276
2453	0.01283
2454	0.01294
2455	0.01299
2456	0.01301
2457	0.01303
2458	0.01308
2459	0.01314
2460	0.01321
2461	0.01325
2462	0.0133
2463	0.01335
2464	0.01338
2465	0.01341
2466	0.01344
2467	0.01351
2468	0.01358
2469	0.01364
2470	0.01366
2471	0.01368
2472	0.01371
2473	0.01374
2474	0.01378
2475	0.01381
2476	0.01386
2477	0.0139
2478	0.01394
2479	0.01398
2480	0.01402
2481	0.01404
2482	0.01407
2483	0.01411
2484	0.01417
2485	0.01419
2486	0.01422
2487	0.01428
2488	0.01434
2489	0.01438
2490	0.0144
2491	0.01444
2492	0.01452
2493	0.01457
2494	0.01458
2495	0.0146
2496	0.01466
2497	0.01477
2498	0.01483
2499	0.01483
2500	0.01482
2501	0.01488
2502	0.01499
2503	0.01505
2504	0.01509
2505	0.01512
2506	0.01521
2507	0.01529
2508	0.01532
2509	0.0153
2510	0.01532
2511	0.0154
2512	0.0155
2513	0.01554
2514	0.01553
2515	0.01554
2516	0.01563
2517	0.01573
2518	0.01577
2519	0.01577
2520	0.01581
2521	0.01589
2522	0.01596
2523	0.016
2524	0.016
2525	0.01603
2526	0.01613
2527	0.01624
2528	0.01628
2529	0.01628
2530	0.01631
2531	0.01637
2532	0.01642
2533	0.01645
2534	0.01648
2535	0.01655
2536	0.01666
2537	0.01677
2538	0.01683
2539	0.01685
2540	0.01691
2541	0.01699
2542	0.01708
2543	0.01714
2544	0.0172
2545	0.01726
2546	0.01736
2547	0.01747
2548	0.01753
2549	0.01758
2550	0.01764
2551	0.01774
2552	0.01786
2553	0.01799
2554	0.01807
2555	0.01813
2556	0.0182
2557	0.01831
2558	0.01841
2559	0.01853
2560	0.01861
2561	0.0187
2562	0.01879
2563	0.01891
2564	0.01901
2565	0.01907
2566	0.01917
2567	0.01933
2568	0.01946
2569	0.01954
2570	0.01959
2571	0.01964
2572	0.01975
2573	0.01988
2574	0.01997
2575	0.02004
2576	0.02013
2577	0.02029
2578	0.02048
2579	0.02059
2580	0.02065
2581	0.02073
2582	0.02089
2583	0.02107
2584	0.02122
2585	0.02131
2586	0.02142
2587	0.02159
2588	0.02176
2589	0.02188
2590	0.02194
2591	0.02204
2592	0.02223
2593	0.02241
2594	0.0225
2595	0.02255
2596	0.02266
2597	0.02281
2598	0.02296
2599	0.02301
2600	0.02303
2601	0.02309
2602	0.02322
2603	0.02334
2604	0.0234
2605	0.0234
2606	0.02344
2607	0.02357
2608	0.02368
2609	0.02371
2610	0.02373
2611	0.0238
2612	0.02393
2613	0.02402
2614	0.02404
2615	0.02406
2616	0.02416
2617	0.02432
2618	0.02448
2619	0.02458
2620	0.02464
2621	0.02473
2622	0.02484
2623	0.02495
2624	0.02505
2625	0.02517
2626	0.02533
2627	0.02548
2628	0.02556
2629	0.02562
2630	0.02568
2631	0.0258
2632	0.02591
2633	0.026
2634	0.02606
2635	0.02617
2636	0.02626
2637	0.02636
2638	0.02643
2639	0.02651
2640	0.0266
2641	0.02672
2642	0.02683
2643	0.02694
2644	0.02704
2645	0.02713
2646	0.02721
2647	0.0273
2648	0.02742
2649	0.02754
2650	0.0277
2651	0.0278
2652	0.02789
2653	0.028
2654	0.02816
2655	0.02828
2656	0.02835
2657	0.02839
2658	0.02847
2659	0.0286
2660	0.02874
2661	0.02883
2662	0.02888
2663	0.02895
2664	0.02904
2665	0.02912
2666	0.02915
2667	0.02919
2668	0.02926
2669	0.02937
2670	0.02943
2671	0.02948
2672	0.02957
2673	0.02968
2674	0.02977
2675	0.02979
2676	0.02982
2677	0.02989
2678	0.02999
2679	0.0301
2680	0.03017
2681	0.0302
2682	0.03023
2683	0.0303
2684	0.03037
2685	0.03044
2686	0.0305
2687	0.0306
2688	0.03071
2689	0.03078
2690	0.03082
2691	0.03086
2692	0.03093
2693	0.03101
2694	0.03107
2695	0.03112
2696	0.03121
2697	0.03134
2698	0.03146
2699	0.03158
2700	0.03169
2701	0.03177
2702	0.03189
2703	0.03205
2704	0.03221
2705	0.03231
2706	0.03245
2707	0.03262
2708	0.03281
2709	0.03299
2710	0.03318
2711	0.0334
2712	0.03365
2713	0.03388
2714	0.03407
2715	0.03426
2716	0.0345
2717	0.03477
2718	0.03502
2719	0.03527
2720	0.03554
2721	0.03584
2722	0.03613
2723	0.03638
2724	0.03664
2725	0.03695
2726	0.03723
2727	0.03744
2728	0.03761
2729	0.03781
2730	0.03806
2731	0.03835
2732	0.03856
2733	0.03876
2734	0.03903
2735	0.03936
2736	0.03971
2737	0.04
2738	0.04023
2739	0.04045
2740	0.04072
2741	0.04103
2742	0.04128
2743	0.04151
2744	0.04178
2745	0.04212
2746	0.04249
2747	0.0428
2748	0.04303
2749	0.04324
2750	0.04348
2751	0.04366
2752	0.04376
2753	0.04386
2754	0.04402
2755	0.04421
2756	0.04434
2757	0.04438
2758	0.0444
2759	0.04447
2760	0.04459
2761	0.04466
2762	0.04465
2763	0.04466
2764	0.04477
2765	0.04488
2766	0.04492
2767	0.04494
2768	0.04499
2769	0.04511
2770	0.04524
2771	0.04535
2772	0.04546
2773	0.0456
2774	0.04579
2775	0.04599
2776	0.04614
2777	0.04628
2778	0.04652
2779	0.0468
2780	0.04709
2781	0.04738
2782	0.04768
2783	0.04801
2784	0.04837
2785	0.04875
2786	0.04913
2787	0.04952
2788	0.04992
2789	0.05036
2790	0.05085
2791	0.05133
2792	0.05183
2793	0.05234
2794	0.05296
2795	0.05368
2796	0.05452
2797	0.05547
2798	0.05654
2799	0.05769
2800	0.05902
2801	0.06059
2802	0.06247
2803	0.06467
2804	0.06711
2805	0.06979
2806	0.07273
2807	0.07588
2808	0.07921
2809	0.0826
2810	0.08595
2811	0.08918
2812	0.09227
2813	0.09519
2814	0.09791
2815	0.10041
2816	0.10272
2817	0.10485
2818	0.10686
2819	0.10882
2820	0.11071
2821	0.1126
2822	0.11453
2823	0.1165
2824	0.11852
2825	0.12065
2826	0.12293
2827	0.12528
2828	0.12768
2829	0.13018
2830	0.13276
2831	0.13531
2832	0.13769
2833	0.13985
2834	0.14177
2835	0.14336
2836	0.14455
2837	0.14527
2838	0.14548
2839	0.14521
2840	0.14445
2841	0.14325
2842	0.14165
2843	0.13971
2844	0.13753
2845	0.13522
2846	0.13279
2847	0.13024
2848	0.12768
2849	0.12523
2850	0.12307
2851	0.12125
2852	0.11975
2853	0.11865
2854	0.11797
2855	0.11767
2856	0.1176
2857	0.11776
2858	0.11819
2859	0.11888
2860	0.1198
2861	0.12095
2862	0.12235
2863	0.12401
2864	0.12598
2865	0.12822
2866	0.13068
2867	0.13335
2868	0.13622
2869	0.1393
2870	0.14251
2871	0.14576
2872	0.14906
2873	0.15238
2874	0.15566
2875	0.15886
2876	0.16194
2877	0.16497
2878	0.16801
2879	0.17107
2880	0.17408
2881	0.17706
2882	0.18003
2883	0.18304
2884	0.18612
2885	0.18921
2886	0.19223
2887	0.19523
2888	0.19829
2889	0.20139
2890	0.2045
2891	0.20754
2892	0.2105
2893	0.21339
2894	0.21624
2895	0.21898
2896	0.22152
2897	0.22383
2898	0.22603
2899	0.22817
2900	0.23024
2901	0.23217
2902	0.23398
2903	0.23571
2904	0.2374
2905	0.23908
2906	0.24078
2907	0.2425
2908	0.2443
2909	0.24617
2910	0.24814
2911	0.25024
2912	0.25246
2913	0.25478
2914	0.2572
2915	0.25974
2916	0.2624
2917	0.26524
2918	0.26833
2919	0.27166
2920	0.27516
2921	0.27882
2922	0.28259
2923	0.28634
2924	0.28994
2925	0.2934
2926	0.29668
2927	0.29979
2928	0.30266
2929	0.30523
2930	0.30749
2931	0.30946
2932	0.31114
2933	0.31248
2934	0.31342
2935	0.31396
2936	0.31406
2937	0.31363
2938	0.31275
2939	0.31141
2940	0.30954
2941	0.30714
2942	0.30417
2943	0.30067
2944	0.2967
2945	0.29238
2946	0.28775
2947	0.28286
2948	0.27786
2949	0.27284
2950	0.26789
2951	0.2631
2952	0.25859
2953	0.25434
2954	0.25039
2955	0.24678
2956	0.24351
2957	0.24047
2958	0.23759
2959	0.23489
2960	0.23239
2961	0.23008
2962	0.22789
2963	0.22583
2964	0.22404
2965	0.22256
2966	0.22127
2967	0.22009
2968	0.21899
2969	0.21804
2970	0.21725
2971	0.21648
2972	0.21563
2973	0.21467
2974	0.21376
2975	0.21292
2976	0.21206
2977	0.21112
2978	0.21007
2979	0.2089
2980	0.20773
2981	0.20644
2982	0.20497
2983	0.20335
2984	0.20162
2985	0.19976
2986	0.19766
2987	0.19532
2988	0.19285
2989	0.19029
2990	0.18762
2991	0.1848
2992	0.1819
2993	0.17897
2994	0.17606
2995	0.17314
2996	0.1702
2997	0.16727
2998	0.16439
2999	0.16153
3000	0.15872
3001	0.15597
3002	0.1533
3003	0.15069
3004	0.1481
3005	0.14556
3006	0.14316
3007	0.14091
3008	0.13879
3009	0.13674
3010	0.13472
3011	0.13282
3012	0.13106
3013	0.12945
3014	0.12797
3015	0.12658
3016	0.12526
3017	0.12407
3018	0.12296
3019	0.12191
3020	0.12095
3021	0.12009
3022	0.11935
3023	0.11863
3024	0.11792
3025	0.1173
3026	0.11682
3027	0.11642
3028	0.11601
3029	0.11554
3030	0.11509
3031	0.1147
3032	0.11449
3033	0.11431
3034	0.1141
3035	0.11389
3036	0.11377
3037	0.11366
3038	0.11357
3039	0.11344
3040	0.1133
3041	0.11324
3042	0.11323
3043	0.11322
3044	0.11313
3045	0.11302
3046	0.11297
3047	0.11297
3048	0.11295
3049	0.11294
3050	0.11294
3051	0.11295
3052	0.11295
3053	0.11291
3054	0.11286
3055	0.11282
3056	0.1128
3057	0.11281
3058	0.11285
3059	0.11284
3060	0.11278
3061	0.11275
3062	0.11278
3063	0.11282
3064	0.11285
3065	0.11289
3066	0.11294
3067	0.11303
3068	0.11311
3069	0.11314
3070	0.11315
3071	0.1132
3072	0.11324
3073	0.1133
3074	0.11342
3075	0.11357
3076	0.11371
3077	0.11379
3078	0.11382
3079	0.11386
3080	0.11397
3081	0.11415
3082	0.11435
3083	0.11453
3084	0.11468
3085	0.11481
3086	0.11501
3087	0.11526
3088	0.11548
3089	0.11565
3090	0.11579
3091	0.11595
3092	0.11617
3093	0.11643
3094	0.11666
3095	0.11682
3096	0.11701
3097	0.11731
3098	0.11762
3099	0.11785
3100	0.11801
3101	0.1182
3102	0.11847
3103	0.11877
3104	0.11901
3105	0.11923
3106	0.11948
3107	0.11974
3108	0.12003
3109	0.12023
3110	0.12036
3111	0.12051
3112	0.12071
3113	0.12095
3114	0.1212
3115	0.1214
3116	0.12161
3117	0.12184
3118	0.12209
3119	0.12234
3120	0.12255
3121	0.12278
3122	0.12304
3123	0.12337
3124	0.12372
3125	0.124
3126	0.12428
3127	0.12466
3128	0.12509
3129	0.12551
3130	0.12587
3131	0.12627
3132	0.12671
3133	0.1272
3134	0.12768
3135	0.1281
3136	0.12854
3137	0.12908
3138	0.12965
3139	0.13019
3140	0.13069
3141	0.13127
3142	0.13187
3143	0.13241
3144	0.13294
3145	0.13353
3146	0.13418
3147	0.13488
3148	0.13554
3149	0.13613
3150	0.13676
3151	0.13741
3152	0.1381
3153	0.13877
3154	0.13947
3155	0.14023
3156	0.14105
3157	0.14184
3158	0.14261
3159	0.14338
3160	0.14415
3161	0.14497
3162	0.14581
3163	0.14669
3164	0.14754
3165	0.1484
3166	0.14925
3167	0.15016
3168	0.15108
3169	0.15201
3170	0.153
3171	0.15401
3172	0.15498
3173	0.15588
3174	0.15682
3175	0.15781
3176	0.15882
3177	0.15982
3178	0.1608
3179	0.16185
3180	0.16296
3181	0.16406
3182	0.16516
3183	0.16629
3184	0.1674
3185	0.16846
3186	0.16952
3187	0.17061
3188	0.17172
3189	0.17283
3190	0.17396
3191	0.17512
3192	0.17626
3193	0.17742
3194	0.17854
3195	0.17959
3196	0.18058
3197	0.18166
3198	0.18284
3199	0.18397
3200	0.18502
3201	0.18607
3202	0.18719
3203	0.18833
3204	0.18942
3205	0.1905
3206	0.19161
3207	0.19275
3208	0.19385
3209	0.19486
3210	0.19589
3211	0.19699
3212	0.19815
3213	0.19925
3214	0.20026
3215	0.20124
3216	0.20232
3217	0.20347
3218	0.20456
3219	0.20555
3220	0.2066
3221	0.20778
3222	0.20899
3223	0.21021
3224	0.21139
3225	0.21249
3226	0.21359
3227	0.2147
3228	0.21583
3229	0.21699
3230	0.21815
3231	0.21934
3232	0.22055
3233	0.22179
3234	0.22304
3235	0.2243
3236	0.22559
3237	0.22688
3238	0.22821
3239	0.22954
3240	0.23087
3241	0.23226
3242	0.23369
3243	0.23507
3244	0.23636
3245	0.23773
3246	0.23921
3247	0.24069
3248	0.24213
3249	0.24356
3250	0.24497
3251	0.24638
3252	0.24788
3253	0.24938
3254	0.25083
3255	0.25228
3256	0.25378
3257	0.25524
3258	0.25668
3259	0.25815
3260	0.25966
3261	0.2612
3262	0.26272
3263	0.26419
3264	0.26571
3265	0.26732
3266	0.26895
3267	0.27054
3268	0.27208
3269	0.27356
3270	0.27495
3271	0.27642
3272	0.27803
3273	0.27966
3274	0.28125
3275	0.28277
3276	0.2843
3277	0.28586
3278	0.28748
3279	0.28911
3280	0.2907
3281	0.29229
3282	0.29387
3283	0.29547
3284	0.29713
3285	0.29877
3286	0.30039
3287	0.30205
3288	0.30373
3289	0.30535
3290	0.30696
3291	0.3086
3292	0.31031
3293	0.31202
3294	0.31374
3295	0.31552
3296	0.3174
3297	0.31925
3298	0.32103
3299	0.32277
3300	0.32451
3301	0.32624
3302	0.32803
3303	0.32995
3304	0.33183
3305	0.33363
3306	0.33542
3307	0.33718
3308	0.33899
3309	0.34092
3310	0.34289
3311	0.34483
3312	0.34677
3313	0.34877
3314	0.3508
3315	0.35277
3316	0.35468
3317	0.35658
3318	0.3585
3319	0.3604
3320	0.36231
3321	0.36427
3322	0.36629
3323	0.36831
3324	0.37029
3325	0.37223
3326	0.37418
3327	0.37625
3328	0.37836
3329	0.38041
3330	0.38242
3331	0.38442
3332	0.38653
3333	0.38871
3334	0.39083
3335	0.39285
3336	0.39485
3337	0.39686
3338	0.39891
3339	0.40094
3340	0.40291
3341	0.40497
3342	0.4072
3343	0.4094
3344	0.41148
3345	0.41346
3346	0.4154
3347	0.41738
3348	0.41944
3349	0.42147
3350	0.42348
3351	0.42561
3352	0.42784
3353	0.43002
3354	0.43204
3355	0.43388
3356	0.43571
3357	0.43763
3358	0.43968
3359	0.44171
3360	0.44363
3361	0.44548
3362	0.44745
3363	0.44954
3364	0.4515
3365	0.4532
3366	0.45485
3367	0.45655
3368	0.45828
3369	0.46002
3370	0.46172
3371	0.46337
3372	0.46498
3373	0.46666
3374	0.46851
3375	0.47027
3376	0.47175
3377	0.4731
3378	0.47452
3379	0.47592
3380	0.47729
3381	0.47876
3382	0.4803
3383	0.48169
3384	0.4829
3385	0.48401
3386	0.48515
3387	0.48633
3388	0.4874
3389	0.48835
3390	0.48916
3391	0.48978
3392	0.49036
3393	0.49131
3394	0.49257
3395	0.49375
3396	0.49469
3397	0.49538
3398	0.49578
3399	0.49602
3400	0.49625
3401	0.49664
3402	0.49733
3403	0.49835
3404	0.49939
3405	0.50004
3406	0.50034
3407	0.50047
3408	0.50052
3409	0.50056
3410	0.50089
3411	0.50109
3412	0.50073
3413	0.50038
3414	0.50052
3415	0.50087
3416	0.5011
3417	0.50117
3418	0.50096
3419	0.50048
3420	0.4999
3421	0.49949
3422	0.49918
3423	0.49869
3424	0.49801
3425	0.49728
3426	0.49648
3427	0.49565
3428	0.4947
3429	0.49363
3430	0.49248
3431	0.49141
3432	0.49049
3433	0.48942
3434	0.48802
3435	0.48664
3436	0.48542
3437	0.4842
3438	0.48309
3439	0.4822
3440	0.48124
3441	0.47992
3442	0.47834
3443	0.4767
3444	0.47517
3445	0.47362
3446	0.47188
3447	0.47
3448	0.46833
3449	0.46696
3450	0.46543
3451	0.46358
3452	0.46155
3453	0.45947
3454	0.45731
3455	0.45521
3456	0.45325
3457	0.45134
3458	0.44938
3459	0.44733
3460	0.44516
3461	0.44303
3462	0.4411
3463	0.4391
3464	0.43682
3465	0.43456
3466	0.43225
3467	0.4299
3468	0.42779
3469	0.42579
3470	0.42363
3471	0.42148
3472	0.41947
3473	0.41744
3474	0.41533
3475	0.41318
3476	0.41106
3477	0.40893
3478	0.4067
3479	0.40438
3480	0.40215
3481	0.4
3482	0.39779
3483	0.39562
3484	0.39369
3485	0.39161
3486	0.38924
3487	0.38688
3488	0.38471
3489	0.38273
3490	0.38082
3491	0.37874
3492	0.37664
3493	0.37478
3494	0.37297
3495	0.37099
3496	0.36892
3497	0.36685
3498	0.36477
3499	0.36266
3500	0.36061
3501	0.35861
3502	0.35652
3503	0.35425
3504	0.35214
3505	0.35037
3506	0.34875
3507	0.34707
3508	0.34521
3509	0.34312
3510	0.34108
3511	0.33942
3512	0.33779
3513	0.336
3514	0.33416
3515	0.33239
3516	0.33064
3517	0.32887
3518	0.3271
3519	0.32526
3520	0.32343
3521	0.32177
3522	0.32
3523	0.31788
3524	0.31573
3525	0.31397
3526	0.31235
3527	0.3105
3528	0.3086
3529	0.30692
3530	0.30536
3531	0.30373
3532	0.3021
3533	0.30052
3534	0.29886
3535	0.29705
3536	0.29502
3537	0.29296
3538	0.29116
3539	0.28946
3540	0.28772
3541	0.28602
3542	0.28419
3543	0.28222
3544	0.28025
3545	0.2783
3546	0.27643
3547	0.27463
3548	0.2728
3549	0.27106
3550	0.26932
3551	0.2674
3552	0.26523
3553	0.26309
3554	0.26133
3555	0.25969
3556	0.25787
3557	0.25588
3558	0.25395
3559	0.25205
3560	0.25002
3561	0.24795
3562	0.24597
3563	0.24388
3564	0.24173
3565	0.23947
3566	0.23666
3567	0.23376
3568	0.2317
3569	0.23023
3570	0.22894
3571	0.22739
3572	0.22563
3573	0.22369
3574	0.22145
3575	0.21913
3576	0.21694
3577	0.21478
3578	0.21266
3579	0.21059
3580	0.20835
3581	0.20622
3582	0.20429
3583	0.2022
3584	0.19991
3585	0.19771
3586	0.19532
3587	0.19234
3588	0.18946
3589	0.1873
3590	0.18571
3591	0.18416
3592	0.1822
3593	0.17973
3594	0.17715
3595	0.17483
3596	0.17275
3597	0.17096
3598	0.16905
3599	0.16682
3600	0.16453
3601	0.16234
3602	0.1605
3603	0.15886
3604	0.15707
3605	0.15509
3606	0.15295
3607	0.15057
3608	0.1484
3609	0.14661
3610	0.14495
3611	0.14341
3612	0.14151
3613	0.13904
3614	0.13666
3615	0.13464
3616	0.13275
3617	0.13069
3618	0.12827
3619	0.12604
3620	0.124
3621	0.12203
3622	0.12025
3623	0.11845
3624	0.11653
3625	0.1145
3626	0.11237
3627	0.11039
3628	0.10833
3629	0.10555
3630	0.10336
3631	0.10258
3632	0.10174
3633	0.10042
3634	0.09876
3635	0.09729
3636	0.09605
3637	0.09462
3638	0.09305
3639	0.09157
3640	0.09015
3641	0.08861
3642	0.08692
3643	0.08532
3644	0.08383
3645	0.0822
3646	0.08025
3647	0.07792
3648	0.07578
3649	0.07402
3650	0.07226
3651	0.07123
3652	0.071
3653	0.07061
3654	0.06963
3655	0.0682
3656	0.06653
3657	0.06511
3658	0.06419
3659	0.06325
3660	0.06208
3661	0.0609
3662	0.05981
3663	0.05874
3664	0.05761
3665	0.05638
3666	0.05513
3667	0.05386
3668	0.05229
3669	0.05043
3670	0.04894
3671	0.04831
3672	0.04793
3673	0.04714
3674	0.04566
3675	0.04359
3676	0.0426
3677	0.04268
3678	0.04245
3679	0.04181
3680	0.04116
3681	0.04068
3682	0.04021
3683	0.03954
3684	0.03866
3685	0.03776
3686	0.03679
3687	0.03569
3688	0.03462
3689	0.0337
3690	0.03275
3691	0.03206
3692	0.032
3693	0.03208
3694	0.03182
3695	0.03136
3696	0.03089
3697	0.0305
3698	0.03011
3699	0.02962
3700	0.02905
3701	0.02857
3702	0.02822
3703	0.028
3704	0.02782
3705	0.0276
3706	0.02732
3707	0.02699
3708	0.02632
3709	0.02538
3710	0.02477
3711	0.02449
3712	0.02476
3713	0.02589
3714	0.02666
3715	0.02681
3716	0.02661
3717	0.02609
3718	0.02532
3719	0.02459
3720	0.02398
3721	0.02321
3722	0.02231
3723	0.02189
3724	0.02177
3725	0.0213
3726	0.02072
3727	0.02062
3728	0.02099
3729	0.02122
3730	0.02094
3731	0.02041
3732	0.02015
3733	0.0199
3734	0.01917
3735	0.01848
3736	0.01886
3737	0.01988
3738	0.02057
3739	0.02097
3740	0.02118
3741	0.02129
3742	0.02129
3743	0.021
3744	0.02066
3745	0.02088
3746	0.02122
3747	0.02098
3748	0.02043
3749	0.01991
3750	0.01959
3751	0.01939
3752	0.0198
3753	0.02083
3754	0.02141
3755	0.02139
3756	0.02115
3757	0.02102
3758	0.02088
3759	0.02065
3760	0.02077
3761	0.02117
3762	0.02129
3763	0.02126
3764	0.02109
3765	0.02075
3766	0.02061
3767	0.02073
3768	0.02057
3769	0.02014
3770	0.02001
3771	0.02036
3772	0.02062
3773	0.02067
3774	0.02065
3775	0.02057
3776	0.02044
3777	0.02016
3778	0.01969
3779	0.01933
3780	0.01946
3781	0.01978
3782	0.01986
3783	0.01972
3784	0.01937
3785	0.01911
3786	0.01926
3787	0.01954
3788	0.01964
3789	0.01962
3790	0.01959
3791	0.01955
3792	0.01945
3793	0.01929
3794	0.01905
3795	0.01867
3796	0.01827
3797	0.01813
3798	0.01813
3799	0.01782
3800	0.01709
3801	0.01644
3802	0.01667
3803	0.0174
3804	0.01773
3805	0.01753
3806	0.01705
3807	0.01705
3808	0.01764
3809	0.01805
3810	0.01813
3811	0.01806
3812	0.01796
3813	0.01774
3814	0.01726
3815	0.01652
3816	0.01608
3817	0.01646
3818	0.01657
3819	0.01608
3820	0.01531
3821	0.01506
3822	0.01587
3823	0.01649
3824	0.01663
3825	0.01656
3826	0.01638
3827	0.01635
3828	0.01656
3829	0.0167
3830	0.01652
3831	0.0162
3832	0.01609
3833	0.01604
3834	0.01577
3835	0.0155
3836	0.01518
3837	0.01479
3838	0.01466
3839	0.01466
3840	0.01461
3841	0.01495
3842	0.0153
3843	0.01531
3844	0.01553
3845	0.01598
3846	0.01616
3847	0.01611
3848	0.01595
3849	0.01567
3850	0.01518
3851	0.01447
3852	0.01349
3853	0.01287
3854	0.01367
3855	0.01484
3856	0.01505
3857	0.0151
3858	0.01545
3859	0.01569
3860	0.01553
3861	0.01516
3862	0.01486
3863	0.01463
3864	0.01434
3865	0.01442
3866	0.01491
3867	0.01511
3868	0.01471
3869	0.01386
3870	0.0135
3871	0.01429
3872	0.01473
3873	0.01458
3874	0.01447
3875	0.01488
3876	0.01531
3877	0.01535
3878	0.01513
3879	0.01464
3880	0.0142
3881	0.01426
3882	0.01459
3883	0.01458
3884	0.01424
3885	0.01397
3886	0.0144
3887	0.01504
3888	0.01524
3889	0.01506
3890	0.01467
3891	0.01434
3892	0.01444
3893	0.0147
3894	0.01491
3895	0.01509
3896	0.01513
3897	0.01478
3898	0.0142
3899	0.0139
3900	0.01402
3901	0.01397
3902	0.01376
3903	0.01367
3904	0.01375
3905	0.01404
3906	0.01445
3907	0.01484
3908	0.01513
3909	0.01528
3910	0.01535
3911	0.01537
3912	0.0153
3913	0.01519
3914	0.01515
3915	0.01502
3916	0.01468
3917	0.01449
3918	0.01466
3919	0.01479
3920	0.0149
3921	0.01512
3922	0.01518
3923	0.01493
3924	0.01462
3925	0.01464
3926	0.01493
3927	0.01511
3928	0.0151
3929	0.01496
3930	0.01477
3931	0.0146
3932	0.01455
3933	0.01465
3934	0.01483
3935	0.01503
3936	0.0152
3937	0.0153
3938	0.01531
3939	0.01527
3940	0.01516
3941	0.01497
3942	0.01475
3943	0.0147
3944	0.0149
3945	0.01506
3946	0.01502
3947	0.01487
3948	0.01477
3949	0.01474
3950	0.01478
3951	0.01493
3952	0.015
3953	0.01502
3954	0.0151
3955	0.01517
3956	0.01521
3957	0.0152
3958	0.01515
3959	0.01509
3960	0.01504
3961	0.015
3962	0.01506
3963	0.01519
3964	0.01527
3965	0.01524
3966	0.0152
3967	0.01522
3968	0.01522
3969	0.01514
3970	0.01504
3971	0.015
3972	0.01503
3973	0.0151
3974	0.01511
3975	0.01508
3976	0.01514
3977	0.01528
3978	0.01536
3979	0.01533
3980	0.01527
3981	0.01519
3982	0.01517
3983	0.01521
3984	0.01531
3985	0.01539
3986	0.0154
3987	0.01535
3988	0.01528
3989	0.01524
3990	0.01528
3991	0.01531
3992	0.01532
3993	0.01538
3994	0.01546
3995	0.01546
3996	0.01542
3997	0.01542