4000.18193	0.02517
3999.21756	0.02521
3998.2532	0.02533
3997.28884	0.02555
3996.32447	0.02617
3995.36011	0.02669
3994.39574	0.02647
3993.43138	0.02616
3992.46702	0.02649
3991.50265	0.02714
3990.53829	0.02734
3989.57392	0.0269
3988.60956	0.02645
3987.6452	0.02634
3986.68083	0.02641
3985.71647	0.02633
3984.7521	0.02627
3983.78774	0.02654
3982.82338	0.02701
3981.85901	0.02728
3980.89465	0.02732
3979.93028	0.02724
3978.96592	0.0271
3978.00156	0.02734
3977.03719	0.02818
3976.07283	0.02897
3975.10846	0.02913
3974.1441	0.02895
3973.17974	0.02889
3972.21537	0.02869
3971.25101	0.02842
3970.28664	0.02856
3969.32228	0.02867
3968.35792	0.02824
3967.39355	0.02777
3966.42919	0.0278
3965.46482	0.02818
3964.50046	0.02864
3963.5361	0.02952
3962.57173	0.03064
3961.60737	0.0307
3960.643	0.02997
3959.67864	0.02976
3958.71428	0.0301
3957.74991	0.03048
3956.78555	0.03046
3955.82118	0.03003
3954.85682	0.02986
3953.89246	0.03023
3952.92809	0.03059
3951.96373	0.03133
3950.99936	0.03316
3950.035	0.03459
3949.07064	0.03481
3948.10627	0.03453
3947.14191	0.03318
3946.17754	0.03178
3945.21318	0.03214
3944.24882	0.03432
3943.28445	0.03627
3942.32009	0.03504
3941.35572	0.03247
3940.39136	0.03147
3939.427	0.03163
3938.46263	0.03167
3937.49827	0.03127
3936.5339	0.03109
3935.56954	0.03185
3934.60518	0.03366
3933.64081	0.03639
3932.67645	0.03842
3931.71208	0.03804
3930.74772	0.03703
3929.78336	0.03609
3928.81899	0.03442
3927.85463	0.03313
3926.89026	0.03397
3925.9259	0.03706
3924.96154	0.03969
3923.99717	0.03839
3923.03281	0.03541
3922.06844	0.03456
3921.10408	0.03612
3920.13972	0.03704
3919.17535	0.03668
3918.21099	0.03829
3917.24662	0.04028
3916.28226	0.03829
3915.3179	0.03514
3914.35353	0.03378
3913.38917	0.03335
3912.4248	0.03311
3911.46044	0.03309
3910.49608	0.03325
3909.53171	0.03358
3908.56735	0.03434
3907.60298	0.03669
3906.63862	0.04113
3905.67426	0.04605
3904.70989	0.04833
3903.74553	0.0483
3902.78116	0.04846
3901.8168	0.04683
3900.85244	0.04507
3899.88807	0.04584
3898.92371	0.04464
3897.95934	0.04042
3896.99498	0.03749
3896.03062	0.03696
3895.06625	0.03832
3894.10189	0.04036
3893.13752	0.04323
3892.17316	0.04661
3891.2088	0.04516
3890.24443	0.0402
3889.28007	0.03793
3888.3157	0.0386
3887.35134	0.04205
3886.38698	0.04657
3885.42261	0.0463
3884.45825	0.04375
3883.49388	0.04298
3882.52952	0.04408
3881.56516	0.04789
3880.60079	0.04954
3879.63643	0.04394
3878.67206	0.03969
3877.7077	0.03872
3876.74333	0.03964
3875.77897	0.04324
3874.81461	0.04854
3873.85024	0.04862
3872.88588	0.04617
3871.92151	0.04867
3870.95715	0.05559
3869.99279	0.05769
3869.02842	0.04919
3868.06406	0.04416
3867.09969	0.04505
3866.13533	0.05019
3865.17097	0.05451
3864.2066	0.05239
3863.24224	0.05029
3862.27787	0.04921
3861.31351	0.04584
3860.34915	0.04307
3859.38478	0.0434
3858.42042	0.04638
3857.45605	0.04982
3856.49169	0.05228
3855.52733	0.05665
3854.56296	0.06557
3853.5986	0.07133
3852.63423	0.06445
3851.66987	0.05554
3850.70551	0.05085
3849.74114	0.04839
3848.77678	0.04568
3847.81241	0.04385
3846.84805	0.04395
3845.88369	0.04598
3844.91932	0.04975
3843.95496	0.05212
3842.99059	0.05161
3842.02623	0.0535
3841.06187	0.0586
3840.0975	0.06186
3839.13314	0.06287
3838.16877	0.06131
3837.20441	0.0566
3836.24005	0.05532
3835.27568	0.05499
3834.31132	0.05215
3833.34695	0.05142
3832.38259	0.05331
3831.41823	0.05231
3830.45386	0.0492
3829.4895	0.04873
3828.52513	0.05097
3827.56077	0.0537
3826.59641	0.05372
3825.63204	0.05203
3824.66768	0.05217
3823.70331	0.0549
3822.73895	0.06077
3821.77459	0.06872
3820.81022	0.06696
3819.84586	0.05897
3818.88149	0.05593
3817.91713	0.05745
3816.95277	0.06165
3815.9884	0.06087
3815.02404	0.05445
3814.05967	0.05095
3813.09531	0.04974
3812.13095	0.04946
3811.16658	0.04964
3810.20222	0.05037
3809.23785	0.05276
3808.27349	0.05777
3807.30913	0.06181
3806.34476	0.05836
3805.3804	0.05514
3804.41603	0.05656
3803.45167	0.06215
3802.48731	0.0701
3801.52294	0.07106
3800.55858	0.0628
3799.59421	0.05844
3798.62985	0.05893
3797.66549	0.06157
3796.70112	0.06129
3795.73676	0.0567
3794.77239	0.05344
3793.80803	0.05265
3792.84367	0.05267
3791.8793	0.05283
3790.91494	0.05312
3789.95057	0.05346
3788.98621	0.05385
3788.02185	0.0546
3787.05748	0.0563
3786.09312	0.059
3785.12875	0.06057
3784.16439	0.05884
3783.20003	0.05677
3782.23566	0.05674
3781.2713	0.05889
3780.30693	0.06224
3779.34257	0.06261
3778.37821	0.0597
3777.41384	0.0577
3776.44948	0.057
3775.48511	0.05695
3774.52075	0.05717
3773.55639	0.0578
3772.59202	0.05949
3771.62766	0.06303
3770.66329	0.06725
3769.69893	0.06674
3768.73457	0.06307
3767.7702	0.06273
3766.80584	0.06546
3765.84147	0.06676
3764.87711	0.06434
3763.91275	0.0624
3762.94838	0.0622
3761.98402	0.06359
3761.01965	0.06757
3760.05529	0.07226
3759.09093	0.07169
3758.12656	0.06984
3757.1622	0.07004
3756.19783	0.06949
3755.23347	0.06938
3754.26911	0.07291
3753.30474	0.08027
3752.34038	0.08787
3751.37601	0.08977
3750.41165	0.0897
3749.44729	0.08569
3748.48292	0.07959
3747.51856	0.07825
3746.55419	0.08096
3745.58983	0.08646
3744.62547	0.08522
3743.6611	0.0757
3742.69674	0.07411
3741.73237	0.07544
3740.76801	0.07497
3739.80365	0.07436
3738.83928	0.07668
3737.87492	0.08116
3736.91055	0.08713
3735.94619	0.09316
3734.98182	0.08998
3734.01746	0.08308
3733.0531	0.08114
3732.08873	0.07857
3731.12437	0.07317
3730.16	0.07011
3729.19564	0.07013
3728.23128	0.07282
3727.26691	0.07671
3726.30255	0.07843
3725.33818	0.07736
3724.37382	0.07714
3723.40946	0.07953
3722.44509	0.08022
3721.48073	0.07698
3720.51636	0.0761
3719.552	0.07746
3718.58764	0.07698
3717.62327	0.07573
3716.65891	0.07656
3715.69454	0.07879
3714.73018	0.08143
3713.76582	0.08576
3712.80145	0.09234
3711.83709	0.09493
3710.87272	0.09236
3709.90836	0.08922
3708.944	0.08398
3707.97963	0.08025
3707.01527	0.07954
3706.0509	0.07962
3705.08654	0.07942
3704.12218	0.08043
3703.15781	0.08412
3702.19345	0.08758
3701.22908	0.08569
3700.26472	0.08271
3699.30036	0.08215
3698.33599	0.08298
3697.37163	0.08426
3696.40726	0.08508
3695.4429	0.08542
3694.47854	0.08642
3693.51417	0.08879
3692.54981	0.09341
3691.58544	0.09987
3690.62108	0.10376
3689.65672	0.10541
3688.69235	0.10447
3687.72799	0.0983
3686.76362	0.09426
3685.79926	0.09351
3684.8349	0.09386
3683.87053	0.09408
3682.90617	0.09455
3681.9418	0.09621
3680.97744	0.0996
3680.01308	0.10335
3679.04871	0.10548
3678.08435	0.10848
3677.11998	0.11572
3676.15562	0.12682
3675.19126	0.12514
3674.22689	0.11395
3673.26253	0.11077
3672.29816	0.11399
3671.3338	0.12146
3670.36944	0.12682
3669.40507	0.12385
3668.44071	0.11773
3667.47634	0.11376
3666.51198	0.11276
3665.54762	0.11308
3664.58325	0.1138
3663.61889	0.11471
3662.65452	0.11572
3661.69016	0.11697
3660.7258	0.11849
3659.76143	0.11987
3658.79707	0.12177
3657.8327	0.12584
3656.86834	0.13085
3655.90398	0.13082
3654.93961	0.12827
3653.97525	0.12855
3653.01088	0.13214
3652.04652	0.13953
3651.08216	0.15035
3650.11779	0.15725
3649.15343	0.15707
3648.18906	0.15608
3647.2247	0.15162
3646.26034	0.14414
3645.29597	0.13978
3644.33161	0.13918
3643.36724	0.14081
3642.40288	0.14224
3641.43852	0.14211
3640.47415	0.14209
3639.50979	0.14329
3638.54542	0.14476
3637.58106	0.14523
3636.6167	0.14548
3635.65233	0.14733
3634.68797	0.15065
3633.7236	0.15245
3632.75924	0.15241
3631.79488	0.15471
3630.83051	0.16135
3629.86615	0.17174
3628.90178	0.1745
3627.93742	0.16675
3626.97306	0.16253
3626.00869	0.16056
3625.04433	0.15929
3624.07996	0.15967
3623.1156	0.16171
3622.15124	0.16541
3621.18687	0.17095
3620.22251	0.17696
3619.25814	0.18031
3618.29378	0.17948
3617.32942	0.17674
3616.36505	0.17687
3615.40069	0.18062
3614.43632	0.18469
3613.47196	0.18693
3612.5076	0.18599
3611.54323	0.18378
3610.57887	0.18476
3609.6145	0.18791
3608.65014	0.1899
3607.68578	0.19042
3606.72141	0.18871
3605.75705	0.18637
3604.79268	0.18632
3603.82832	0.1883
3602.86396	0.19113
3601.89959	0.19433
3600.93523	0.19685
3599.97086	0.19812
3599.0065	0.19891
3598.04214	0.19971
3597.07777	0.20154
3596.11341	0.20445
3595.14904	0.20605
3594.18468	0.20655
3593.22031	0.20679
3592.25595	0.2063
3591.29159	0.20692
3590.32722	0.21024
3589.36286	0.21647
3588.39849	0.22381
3587.43413	0.22715
3586.46977	0.22406
3585.5054	0.22006
3584.54104	0.2191
3583.57667	0.21975
3582.61231	0.2204
3581.64795	0.22167
3580.68358	0.22384
3579.71922	0.22556
3578.75485	0.22658
3577.79049	0.22802
3576.82613	0.22949
3575.86176	0.23074
3574.8974	0.2321
3573.93303	0.23298
3572.96867	0.23367
3572.00431	0.23521
3571.03994	0.23768
3570.07558	0.24116
3569.11121	0.24667
3568.14685	0.2538
3567.18249	0.25869
3566.21812	0.25718
3565.25376	0.25246
3564.28939	0.25009
3563.32503	0.24987
3562.36067	0.25023
3561.3963	0.25131
3560.43194	0.25224
3559.46757	0.25215
3558.50321	0.25215
3557.53885	0.25275
3556.57448	0.25335
3555.61012	0.25452
3554.64575	0.25697
3553.68139	0.26017
3552.71703	0.26276
3551.75266	0.26301
3550.7883	0.26205
3549.82393	0.26241
3548.85957	0.26491
3547.89521	0.26866
3546.93084	0.27203
3545.96648	0.27418
3545.00211	0.2747
3544.03775	0.27372
3543.07339	0.2725
3542.10902	0.27168
3541.14466	0.27157
3540.18029	0.27223
3539.21593	0.27343
3538.25157	0.27553
3537.2872	0.27845
3536.32284	0.28006
3535.35847	0.27946
3534.39411	0.27903
3533.42975	0.27981
3532.46538	0.28129
3531.50102	0.28311
3530.53665	0.28506
3529.57229	0.28739
3528.60793	0.2898
3527.64356	0.29118
3526.6792	0.29132
3525.71483	0.29181
3524.75047	0.29362
3523.78611	0.29545
3522.82174	0.29509
3521.85738	0.29331
3520.89301	0.29258
3519.92865	0.29329
3518.96429	0.29436
3517.99992	0.29507
3517.03556	0.29559
3516.07119	0.29624
3515.10683	0.29731
3514.14247	0.29871
3513.1781	0.30015
3512.21374	0.30167
3511.24937	0.30379
3510.28501	0.30636
3509.32065	0.3075
3508.35628	0.30678
3507.39192	0.30654
3506.42755	0.30786
3505.46319	0.31043
3504.49883	0.31364
3503.53446	0.31633
3502.5701	0.31697
3501.60573	0.31607
3500.64137	0.31532
3499.67701	0.31548
3498.71264	0.31655
3497.74828	0.31835
3496.78391	0.32008
3495.81955	0.32108
3494.85519	0.32173
3493.89082	0.32249
3492.92646	0.32348
3491.96209	0.3246
3490.99773	0.32578
3490.03337	0.32734
3489.069	0.32946
3488.10464	0.33127
3487.14027	0.33237
3486.17591	0.3334
3485.21155	0.33456
3484.24718	0.33603
3483.28282	0.33827
3482.31845	0.34066
3481.35409	0.34215
3480.38973	0.34278
3479.42536	0.34307
3478.461	0.34351
3477.49663	0.34448
3476.53227	0.34609
3475.56791	0.34799
3474.60354	0.34933
3473.63918	0.35011
3472.67481	0.35111
3471.71045	0.35259
3470.74609	0.3542
3469.78172	0.35563
3468.81736	0.35701
3467.85299	0.35875
3466.88863	0.36052
3465.92427	0.36173
3464.9599	0.36268
3463.99554	0.36414
3463.03117	0.36602
3462.06681	0.36756
3461.10245	0.36865
3460.13808	0.36975
3459.17372	0.37103
3458.20935	0.37232
3457.24499	0.37354
3456.28062	0.37474
3455.31626	0.37588
3454.3519	0.37688
3453.38753	0.37792
3452.42317	0.37912
3451.4588	0.38041
3450.49444	0.38161
3449.53008	0.38318
3448.56571	0.3857
3447.60135	0.38841
3446.63698	0.38932
3445.67262	0.38894
3444.70826	0.38912
3443.74389	0.39039
3442.77953	0.39187
3441.81516	0.39265
3440.8508	0.39295
3439.88644	0.39338
3438.92207	0.39403
3437.95771	0.39495
3436.99334	0.39582
3436.02898	0.39652
3435.06462	0.39733
3434.10025	0.39827
3433.13589	0.39927
3432.17152	0.40023
3431.20716	0.40085
3430.2428	0.40118
3429.27843	0.40165
3428.31407	0.40242
3427.3497	0.40314
3426.38534	0.40365
3425.42098	0.40414
3424.45661	0.40479
3423.49225	0.40575
3422.52788	0.40686
3421.56352	0.40774
3420.59916	0.40796
3419.63479	0.40747
3418.67043	0.40696
3417.70606	0.40676
3416.7417	0.40672
3415.77734	0.40676
3414.81297	0.40689
3413.84861	0.40696
3412.88424	0.407
3411.91988	0.40702
3410.95552	0.40709
3409.99115	0.4071
3409.02679	0.40725
3408.06242	0.40759
3407.09806	0.40781
3406.1337	0.40786
3405.16933	0.40796
3404.20497	0.40804
3403.2406	0.40792
3402.27624	0.40775
3401.31188	0.40773
3400.34751	0.40788
3399.38315	0.40826
3398.41878	0.40895
3397.45442	0.40942
3396.49006	0.40909
3395.52569	0.40853
3394.56133	0.40864
3393.59696	0.40932
3392.6326	0.40952
3391.66824	0.40902
3390.70387	0.40848
3389.73951	0.40828
3388.77514	0.40824
3387.81078	0.40831
3386.84642	0.40867
3385.88205	0.40916
3384.91769	0.40932
3383.95332	0.40891
3382.98896	0.40834
3382.0246	0.40787
3381.06023	0.40748
3380.09587	0.40717
3379.1315	0.40683
3378.16714	0.40621
3377.20278	0.40546
3376.23841	0.40494
3375.27405	0.40461
3374.30968	0.4043
3373.34532	0.40387
3372.38096	0.4032
3371.41659	0.40237
3370.45223	0.40165
3369.48786	0.4011
3368.5235	0.40059
3367.55914	0.40012
3366.59477	0.39969
3365.63041	0.39916
3364.66604	0.3984
3363.70168	0.39769
3362.73732	0.39706
3361.77295	0.39627
3360.80859	0.39537
3359.84422	0.39449
3358.87986	0.39364
3357.9155	0.39297
3356.95113	0.39252
3355.98677	0.39199
3355.0224	0.39121
3354.05804	0.39032
3353.09368	0.3895
3352.12931	0.38878
3351.16495	0.38813
3350.20058	0.38748
3349.23622	0.38693
3348.27186	0.38648
3347.30749	0.38612
3346.34313	0.38572
3345.37876	0.3853
3344.4144	0.38476
3343.45004	0.38414
3342.48567	0.38353
3341.52131	0.38299
3340.55694	0.38246
3339.59258	0.38194
3338.62822	0.38157
3337.66385	0.38141
3336.69949	0.38118
3335.73512	0.38067
3334.77076	0.37994
3333.8064	0.37911
3332.84203	0.37837
3331.87767	0.37788
3330.9133	0.37755
3329.94894	0.37721
3328.98458	0.37675
3328.02021	0.37623
3327.05585	0.3758
3326.09148	0.37556
3325.12712	0.37529
3324.16276	0.37484
3323.19839	0.37429
3322.23403	0.37369
3321.26966	0.37313
3320.3053	0.37264
3319.34094	0.37223
3318.37657	0.37182
3317.41221	0.37143
3316.44784	0.37107
3315.48348	0.37078
3314.51911	0.37065
3313.55475	0.37052
3312.59039	0.37023
3311.62602	0.37
3310.66166	0.37009
3309.69729	0.37039
3308.73293	0.37043
3307.76857	0.37007
3306.8042	0.36962
3305.83984	0.36927
3304.87547	0.36894
3303.91111	0.3686
3302.94675	0.36825
3301.98238	0.36791
3301.01802	0.36771
3300.05365	0.36764
3299.08929	0.3676
3298.12493	0.36762
3297.16056	0.36758
3296.1962	0.36744
3295.23183	0.36737
3294.26747	0.36742
3293.30311	0.36749
3292.33874	0.36745
3291.37438	0.36717
3290.41001	0.36688
3289.44565	0.36693
3288.48129	0.36709
3287.51692	0.36713
3286.55256	0.36716
3285.58819	0.36747
3284.62383	0.36789
3283.65947	0.36825
3282.6951	0.36836
3281.73074	0.3685
3280.76637	0.3689
3279.80201	0.36941
3278.83765	0.36993
3277.87328	0.37056
3276.90892	0.37136
3275.94455	0.37209
3274.98019	0.37285
3274.01583	0.3737
3273.05146	0.37437
3272.0871	0.37496
3271.12273	0.37563
3270.15837	0.37649
3269.19401	0.37753
3268.22964	0.37863
3267.26528	0.37985
3266.30091	0.38132
3265.33655	0.38275
3264.37219	0.38407
3263.40782	0.38554
3262.44346	0.38727
3261.47909	0.38914
3260.51473	0.39102
3259.55037	0.39283
3258.586	0.39479
3257.62164	0.39699
3256.65727	0.39927
3255.69291	0.40168
3254.72855	0.40416
3253.76418	0.40644
3252.79982	0.4086
3251.83545	0.41106
3250.87109	0.4137
3249.90673	0.41618
3248.94236	0.41863
3247.978	0.42125
3247.01363	0.42413
3246.04927	0.42702
3245.08491	0.42922
3244.12054	0.43054
3243.15618	0.4316
3242.19181	0.43268
3241.22745	0.43338
3240.26309	0.43343
3239.29872	0.43293
3238.33436	0.43205
3237.36999	0.43093
3236.40563	0.42936
3235.44127	0.42736
3234.4769	0.42523
3233.51254	0.42306
3232.54817	0.42074
3231.58381	0.41835
3230.61945	0.41593
3229.65508	0.41342
3228.69072	0.41098
3227.72635	0.40853
3226.76199	0.40578
3225.79763	0.40292
3224.83326	0.40035
3223.8689	0.39809
3222.90453	0.396
3221.94017	0.39396
3220.97581	0.39202
3220.01144	0.39012
3219.04708	0.3882
3218.08271	0.38639
3217.11835	0.38485
3216.15399	0.38344
3215.18962	0.38232
3214.22526	0.38143
3213.26089	0.38052
3212.29653	0.37973
3211.33217	0.37924
3210.3678	0.37893
3209.40344	0.37847
3208.43907	0.37777
3207.47471	0.37704
3206.51035	0.37632
3205.54598	0.37565
3204.58162	0.37496
3203.61725	0.37415
3202.65289	0.37313
3201.68853	0.37178
3200.72416	0.37023
3199.7598	0.36875
3198.79543	0.36734
3197.83107	0.36556
3196.86671	0.36316
3195.90234	0.36045
3194.93798	0.35785
3193.97361	0.35546
3193.00925	0.35305
3192.04489	0.35048
3191.08052	0.34789
3190.11616	0.34543
3189.15179	0.34307
3188.18743	0.34066
3187.22307	0.33822
3186.2587	0.33587
3185.29434	0.33367
3184.32997	0.33137
3183.36561	0.32893
3182.40125	0.32645
3181.43688	0.32403
3180.47252	0.32187
3179.50815	0.32012
3178.54379	0.31834
3177.57943	0.31608
3176.61506	0.31372
3175.6507	0.31173
3174.68633	0.30995
3173.72197	0.30818
3172.7576	0.30637
3171.79324	0.30459
3170.82888	0.30298
3169.86451	0.30149
3168.90015	0.29992
3167.93578	0.29817
3166.97142	0.29648
3166.00706	0.29509
3165.04269	0.29384
3164.07833	0.29246
3163.11396	0.29094
3162.1496	0.28944
3161.18524	0.28812
3160.22087	0.2869
3159.25651	0.28571
3158.29214	0.28457
3157.32778	0.28353
3156.36342	0.2827
3155.39905	0.28198
3154.43469	0.28129
3153.47032	0.28062
3152.50596	0.28002
3151.5416	0.27973
3150.57723	0.27968
3149.61287	0.27978
3148.6485	0.28002
3147.68414	0.28064
3146.71978	0.28178
3145.75541	0.28347
3144.79105	0.28563
3143.82668	0.28807
3142.86232	0.29037
3141.89796	0.29197
3140.93359	0.29245
3139.96923	0.29166
3139.00486	0.2896
3138.0405	0.28671
3137.07614	0.28363
3136.11177	0.28074
3135.14741	0.27824
3134.18304	0.27623
3133.21868	0.27442
3132.25432	0.27264
3131.28995	0.2712
3130.32559	0.27011
3129.36122	0.26913
3128.39686	0.26816
3127.4325	0.26726
3126.46813	0.26625
3125.50377	0.26502
3124.5394	0.26386
3123.57504	0.26301
3122.61068	0.26205
3121.64631	0.2607
3120.68195	0.25935
3119.71758	0.25832
3118.75322	0.25723
3117.78886	0.25607
3116.82449	0.25511
3115.86013	0.25419
3114.89576	0.25294
3113.9314	0.25155
3112.96704	0.25042
3112.00267	0.24953
3111.03831	0.24865
3110.07394	0.24774
3109.10958	0.24682
3108.14522	0.24598
3107.18085	0.24523
3106.21649	0.2445
3105.25212	0.24385
3104.28776	0.24333
3103.3234	0.24291
3102.35903	0.24258
3101.39467	0.24229
3100.4303	0.24186
3099.46594	0.24119
3098.50158	0.24056
3097.53721	0.24033
3096.57285	0.24037
3095.60848	0.2403
3094.64412	0.24013
3093.67976	0.24015
3092.71539	0.24031
3091.75103	0.24044
3090.78666	0.24053
3089.8223	0.24066
3088.85794	0.24084
3087.89357	0.24102
3086.92921	0.241
3085.96484	0.2407
3085.00048	0.24047
3084.03612	0.24055
3083.07175	0.24088
3082.10739	0.24122
3081.14302	0.2416
3080.17866	0.2421
3079.2143	0.24272
3078.24993	0.24343
3077.28557	0.2443
3076.3212	0.2453
3075.35684	0.24656
3074.39248	0.24822
3073.42811	0.25011
3072.46375	0.25213
3071.49938	0.25412
3070.53502	0.25615
3069.57066	0.25827
3068.60629	0.2606
3067.64193	0.26308
3066.67756	0.26537
3065.7132	0.26732
3064.74884	0.26895
3063.78447	0.27009
3062.82011	0.27081
3061.85574	0.27132
3060.89138	0.27148
3059.92702	0.27121
3058.96265	0.2704
3057.99829	0.26924
3057.03392	0.26771
3056.06956	0.26551
3055.1052	0.26275
3054.14083	0.25978
3053.17647	0.25664
3052.2121	0.25328
3051.24774	0.24992
3050.28338	0.24664
3049.31901	0.24333
3048.35465	0.23979
3047.39028	0.2361
3046.42592	0.23257
3045.46156	0.22925
3044.49719	0.22609
3043.53283	0.22303
3042.56846	0.2201
3041.6041	0.21729
3040.63974	0.21464
3039.67537	0.2122
3038.71101	0.20993
3037.74664	0.20769
3036.78228	0.20549
3035.81792	0.2034
3034.85355	0.20141
3033.88919	0.19954
3032.92482	0.19797
3031.96046	0.19656
3030.99609	0.19489
3030.03173	0.19297
3029.06737	0.19125
3028.103	0.1898
3027.13864	0.18853
3026.17427	0.18725
3025.20991	0.18592
3024.24555	0.18464
3023.28118	0.18352
3022.31682	0.18243
3021.35245	0.18129
3020.38809	0.18026
3019.42373	0.17932
3018.45936	0.17843
3017.495	0.17756
3016.53063	0.17683
3015.56627	0.17622
3014.60191	0.17577
3013.63754	0.17559
3012.67318	0.17542
3011.70881	0.17513
3010.74445	0.17502
3009.78009	0.1751
3008.81572	0.17533
3007.85136	0.17581
3006.88699	0.17658
3005.92263	0.17754
3004.95827	0.17856
3003.9939	0.1794
3003.02954	0.18005
3002.06517	0.18063
3001.10081	0.18132
3000.13645	0.18224
2999.17208	0.18351
2998.20772	0.1852
2997.24335	0.18733
2996.27899	0.18985
2995.31463	0.19276
2994.35026	0.19594
2993.3859	0.19924
2992.42153	0.2027
2991.45717	0.20623
2990.49281	0.20965
2989.52844	0.21283
2988.56408	0.21554
2987.59971	0.21751
2986.63535	0.21876
2985.67099	0.21953
2984.70662	0.22015
2983.74226	0.22086
2982.77789	0.22183
2981.81353	0.22314
2980.84917	0.22487
2979.8848	0.22701
2978.92044	0.22949
2977.95607	0.23208
2976.99171	0.23451
2976.02735	0.23659
2975.06298	0.23836
2974.09862	0.23979
2973.13425	0.24068
2972.16989	0.241
2971.20553	0.24093
2970.24116	0.2407
2969.2768	0.24023
2968.31243	0.23941
2967.34807	0.23819
2966.38371	0.23658
2965.41934	0.23463
2964.45498	0.23251
2963.49061	0.23043
2962.52625	0.22847
2961.56189	0.22677
2960.59752	0.22554
2959.63316	0.22468
2958.66879	0.22391
2957.70443	0.22319
2956.74007	0.2228
2955.7757	0.22302
2954.81134	0.22396
2953.84697	0.2255
2952.88261	0.22761
2951.91825	0.23057
2950.95388	0.23452
2949.98952	0.23945
2949.02515	0.2452
2948.06079	0.25166
2947.09643	0.25863
2946.13206	0.26567
2945.1677	0.27205
2944.20333	0.27699
2943.23897	0.28006
2942.27461	0.28139
2941.31024	0.28117
2940.34588	0.27974
2939.38151	0.27747
2938.41715	0.27478
2937.45279	0.27208
2936.48842	0.2696
2935.52406	0.26734
2934.55969	0.26522
2933.59533	0.26333
2932.63097	0.26161
2931.6666	0.26015
2930.70224	0.25892
2929.73787	0.25785
2928.77351	0.2567
2927.80915	0.25554
2926.84478	0.2544
2925.88042	0.25317
2924.91605	0.25165
2923.95169	0.24977
2922.98733	0.24761
2922.02296	0.24533
2921.0586	0.24305
2920.09423	0.24081
2919.12987	0.2386
2918.16551	0.23644
2917.20114	0.23438
2916.23678	0.23243
2915.27241	0.23047
2914.30805	0.22835
2913.34369	0.22615
2912.37932	0.22405
2911.41496	0.22218
2910.45059	0.22032
2909.48623	0.21845
2908.52187	0.21661
2907.5575	0.2149
2906.59314	0.21327
2905.62877	0.21158
2904.66441	0.20964
2903.70005	0.20752
2902.73568	0.20542
2901.77132	0.20327
2900.80695	0.2009
2899.84259	0.19835
2898.87823	0.1957
2897.91386	0.19311
2896.9495	0.19065
2895.98513	0.18824
2895.02077	0.18576
2894.05641	0.18329
2893.09204	0.18101
2892.12768	0.17899
2891.16331	0.17722
2890.19895	0.17547
2889.23458	0.17373
2888.27022	0.17223
2887.30586	0.17109
2886.34149	0.17015
2885.37713	0.16925
2884.41276	0.16841
2883.4484	0.1678
2882.48404	0.1674
2881.51967	0.16703
2880.55531	0.16664
2879.59094	0.16638
2878.62658	0.16629
2877.66222	0.16633
2876.69785	0.16627
2875.73349	0.16596
2874.76912	0.16537
2873.80476	0.16464
2872.8404	0.16368
2871.87603	0.1624
2870.91167	0.16066
2869.9473	0.15865
2868.98294	0.15659
2868.01858	0.15457
2867.05421	0.1526
2866.08985	0.15057
2865.12548	0.14866
2864.16112	0.14701
2863.19676	0.14572
2862.23239	0.14463
2861.26803	0.14355
2860.30366	0.14248
2859.3393	0.1415
2858.37494	0.14067
2857.41057	0.13982
2856.44621	0.13871
2855.48184	0.13741
2854.51748	0.13607
2853.55312	0.13468
2852.58875	0.13306
2851.62439	0.13118
2850.66002	0.12906
2849.69566	0.12685
2848.7313	0.12464
2847.76693	0.12239
2846.80257	0.12008
2845.8382	0.11783
2844.87384	0.11584
2843.90948	0.11416
2842.94511	0.11258
2841.98075	0.11097
2841.01638	0.10949
2840.05202	0.10825
2839.08766	0.10724
2838.12329	0.10631
2837.15893	0.1053
2836.19456	0.10431
2835.2302	0.10345
2834.26584	0.10276
2833.30147	0.10217
2832.33711	0.10157
2831.37274	0.10092
2830.40838	0.10036
2829.44402	0.09992
2828.47965	0.09954
2827.51529	0.09905
2826.55092	0.09852
2825.58656	0.09815
2824.6222	0.09793
2823.65783	0.09769
2822.69347	0.09728
2821.7291	0.09684
2820.76474	0.09655
2819.80038	0.09642
2818.83601	0.09637
2817.87165	0.0963
2816.90728	0.0963
2815.94292	0.09652
2814.97856	0.097
2814.01419	0.09746
2813.04983	0.09758
2812.08546	0.09731
2811.1211	0.09671
2810.15674	0.09584
2809.19237	0.09477
2808.22801	0.0934
2807.26364	0.09195
2806.29928	0.09067
2805.33492	0.08963
2804.37055	0.08869
2803.40619	0.0878
2802.44182	0.08688
2801.47746	0.08602
2800.5131	0.0853
2799.54873	0.08463
2798.58437	0.08386
2797.62	0.08304
2796.65564	0.08231
2795.69128	0.0817
2794.72691	0.08105
2793.76255	0.08036
2792.79818	0.0797
2791.83382	0.07911
2790.86946	0.07862
2789.90509	0.07815
2788.94073	0.07756
2787.97636	0.07691
2787.012	0.07634
2786.04764	0.07587
2785.08327	0.07541
2784.11891	0.07489
2783.15454	0.07432
2782.19018	0.07385
2781.22582	0.07351
2780.26145	0.07318
2779.29709	0.07271
2778.33272	0.07224
2777.36836	0.07191
2776.404	0.07171
2775.43963	0.07152
2774.47527	0.07117
2773.5109	0.07077
2772.54654	0.07041
2771.58218	0.07016
2770.61781	0.06997
2769.65345	0.06969
2768.68908	0.06938
2767.72472	0.06922
2766.76036	0.06916
2765.79599	0.06909
2764.83163	0.06894
2763.86726	0.06871
2762.9029	0.06851
2761.93854	0.06842
2760.97417	0.0684
2760.00981	0.06832
2759.04544	0.06824
2758.08108	0.06825
2757.11672	0.06838
2756.15235	0.06842
2755.18799	0.06832
2754.22362	0.06818
2753.25926	0.06807
2752.2949	0.06801
2751.33053	0.06801
2750.36617	0.06797
2749.4018	0.06783
2748.43744	0.06771
2747.47307	0.06762
2746.50871	0.06748
2745.54435	0.06723
2744.57998	0.06697
2743.61562	0.06678
2742.65125	0.06669
2741.68689	0.06662
2740.72253	0.06646
2739.75816	0.0662
2738.7938	0.06602
2737.82943	0.06597
2736.86507	0.06591
2735.90071	0.06571
2734.93634	0.06544
2733.97198	0.06515
2733.00761	0.06495
2732.04325	0.0648
2731.07889	0.06473
2730.11452	0.06458
2729.15016	0.06442
2728.18579	0.06433
2727.22143	0.06426
2726.25707	0.06413
2725.2927	0.06395
2724.32834	0.0637
2723.36397	0.06354
2722.39961	0.06344
2721.43525	0.06335
2720.47088	0.06323
2719.50652	0.06315
2718.54215	0.06305
2717.57779	0.06286
2716.61343	0.06259
2715.64906	0.06234
2714.6847	0.06207
2713.72033	0.06178
2712.75597	0.06148
2711.79161	0.06109
2710.82724	0.0607
2709.86288	0.06025
2708.89851	0.05971
2707.93415	0.05913
2706.96979	0.05864
2706.00542	0.05824
2705.04106	0.05779
2704.07669	0.05723
2703.11233	0.05667
2702.14797	0.05623
2701.1836	0.05587
2700.21924	0.05549
2699.25487	0.05503
2698.29051	0.05456
2697.32615	0.05413
2696.36178	0.05377
2695.39742	0.05346
2694.43305	0.05312
2693.46869	0.05273
2692.50433	0.05239
2691.53996	0.05208
2690.5756	0.05177
2689.61123	0.05147
2688.64687	0.0512
2687.68251	0.05092
2686.71814	0.05061
2685.75378	0.05032
2684.78941	0.05002
2683.82505	0.04973
2682.86069	0.04953
2681.89632	0.04936
2680.93196	0.0492
2679.96759	0.04895
2679.00323	0.04862
2678.03887	0.04837
2677.0745	0.04813
2676.11014	0.04788
2675.14577	0.04753
2674.18141	0.04724
2673.21705	0.04699
2672.25268	0.04675
2671.28832	0.04653
2670.32395	0.04626
2669.35959	0.04596
2668.39523	0.04561
2667.43086	0.04532
2666.4665	0.0451
2665.50213	0.04481
2664.53777	0.04445
2663.57341	0.04416
2662.60904	0.04391
2661.64468	0.04363
2660.68031	0.04329
2659.71595	0.04289
2658.75159	0.04259
2657.78722	0.04235
2656.82286	0.04208
2655.85849	0.04175
2654.89413	0.04139
2653.92977	0.04102
2652.9654	0.0407
2652.00104	0.04032
2651.03667	0.03988
2650.07231	0.03947
2649.10795	0.03918
2648.14358	0.0389
2647.17922	0.03853
2646.21485	0.03804
2645.25049	0.0376
2644.28613	0.03729
2643.32176	0.03702
2642.3574	0.03672
2641.39303	0.03639
2640.42867	0.03606
2639.46431	0.03579
2638.49994	0.03559
2637.53558	0.0353
2636.57121	0.0349
2635.60685	0.03449
2634.64249	0.03425
2633.67812	0.03409
2632.71376	0.03384
2631.74939	0.03341
2630.78503	0.03298
2629.82067	0.03267
2628.8563	0.03249
2627.89194	0.03225
2626.92757	0.0319
2625.96321	0.03157
2624.99885	0.03129
2624.03448	0.03104
2623.07012	0.0308
2622.10575	0.03048
2621.14139	0.03015
2620.17703	0.02988
2619.21266	0.0297
2618.2483	0.02951
2617.28393	0.02928
2616.31957	0.0291
2615.35521	0.02894
2614.39084	0.02884
2613.42648	0.02875
2612.46211	0.02864
2611.49775	0.02851
2610.53339	0.02842
2609.56902	0.02842
2608.60466	0.02842
2607.64029	0.02833
2606.67593	0.02818
2605.71156	0.02807
2604.7472	0.02807
2603.78284	0.02805
2602.81847	0.02796
2601.85411	0.02788
2600.88974	0.02788
2599.92538	0.02788
2598.96102	0.02783
2597.99665	0.02775
2597.03229	0.02773
2596.06792	0.02783
2595.10356	0.02791
2594.1392	0.02787
2593.17483	0.02771
2592.21047	0.0275
2591.2461	0.02733
2590.28174	0.02724
2589.31738	0.02711
2588.35301	0.02686
2587.38865	0.0266
2586.42428	0.02642
2585.45992	0.02627
2584.49556	0.02604
2583.53119	0.02573
2582.56683	0.02545
2581.60246	0.02533
2580.6381	0.02524
2579.67374	0.02506
2578.70937	0.02475
2577.74501	0.02451
2576.78064	0.02434
2575.81628	0.02422
2574.85192	0.02403
2573.88755	0.02378
2572.92319	0.02354
2571.95882	0.02338
2570.99446	0.02325
2570.0301	0.02311
2569.06573	0.02296
2568.10137	0.0228
2567.137	0.02266
2566.17264	0.02252
2565.20828	0.02237
2564.24391	0.02216
2563.27955	0.02196
2562.31518	0.02183
2561.35082	0.02176
2560.38646	0.02161
2559.42209	0.02141
2558.45773	0.02126
2557.49336	0.02124
2556.529	0.02126
2555.56464	0.02126
2554.60027	0.02122
2553.63591	0.02111
2552.67154	0.02104
2551.70718	0.02097
2550.74282	0.02093
2549.77845	0.02082
2548.81409	0.02074
2547.84972	0.02066
2546.88536	0.02051
2545.921	0.02037
2544.95663	0.02027
2543.99227	0.02016
2543.0279	0.02008
2542.06354	0.02
2541.09918	0.01987
2540.13481	0.01974
2539.17045	0.01963
2538.20608	0.01956
2537.24172	0.01946
2536.27736	0.0193
2535.31299	0.01915
2534.34863	0.01905
2533.38426	0.01899
2532.4199	0.0189
2531.45554	0.0188
2530.49117	0.01868
2529.52681	0.01857
2528.56244	0.01847
2527.59808	0.01833
2526.63372	0.01815
2525.66935	0.01802
2524.70499	0.01793
2523.74062	0.01787
2522.77626	0.01777
2521.8119	0.0176
2520.84753	0.01747
2519.88317	0.01738
2518.9188	0.01732
2517.95444	0.01722
2516.99008	0.01709
2516.02571	0.01696
2515.06135	0.01692
2514.09698	0.01687
2513.13262	0.01674
2512.16826	0.01661
2511.20389	0.01655
2510.23953	0.01657
2509.27516	0.01659
2508.3108	0.01651
2507.34644	0.01635
2506.38207	0.01618
2505.41771	0.01606
2504.45334	0.01599
2503.48898	0.01589
2502.52462	0.01575
2501.56025	0.01564
2500.59589	0.01562
2499.63152	0.0156
2498.66716	0.01549
2497.7028	0.01536
2496.73843	0.01521
2495.77407	0.01516
2494.8097	0.01511
2493.84534	0.01498
2492.88098	0.0148
2491.91661	0.01469
2490.95225	0.01472
2489.98788	0.01475
2489.02352	0.01465
2488.05916	0.01441
2487.09479	0.01422
2486.13043	0.01412
2485.16606	0.01406
2484.2017	0.01389
2483.23734	0.01368
2482.27297	0.0135
2481.30861	0.01348
2480.34424	0.01352
2479.37988	0.01342
2478.41552	0.01321
2477.45115	0.01304
2476.48679	0.01302
2475.52242	0.01306
2474.55806	0.013
2473.5937	0.01278
2472.62933	0.01263
2471.66497	0.01263
2470.7006	0.01263
2469.73624	0.01249
2468.77187	0.01224
2467.80751	0.01207
2466.84315	0.01209
2465.87878	0.01209
2464.91442	0.01197
2463.95005	0.01174
2462.98569	0.01156
2462.02133	0.0115
2461.05696	0.01152
2460.0926	0.01141
2459.12823	0.01119
2458.16387	0.01102
2457.19951	0.011
2456.23514	0.01106
2455.27078	0.011
2454.30641	0.01079
2453.34205	0.01065
2452.37769	0.01069
2451.41332	0.01081
2450.44896	0.01078
2449.48459	0.01058
2448.52023	0.0104
2447.55587	0.01042
2446.5915	0.01048
2445.62714	0.01043
2444.66277	0.01025
2443.69841	0.01012
2442.73405	0.01017
2441.76968	0.01023
2440.80532	0.0101
2439.84095	0.00986
2438.87659	0.0097
2437.91223	0.00968
2436.94786	0.00965
2435.9835	0.00953
2435.01913	0.0093
2434.05477	0.00917
2433.09041	0.00924
2432.12604	0.00931
2431.16168	0.0092
2430.19731	0.00895
2429.23295	0.00882
2428.26859	0.00887
2427.30422	0.00894
2426.33986	0.00882
2425.37549	0.00856
2424.41113	0.00835
2423.44677	0.00833
2422.4824	0.00834
2421.51804	0.00821
2420.55367	0.00792
2419.58931	0.00772
2418.62495	0.00775
2417.66058	0.00785
2416.69622	0.00779
2415.73185	0.00754
2414.76749	0.0074
2413.80313	0.00748
2412.83876	0.00764
2411.8744	0.00758
2410.91003	0.00735
2409.94567	0.00721
2408.98131	0.00731
2408.01694	0.00745
2407.05258	0.00745
2406.08821	0.00735
2405.12385	0.00729
2404.15949	0.00736
2403.19512	0.0075
2402.23076	0.0075
2401.26639	0.00732
2400.30203	0.00721
2399.33767	0.00732
2398.3733	0.00748
2397.40894	0.00746
2396.44457	0.00731
2395.48021	0.00721
2394.51585	0.00733
2393.55148	0.00753
2392.58712	0.00753
2391.62275	0.00733
2390.65839	0.00714
2389.69403	0.00716
2388.72966	0.00725
2387.7653	0.00712
2386.80093	0.00665
2385.83657	0.00591
2384.87221	0.00508
2383.90784	0.00404
2382.94348	0.00404
2381.97911	0.00404
2381.01475	0.00404
2380.05039	0.00404
2379.08602	0.00404
2378.12166	0.00404
2377.15729	0.00404
2376.19293	0.00404
2375.22857	0.00404
2374.2642	0.00404
2373.29984	0.00404
2372.33547	0.00404
2371.37111	0.00404
2370.40675	0.00404
2369.44238	0.00404
2368.47802	0.00404
2367.51365	0.00404
2366.54929	0.00404
2365.58493	0.00404
2364.62056	0.00404
2363.6562	0.00404
2362.69183	0.00404
2361.72747	0.00404
2360.76311	0.00404
2359.79874	0.00404
2358.83438	0.00404
2357.87001	0.00404
2356.90565	0.00404
2355.94129	0.00404
2354.97692	0.00404
2354.01256	0.00404
2353.04819	0.00404
2352.08383	0.00404
2351.11947	0.00404
2350.1551	0.00404
2349.19074	0.00404
2348.22637	0.00404
2347.26201	0.00404
2346.29765	0.00404
2345.33328	0.00404
2344.36892	0.00404
2343.40455	0.00404
2342.44019	0.00404
2341.47583	0.00404
2340.51146	0.00404
2339.5471	0.00404
2338.58273	0.00404
2337.61837	0.00404
2336.65401	0.00404
2335.68964	0.00404
2334.72528	0.00404
2333.76091	0.00404
2332.79655	0.00404
2331.83219	0.00404
2330.86782	0.00404
2329.90346	0.00404
2328.93909	0.00404
2327.97473	0.00404
2327.01036	0.00404
2326.046	0.00404
2325.08164	0.00404
2324.11727	0.00404
2323.15291	0.00404
2322.18854	0.00404
2321.22418	0.00404
2320.25982	0.00404
2319.29545	0.00404
2318.33109	0.00404
2317.36672	0.00404
2316.40236	0.00404
2315.438	0.00404
2314.47363	0.00404
2313.50927	0.00404
2312.5449	0.00404
2311.58054	0.00404
2310.61618	0.00404
2309.65181	0.00404
2308.68745	0.00404
2307.72308	0.00404
2306.75872	0.00404
2305.79436	0.00404
2304.82999	0.00404
2303.86563	0.00404
2302.90126	0.00404
2301.9369	0.00404
2300.97254	0.00404
2300.00817	0.00404
2299.04381	0.00404
2298.07944	0.00404
2297.11508	0.00404
2296.15072	0.00415
2295.18635	0.00451
2294.22199	0.00475
2293.25762	0.00516
2292.29326	0.0058
2291.3289	0.00643
2290.36453	0.00685
2289.40017	0.0071
2288.4358	0.00744
2287.47144	0.00805
2286.50708	0.00867
2285.54271	0.00909
2284.57835	0.00929
2283.61398	0.00949
2282.64962	0.00971
2281.68526	0.00981
2280.72089	0.00973
2279.75653	0.00951
2278.79216	0.00938
2277.8278	0.00942
2276.86344	0.00951
2275.89907	0.00949
2274.93471	0.00942
2273.97034	0.00943
2273.00598	0.00958
2272.04162	0.00978
2271.07725	0.00988
2270.11289	0.00986
2269.14852	0.00988
2268.18416	0.01008
2267.2198	0.01035
2266.25543	0.01046
2265.29107	0.01049
2264.3267	0.01058
2263.36234	0.01083
2262.39798	0.01111
2261.43361	0.01134
2260.46925	0.0115
2259.50488	0.01166
2258.54052	0.01188
2257.57616	0.01219
2256.61179	0.01237
2255.64743	0.0124
2254.68306	0.01245
2253.7187	0.01267
2252.75434	0.01298
2251.78997	0.01319
2250.82561	0.01324
2249.86124	0.01334
2248.89688	0.01358
2247.93252	0.01386
2246.96815	0.01404
2246.00379	0.01411
2245.03942	0.01418
2244.07506	0.01436
2243.1107	0.01463
2242.14633	0.01488
2241.18197	0.01499
2240.2176	0.0151
2239.25324	0.01526
2238.28888	0.01548
2237.32451	0.01566
2236.36015	0.01574
2235.39578	0.0158
2234.43142	0.01601
2233.46706	0.01627
2232.50269	0.01647
2231.53833	0.01653
2230.57396	0.01657
2229.6096	0.01673
2228.64524	0.01702
2227.68087	0.01728
2226.71651	0.01742
2225.75214	0.01754
2224.78778	0.01776
2223.82342	0.01803
2222.85905	0.01825
2221.89469	0.01837
2220.93032	0.01846
2219.96596	0.01857
2219.0016	0.0188
2218.03723	0.01898
2217.07287	0.019
2216.1085	0.01898
2215.14414	0.01904
2214.17978	0.0192
2213.21541	0.01936
2212.25105	0.0194
2211.28668	0.01938
2210.32232	0.01939
2209.35796	0.01952
2208.39359	0.01968
2207.42923	0.01978
2206.46486	0.0198
2205.5005	0.01984
2204.53614	0.02002
2203.57177	0.02025
2202.60741	0.02036
2201.64304	0.02043
2200.67868	0.02055
2199.71432	0.02079
2198.74995	0.02101
2197.78559	0.02113
2196.82122	0.02117
2195.85686	0.02126
2194.8925	0.02146
2193.92813	0.02167
2192.96377	0.02185
2191.9994	0.02188
2191.03504	0.02194
2190.07068	0.0221
2189.10631	0.02237
2188.14195	0.02253
2187.17758	0.02255
2186.21322	0.02255
2185.24885	0.02267
2184.28449	0.02287
2183.32013	0.02299
2182.35576	0.02305
2181.3914	0.02311
2180.42703	0.02321
2179.46267	0.02335
2178.49831	0.02345
2177.53394	0.02345
2176.56958	0.02345
2175.60521	0.02357
2174.64085	0.02375
2173.67649	0.02387
2172.71212	0.02389
2171.74776	0.02389
2170.78339	0.02401
2169.81903	0.02423
2168.85467	0.02448
2167.8903	0.02458
2166.92594	0.02462
2165.96157	0.02474
2164.99721	0.02492
2164.03285	0.02511
2163.06848	0.02518
2162.10412	0.02524
2161.13975	0.02531
2160.17539	0.02538
2159.21103	0.02552
2158.24666	0.02559
2157.2823	0.02561
2156.31793	0.02566
2155.35357	0.02581
2154.38921	0.02593
2153.42484	0.02591
2152.46048	0.02586
2151.49611	0.02591
2150.53175	0.02609
2149.56739	0.02625
2148.60302	0.02633
2147.63866	0.02629
2146.67429	0.0263
2145.70993	0.02645
2144.74557	0.02661
2143.7812	0.02665
2142.81684	0.02663
2141.85247	0.02664
2140.88811	0.0268
2139.92375	0.02702
2138.95938	0.02713
2137.99502	0.02715
2137.03065	0.02723
2136.06629	0.02739
2135.10193	0.02747
2134.13756	0.02743
2133.1732	0.0273
2132.20883	0.02716
2131.24447	0.02714
2130.28011	0.02714
2129.31574	0.02708
2128.35138	0.02691
2127.38701	0.02679
2126.42265	0.02681
2125.45829	0.02689
2124.49392	0.02689
2123.52956	0.02678
2122.56519	0.02666
2121.60083	0.02666
2120.63647	0.02672
2119.6721	0.02672
2118.70774	0.02665
2117.74337	0.02661
2116.77901	0.02674
2115.81465	0.02696
2114.85028	0.02701
2113.88592	0.02681
2112.92155	0.02665
2111.95719	0.02668
2110.99283	0.02689
2110.02846	0.02701
2109.0641	0.02699
2108.09973	0.02689
2107.13537	0.02689
2106.17101	0.02702
2105.20664	0.02713
2104.24228	0.0271
2103.27791	0.02702
2102.31355	0.02708
2101.34919	0.02728
2100.38482	0.02741
2099.42046	0.02739
2098.45609	0.02734
2097.49173	0.0274
2096.52737	0.02755
2095.563	0.02766
2094.59864	0.02764
2093.63427	0.02758
2092.66991	0.02764
2091.70555	0.02794
2090.74118	0.02832
2089.77682	0.02835
2088.81245	0.0281
2087.84809	0.02804
2086.88373	0.02816
2085.91936	0.02824
2084.955	0.0282
2083.99063	0.02811
2083.02627	0.02815
2082.06191	0.02833
2081.09754	0.02849
2080.13318	0.02858
2079.16881	0.02858
2078.20445	0.02858
2077.24009	0.02865
2076.27572	0.02881
2075.31136	0.02892
2074.34699	0.02892
2073.38263	0.02896
2072.41827	0.02908
2071.4539	0.0292
2070.48954	0.02916
2069.52517	0.02902
2068.56081	0.02902
2067.59645	0.02929
2066.63208	0.02987
2065.66772	0.03041
2064.70335	0.03027
2063.73899	0.02963
2062.77463	0.02935
2061.81026	0.0295
2060.8459	0.02959
2059.88153	0.02948
2058.91717	0.0293
2057.95281	0.02935
2056.98844	0.02949
2056.02408	0.02951
2055.05971	0.0294
2054.09535	0.02936
2053.13099	0.02946
2052.16662	0.02958
2051.20226	0.02954
2050.23789	0.0294
2049.27353	0.02932
2048.30917	0.02941
2047.3448	0.02957
2046.38044	0.02961
2045.41607	0.02955
2044.45171	0.02955
2043.48734	0.02975
2042.52298	0.03026
2041.55862	0.0306
2040.59425	0.03022
2039.62989	0.02965
2038.66552	0.02954
2037.70116	0.02965
2036.7368	0.02958
2035.77243	0.02944
2034.80807	0.02936
2033.8437	0.02941
2032.87934	0.02952
2031.91498	0.0295
2030.95061	0.02933
2029.98625	0.02921
2029.02188	0.02923
2028.05752	0.02933
2027.09316	0.0293
2026.12879	0.02908
2025.16443	0.02891
2024.20006	0.02902
2023.2357	0.02918
2022.27134	0.02911
2021.30697	0.02891
2020.34261	0.02901
2019.37824	0.02965
2018.41388	0.03057
2017.44952	0.03123
2016.48515	0.0308
2015.52079	0.02972
2014.55642	0.02914
2013.59206	0.02919
2012.6277	0.0293
2011.66333	0.02933
2010.69897	0.02939
2009.7346	0.0296
2008.77024	0.02989
2007.80588	0.02995
2006.84151	0.02978
2005.87715	0.02962
2004.91278	0.0297
2003.94842	0.0299
2002.98406	0.02993
2002.01969	0.02985
2001.05533	0.02979
2000.09096	0.03
1999.1266	0.03023
1998.16224	0.03022
1997.19787	0.03002
1996.23351	0.02988
1995.26914	0.03002
1994.30478	0.03081
1993.34042	0.03251
1992.37605	0.03373
1991.41169	0.03275
1990.44732	0.03127
1989.48296	0.03127
1988.5186	0.0316
1987.55423	0.03098
1986.58987	0.03018
1985.6255	0.02994
1984.66114	0.02997
1983.69678	0.02989
1982.73241	0.0297
1981.76805	0.02953
1980.80368	0.02949
1979.83932	0.02952
1978.87496	0.02953
1977.91059	0.02951
1976.94623	0.02948
1975.98186	0.02953
1975.0175	0.02962
1974.05314	0.02966
1973.08877	0.02963
1972.12441	0.02962
1971.16004	0.02976
1970.19568	0.02998
1969.23132	0.03066
1968.26695	0.03206
1967.30259	0.03301
1966.33822	0.03227
1965.37386	0.0309
1964.4095	0.03002
1963.44513	0.02968
1962.48077	0.02968
1961.5164	0.02979
1960.55204	0.02966
1959.58768	0.02935
1958.62331	0.02909
1957.65895	0.02901
1956.69458	0.02921
1955.73022	0.02954
1954.76586	0.0295
1953.80149	0.02897
1952.83713	0.0286
1951.87276	0.02856
1950.9084	0.02863
1949.94404	0.02862
1948.97967	0.02858
1948.01531	0.02881
1947.05094	0.02954
1946.08658	0.03015
1945.12222	0.0302
1944.15785	0.03106
1943.19349	0.0331
1942.22912	0.03317
1941.26476	0.03074
1940.3004	0.02898
1939.33603	0.02842
1938.37167	0.02829
1937.4073	0.0283
1936.44294	0.02835
1935.47858	0.0284
1934.51421	0.02857
1933.54985	0.02885
1932.58548	0.02896
1931.62112	0.02892
1930.65676	0.02891
1929.69239	0.02894
1928.72803	0.02902
1927.76366	0.02918
1926.7993	0.0293
1925.83494	0.02955
1924.87057	0.03066
1923.90621	0.0332
1922.94184	0.03492
1921.97748	0.03341
1921.01312	0.03118
1920.04875	0.03105
1919.08439	0.03296
1918.12002	0.0343
1917.15566	0.0327
1916.1913	0.0308
1915.22693	0.0302
1914.26257	0.0302
1913.2982	0.03023
1912.33384	0.03049
1911.36948	0.03157
1910.40511	0.03302
1909.44075	0.03348
1908.47638	0.033
1907.51202	0.03208
1906.54766	0.03112
1905.58329	0.03079
1904.61893	0.03096
1903.65456	0.03101
1902.6902	0.03092
1901.72583	0.0308
1900.76147	0.0307
1899.79711	0.03078
1898.83274	0.031
1897.86838	0.03128
1896.90401	0.03211
1895.93965	0.03361
1894.97529	0.03419
1894.01092	0.03325
1893.04656	0.03238
1892.08219	0.03249
1891.11783	0.0341
1890.15347	0.03656
1889.1891	0.03667
1888.22474	0.03442
1887.26037	0.03301
1886.29601	0.03307
1885.33165	0.03368
1884.36728	0.0338
1883.40292	0.03316
1882.43855	0.03254
1881.47419	0.03242
1880.50983	0.03269
1879.54546	0.03293
1878.5811	0.03277
1877.61673	0.03249
1876.65237	0.03244
1875.68801	0.03262
1874.72364	0.0328
1873.75928	0.03289
1872.79491	0.0332
1871.83055	0.03459
1870.86619	0.03762
1869.90182	0.0418
1868.93746	0.04443
1867.97309	0.0432
1867.00873	0.04046
1866.04437	0.0379
1865.08	0.03606
1864.11564	0.03514
1863.15127	0.03502
1862.18691	0.03543
1861.22255	0.03591
1860.25818	0.03616
1859.29382	0.03628
1858.32945	0.03618
1857.36509	0.03599
1856.40073	0.03608
1855.43636	0.03632
1854.472	0.03636
1853.50763	0.03639
1852.54327	0.03674
1851.57891	0.03739
1850.61454	0.03812
1849.65018	0.03931
1848.68581	0.04132
1847.72145	0.0429
1846.75709	0.04388
1845.79272	0.04631
1844.82836	0.04975
1843.86399	0.0493
1842.89963	0.04613
1841.93527	0.04421
1840.9709	0.0431
1840.00654	0.04258
1839.04217	0.0431
1838.07781	0.04485
1837.11345	0.04627
1836.14908	0.04596
1835.18472	0.04536
1834.22035	0.04574
1833.25599	0.04688
1832.29163	0.04874
1831.32726	0.05248
1830.3629	0.05782
1829.39853	0.05873
1828.43417	0.05514
1827.46981	0.05385
1826.50544	0.05602
1825.54108	0.05874
1824.57671	0.05836
1823.61235	0.05723
1822.64799	0.05744
1821.68362	0.05777
1820.71926	0.05781
1819.75489	0.05839
1818.79053	0.06007
1817.82617	0.06231
1816.8618	0.06359
1815.89744	0.06402
1814.93307	0.06512
1813.96871	0.06756
1813.00435	0.07146
1812.03998	0.07589
1811.07562	0.07943
1810.11125	0.08091
1809.14689	0.08248
1808.18253	0.08577
1807.21816	0.08919
1806.2538	0.09218
1805.28943	0.096
1804.32507	0.10142
1803.36071	0.10858
1802.39634	0.11687
1801.43198	0.12411
1800.46761	0.1308
1799.50325	0.13814
1798.53889	0.14444
1797.57452	0.15147
1796.61016	0.16116
1795.64579	0.17125
1794.68143	0.17981
1793.71707	0.19047
1792.7527	0.20663
1791.78834	0.22201
1790.82397	0.23232
1789.85961	0.24252
1788.89525	0.25558
1787.93088	0.27256
1786.96652	0.29254
1786.00215	0.31679
1785.03779	0.34877
1784.07343	0.38426
1783.10906	0.41827
1782.1447	0.45641
1781.18033	0.50838
1780.21597	0.57486
1779.25161	0.64212
1778.28724	0.70958
1777.32288	0.78059
1776.35851	0.85655
1775.39415	0.93165
1774.42979	0.98136
1773.46542	1
1772.50106	0.97558
1771.53669	0.89418
1770.57233	0.81506
1769.60797	0.75351
1768.6436	0.68284
1767.67924	0.59998
1766.71487	0.54063
1765.75051	0.5006
1764.78615	0.46772
1763.82178	0.44345
1762.85742	0.42614
1761.89305	0.40598
1760.92869	0.38448
1759.96432	0.37126
1758.99996	0.36333
1758.0356	0.35832
1757.07123	0.35399
1756.10687	0.3498
1755.1425	0.34969
1754.17814	0.35625
1753.21378	0.36966
1752.24941	0.39314
1751.28505	0.4347
1750.32068	0.47208
1749.35632	0.48373
1748.39196	0.47375
1747.42759	0.45262
1746.46323	0.43784
1745.49886	0.43439
1744.5345	0.43569
1743.57014	0.42873
1742.60577	0.41199
1741.64141	0.40198
1740.67704	0.40559
1739.71268	0.42363
1738.74832	0.44325
1737.78395	0.45815
1736.81959	0.4709
1735.85522	0.48
1734.89086	0.48052
1733.9265	0.44508
1732.96213	0.39686
1731.99777	0.36976
1731.0334	0.34754
1730.06904	0.31818
1729.10468	0.28737
1728.14031	0.26572
1727.17595	0.24954
1726.21158	0.23604
1725.24722	0.22576
1724.28286	0.21753
1723.31849	0.20876
1722.35413	0.20006
1721.38976	0.1936
1720.4254	0.19039
1719.46104	0.19116
1718.49667	0.19415
1717.53231	0.1887
1716.56794	0.18018
1715.60358	0.17569
1714.63922	0.16813
1713.67485	0.15793
1712.71049	0.15088
1711.74612	0.14767
1710.78176	0.14622
1709.8174	0.1434
1708.85303	0.14081
1707.88867	0.14187
1706.9243	0.14587
1705.95994	0.14821
1704.99558	0.14706
1704.03121	0.14476
1703.06685	0.14419
1702.10248	0.14701
1701.13812	0.15327
1700.17376	0.15759
1699.20939	0.15431
1698.24503	0.15477
1697.28066	0.15884
1696.3163	0.16276
1695.35194	0.15823
1694.38757	0.15328
1693.42321	0.15235
1692.45884	0.15397
1691.49448	0.15769
1690.53012	0.16297
1689.56575	0.16852
1688.60139	0.17328
1687.63702	0.17708
1686.67266	0.18154
1685.7083	0.18985
1684.74393	0.20824
1683.77957	0.22344
1682.8152	0.22213
1681.85084	0.22636
1680.88648	0.23763
1679.92211	0.24843
1678.95775	0.24883
1677.99338	0.24335
1677.02902	0.23859
1676.06466	0.23524
1675.10029	0.22836
1674.13593	0.222
1673.17156	0.22179
1672.2072	0.22606
1671.24284	0.23217
1670.27847	0.23913
1669.31411	0.24911
1668.34974	0.25645
1667.38538	0.26126
1666.42102	0.27116
1665.45665	0.28851
1664.49229	0.31188
1663.52792	0.34822
1662.56356	0.40971
1661.5992	0.47452
1660.63483	0.5358
1659.67047	0.60881
1658.7061	0.68856
1657.74174	0.75851
1656.77738	0.80134
1655.81301	0.81435
1654.84865	0.80739
1653.88428	0.76345
1652.91992	0.57333
1651.95556	0.47282
1650.99119	0.43777
1650.02683	0.40978
1649.06246	0.38589
1648.0981	0.36486
1647.13374	0.34182
1646.16937	0.31514
1645.20501	0.2953
1644.24064	0.28622
1643.27628	0.28223
1642.31192	0.28033
1641.34755	0.28016
1640.38319	0.2817
1639.41882	0.28528
1638.45446	0.29177
1637.4901	0.3014
1636.52573	0.31248
1635.56137	0.32625
1634.597	0.33591
1633.63264	0.3432
1632.66828	0.35748
1631.70391	0.38148
1630.73955	0.41491
1629.77518	0.45487
1628.81082	0.50299
1627.84646	0.56361
1626.88209	0.61214
1625.91773	0.63326
1624.95336	0.63704
1623.989	0.61334
1623.02464	0.54482
1622.06027	0.47755
1621.09591	0.42485
1620.13154	0.37675
1619.16718	0.33849
1618.20281	0.31304
1617.23845	0.28776
1616.27409	0.24898
1615.30972	0.22355
1614.34536	0.20837
1613.38099	0.19473
1612.41663	0.18281
1611.45227	0.17386
1610.4879	0.16763
1609.52354	0.16145
1608.55917	0.15485
1607.59481	0.14929
1606.63045	0.14433
1605.66608	0.13972
1604.70172	0.13645
1603.73735	0.13418
1602.77299	0.13167
1601.80863	0.12926
1600.84426	0.12713
1599.8799	0.12527
1598.91553	0.12412
1597.95117	0.12452
1596.98681	0.12671
1596.02244	0.1302
1595.05808	0.13439
1594.09371	0.1389
1593.12935	0.14464
1592.16499	0.15268
1591.20062	0.16183
1590.23626	0.16862
1589.27189	0.17013
1588.30753	0.16583
1587.34317	0.15768
1586.3788	0.14817
1585.41444	0.1394
1584.45007	0.13291
1583.48571	0.12943
1582.52135	0.12875
1581.55698	0.12996
1580.59262	0.13258
1579.62825	0.13704
1578.66389	0.14435
1577.69953	0.15502
1576.73516	0.17097
1575.7708	0.18708
1574.80643	0.19433
1573.84207	0.20316
1572.87771	0.2175
1571.91334	0.23476
1570.94898	0.25362
1569.98461	0.2801
1569.02025	0.30669
1568.05589	0.31579
1567.09152	0.32033
1566.12716	0.32527
1565.16279	0.32722
1564.19843	0.32326
1563.23407	0.31779
1562.2697	0.31499
1561.30534	0.31531
1560.34097	0.31968
1559.37661	0.3255
1558.41225	0.29603
1557.44788	0.26704
1556.48352	0.25651
1555.51915	0.25187
1554.55479	0.24473
1553.59043	0.23335
1552.62606	0.22709
1551.6617	0.22744
1550.69733	0.23393
1549.73297	0.24131
1548.76861	0.24143
1547.80424	0.23853
1546.83988	0.2365
1545.87551	0.23497
1544.91115	0.23024
1543.94679	0.22377
1542.98242	0.21965
1542.01806	0.21593
1541.05369	0.21415
1540.08933	0.21438
1539.12497	0.19779
1538.1606	0.18002
1537.19624	0.1722
1536.23187	0.16914
1535.26751	0.16987
1534.30315	0.17322
1533.33878	0.17235
1532.37442	0.1652
1531.41005	0.15856
1530.44569	0.15477
1529.48133	0.15503
1528.51696	0.15767
1527.5526	0.15832
1526.58823	0.15735
1525.62387	0.15655
1524.65951	0.15457
1523.69514	0.15422
1522.73078	0.15812
1521.76641	0.16313
1520.80205	0.15537
1519.83769	0.14402
1518.87332	0.14063
1517.90896	0.14325
1516.94459	0.14491
1515.98023	0.13836
1515.01587	0.13128
1514.0515	0.12732
1513.08714	0.12625
1512.12277	0.12601
1511.15841	0.12647
1510.19405	0.13023
1509.22968	0.13732
1508.26532	0.14628
1507.30095	0.15509
1506.33659	0.1455
1505.37223	0.12692
1504.40786	0.11837
1503.4435	0.11498
1502.47913	0.11436
1501.51477	0.11509
1500.55041	0.11679
1499.58604	0.11978
1498.62168	0.12215
1497.65731	0.12325
1496.69295	0.12509
1495.72859	0.12395
1494.76422	0.12042
1493.79986	0.1189
1492.83549	0.12038
1491.87113	0.126
1490.90677	0.13679
1489.9424	0.14654
1488.97804	0.14682
1488.01367	0.14712
1487.04931	0.15139
1486.08495	0.1562
1485.12058	0.16137
1484.15622	0.16866
1483.19185	0.17765
1482.22749	0.18679
1481.26312	0.19229
1480.29876	0.19078
1479.3344	0.18534
1478.37003	0.18086
1477.40567	0.1794
1476.4413	0.17907
1475.47694	0.17749
1474.51258	0.17844
1473.54821	0.18449
1472.58385	0.19074
1471.61948	0.18869
1470.65512	0.18583
1469.69076	0.18678
1468.72639	0.19106
1467.76203	0.19726
1466.79766	0.20441
1465.8333	0.21268
1464.86894	0.22055
1463.90457	0.2236
1462.94021	0.2259
1461.97584	0.23031
1461.01148	0.23575
1460.04712	0.24222
1459.08275	0.25059
1458.11839	0.25849
1457.15402	0.25678
1456.18966	0.24476
1455.2253	0.23395
1454.26093	0.2266
1453.29657	0.22338
1452.3322	0.22278
1451.36784	0.22147
1450.40348	0.21979
1449.43911	0.22048
1448.47475	0.22339
1447.51038	0.22411
1446.54602	0.22157
1445.58166	0.21937
1444.61729	0.21867
1443.65293	0.2194
1442.68856	0.22086
1441.7242	0.22166
1440.75984	0.22125
1439.79547	0.22059
1438.83111	0.22134
1437.86674	0.22426
1436.90238	0.2256
1435.93802	0.21842
1434.97365	0.21121
1434.00929	0.20733
1433.04492	0.20457
1432.08056	0.20174
1431.1162	0.19996
1430.15183	0.19876
1429.18747	0.19616
1428.2231	0.19326
1427.25874	0.19106
1426.29438	0.18997
1425.33001	0.19152
1424.36565	0.19537
1423.40128	0.19647
1422.43692	0.19458
1421.47256	0.19484
1420.50819	0.19922
1419.54383	0.20791
1418.57946	0.21393
1417.6151	0.21407
1416.65074	0.21217
1415.68637	0.20971
1414.72201	0.20881
1413.75764	0.21017
1412.79328	0.21242
1411.82892	0.2135
1410.86455	0.21237
1409.90019	0.20969
1408.93582	0.20618
1407.97146	0.20259
1407.0071	0.20054
1406.04273	0.2017
1405.07837	0.20515
1404.114	0.20755
1403.14964	0.21007
1402.18528	0.2157
1401.22091	0.22502
1400.25655	0.23778
1399.29218	0.25285
1398.32782	0.26255
1397.36346	0.26576
1396.39909	0.2698
1395.43473	0.27723
1394.47036	0.28365
1393.506	0.28504
1392.54164	0.2851
1391.57727	0.28534
1390.61291	0.28446
1389.64854	0.2825
1388.68418	0.28148
1387.71982	0.28148
1386.75545	0.27998
1385.79109	0.27768
1384.82672	0.27608
1383.86236	0.27404
1382.898	0.27087
1381.93363	0.26838
1380.96927	0.26863
1380.0049	0.2715
1379.04054	0.27453
1378.07618	0.27522
1377.11181	0.27376
1376.14745	0.27249
1375.18308	0.27187
1374.21872	0.26903
1373.25436	0.26423
1372.28999	0.26193
1371.32563	0.26212
1370.36126	0.26157
1369.3969	0.25729
1368.43254	0.24857
1367.46817	0.23892
1366.50381	0.23169
1365.53944	0.22622
1364.57508	0.22224
1363.61072	0.21846
1362.64635	0.21158
1361.68199	0.2028
1360.71762	0.19435
1359.75326	0.18689
1358.7889	0.18125
1357.82453	0.17732
1356.86017	0.17486
1355.8958	0.17343
1354.93144	0.17159
1353.96708	0.16881
1353.00271	0.16668
1352.03835	0.16589
1351.07398	0.16552
1350.10962	0.16488
1349.14526	0.16395
1348.18089	0.16344
1347.21653	0.16389
1346.25216	0.16466
1345.2878	0.16514
1344.32344	0.16582
1343.35907	0.16761
1342.39471	0.1709
1341.43034	0.17601
1340.46598	0.18198
1339.50161	0.18523
1338.53725	0.18487
1337.57289	0.18408
1336.60852	0.18339
1335.64416	0.18195
1334.67979	0.18084
1333.71543	0.18121
1332.75107	0.18255
1331.7867	0.18379
1330.82234	0.18478
1329.85797	0.18644
1328.89361	0.18962
1327.92925	0.19429
1326.96488	0.19971
1326.00052	0.20575
1325.03615	0.21357
1324.07179	0.2241
1323.10743	0.23669
1322.14306	0.24974
1321.1787	0.2622
1320.21433	0.27317
1319.24997	0.28019
1318.28561	0.28035
1317.32124	0.27319
1316.35688	0.26076
1315.39251	0.24683
1314.42815	0.23426
1313.46379	0.22308
1312.49942	0.21193
1311.53506	0.20102
1310.57069	0.19234
1309.60633	0.18676
1308.64197	0.18295
1307.6776	0.179
1306.71324	0.17468
1305.74887	0.17127
1304.78451	0.16956
1303.82015	0.16881
1302.85578	0.16749
1301.89142	0.16534
1300.92705	0.16355
1299.96269	0.16299
1298.99833	0.1631
1298.03396	0.16267
1297.0696	0.1614
1296.10523	0.16021
1295.14087	0.16
1294.17651	0.16028
1293.21214	0.15968
1292.24778	0.15811
1291.28341	0.15691
1290.31905	0.15688
1289.35469	0.15749
1288.39032	0.15767
1287.42596	0.15717
1286.46159	0.15755
1285.49723	0.16022
1284.53287	0.1645
1283.5685	0.1689
1282.60414	0.17342
1281.63977	0.1793
1280.67541	0.18677
1279.71105	0.19384
1278.74668	0.19792
1277.78232	0.19848
1276.81795	0.19699
1275.85359	0.19499
1274.88923	0.19241
1273.92486	0.18873
1272.9605	0.18465
1271.99613	0.18166
1271.03177	0.18058
1270.06741	0.18103
1269.10304	0.18206
1268.13868	0.18401
1267.17431	0.18838
1266.20995	0.1954
1265.24559	0.20296
1264.28122	0.20851
1263.31686	0.21148
1262.35249	0.21292
1261.38813	0.2134
1260.42377	0.21158
1259.4594	0.20622
1258.49504	0.19893
1257.53067	0.19253
1256.56631	0.18818
1255.60195	0.18485
1254.63758	0.18113
1253.67322	0.17721
1252.70885	0.17452
1251.74449	0.17345
1250.78013	0.17239
1249.81576	0.16969
1248.8514	0.16593
1247.88703	0.16318
1246.92267	0.1621
1245.95831	0.16147
1244.99394	0.15985
1244.02958	0.15758
1243.06521	0.15635
1242.10085	0.15693
1241.13649	0.15797
1240.17212	0.15793
1239.20776	0.15742
1238.24339	0.15839
1237.27903	0.16151
1236.31467	0.16529
1235.3503	0.16818
1234.38594	0.17086
1233.42157	0.17534
1232.45721	0.18225
1231.49285	0.19034
1230.52848	0.19853
1229.56412	0.20797
1228.59975	0.22076
1227.63539	0.23697
1226.67103	0.25396
1225.70666	0.26838
1224.7423	0.2781
1223.77793	0.2823
1222.81357	0.28044
1221.84921	0.27187
1220.88484	0.25758
1219.92048	0.24105
1218.95611	0.22625
1217.99175	0.21461
1217.02739	0.20476
1216.06302	0.1954
1215.09866	0.18726
1214.13429	0.18198
1213.16993	0.17959
1212.20557	0.17797
1211.2412	0.17545
1210.27684	0.17298
1209.31247	0.17245
1208.34811	0.17378
1207.38375	0.1747
1206.41938	0.1735
1205.45502	0.17135
1204.49065	0.17046
1203.52629	0.17116
1202.56193	0.17166
1201.59756	0.17088
1200.6332	0.17006
1199.66883	0.17131
1198.70447	0.17475
1197.7401	0.17842
1196.77574	0.18111
1195.81138	0.18438
1194.84701	0.19017
1193.88265	0.19793
1192.91828	0.20499
1191.95392	0.20995
1190.98956	0.21449
1190.02519	0.22117
1189.06083	0.23025
1188.09646	0.23978
1187.1321	0.24829
1186.16774	0.25643
1185.20337	0.26616
1184.23901	0.27798
1183.27464	0.28963
1182.31028	0.29857
1181.34592	0.30434
1180.38155	0.30803
1179.41719	0.31021
1178.45282	0.31026
1177.48846	0.30784
1176.5241	0.30455
1175.55973	0.30255
1174.59537	0.30216
1173.631	0.30219
1172.66664	0.30281
1171.70228	0.30645
1170.73791	0.31515
1169.77355	0.32838
1168.80918	0.34389
1167.84482	0.36003
1166.88046	0.37652
1165.91609	0.3922
1164.95173	0.40397
1163.98736	0.40928
1163.023	0.40939
1162.05864	0.40877
1161.09427	0.41117
1160.12991	0.41712
1159.16554	0.42474
1158.20118	0.43273
1157.23682	0.44114
1156.27245	0.44943
1155.30809	0.45511
1154.34372	0.45597
1153.37936	0.45365
1152.415	0.45296
1151.45063	0.45724
1150.48627	0.4631
1149.5219	0.46109
1148.55754	0.44403
1147.59318	0.41476
1146.62881	0.38294
1145.66445	0.35561
1144.70008	0.33383
1143.73572	0.31673
1142.77136	0.30512
1141.80699	0.3001
1140.84263	0.30076
1139.87826	0.30499
1138.9139	0.31248
1137.94954	0.32529
1136.98517	0.34524
1136.02081	0.37199
1135.05644	0.40405
1134.09208	0.44072
1133.12772	0.48127
1132.16335	0.52195
1131.19899	0.55514
1130.23462	0.5726
1129.27026	0.57092
1128.3059	0.55347
1127.34153	0.52683
1126.37717	0.49615
1125.4128	0.46435
1124.44844	0.43395
1123.48408	0.40778
1122.51971	0.38758
1121.55535	0.37251
1120.59098	0.36046
1119.62662	0.35112
1118.66226	0.34655
1117.69789	0.34811
1116.73353	0.35448
1115.76916	0.36322
1114.8048	0.37276
1113.84044	0.38249
1112.87607	0.3907
1111.91171	0.39394
1110.94734	0.38986
1109.98298	0.3799
1109.01862	0.36843
1108.05425	0.35859
1107.08989	0.35044
1106.12552	0.34243
1105.16116	0.33467
1104.1968	0.32914
1103.23243	0.32655
1102.26807	0.32497
1101.3037	0.32207
1100.33934	0.31797
1099.37498	0.31466
1098.41061	0.31308
1097.44625	0.31183
1096.48188	0.3093
1095.51752	0.30611
1094.55316	0.30458
1093.58879	0.30559
1092.62443	0.30764
1091.66006	0.30898
1090.6957	0.31019
1089.73134	0.31351
1088.76697	0.31941
1087.80261	0.32572
1086.83824	0.33064
1085.87388	0.33487
1084.90952	0.34021
1083.94515	0.34657
1082.98079	0.3518
1082.01642	0.35413
1081.05206	0.35432
1080.0877	0.35441
1079.12333	0.35459
1078.15897	0.353
1077.1946	0.34852
1076.23024	0.34254
1075.26588	0.33736
1074.30151	0.33318
1073.33715	0.32816
1072.37278	0.3218
1071.40842	0.31643
1070.44406	0.31467
1069.47969	0.31682
1068.51533	0.32118
1067.55096	0.32655
1066.5866	0.33382
1065.62224	0.34418
1064.65787	0.35679
1063.69351	0.36915
1062.72914	0.38016
1061.76478	0.39133
1060.80042	0.40421
1059.83605	0.41822
1058.87169	0.43108
1057.90732	0.44202
1056.94296	0.45285
1055.97859	0.46556
1055.01423	0.47975
1054.04987	0.49377
1053.0855	0.50782
1052.12114	0.52423
1051.15677	0.54468
1050.19241	0.5686
1049.22805	0.59455
1048.26368	0.62154
1047.29932	0.64797
1046.33495	0.66958
1045.37059	0.68194
1044.40623	0.68633
1043.44186	0.69043
1042.4775	0.70263
1041.51313	0.72692
1040.54877	0.76119
1039.58441	0.79808
1038.62004	0.82857
1037.65568	0.84694
1036.69131	0.8518
1035.72695	0.84489
1034.76259	0.82995
1033.79822	0.81126
1032.83386	0.79136
1031.86949	0.76962
1030.90513	0.74416
1029.94077	0.71439
1028.9764	0.68297
1028.01204	0.6538
1027.04767	0.62913
1026.08331	0.60783
1025.11895	0.5872
1024.15458	0.56641
1023.19022	0.54694
1022.22585	0.53006
1021.26149	0.51454
1020.29713	0.4981
1019.33276	0.48081
1018.3684	0.46548
1017.40403	0.45406
1016.43967	0.44529
1015.47531	0.43656
1014.51094	0.42735
1013.54658	0.41967
1012.58221	0.41474
1011.61785	0.41053
1010.65349	0.4041
1009.68912	0.39551
1008.72476	0.38775
1007.76039	0.38273
1006.79603	0.37882
1005.83167	0.37353
1004.8673	0.36735
1003.90294	0.36341
1002.93857	0.3634
1001.97421	0.36539
1001.00985	0.36654
1000.04548	0.36717
999.08112	0.37048
998.11675	0.378
997.15239	0.3877
996.18803	0.39754
995.22366	0.40891
994.2593	0.4255
993.29493	0.44858
992.33057	0.47517
991.36621	0.50076
990.40184	0.5221
989.43748	0.53681
988.47311	0.54141
987.50875	0.53209
986.54439	0.50841
985.58002	0.47525
984.61566	0.4401
983.65129	0.40743
982.68693	0.37668
981.72257	0.34599
980.7582	0.31643
979.79384	0.29126
978.82947	0.27138
977.86511	0.25389
976.90075	0.23579
975.93638	0.21784
974.97202	0.20337
974.00765	0.1934
973.04329	0.1849
972.07893	0.17469
971.11456	0.16406
970.1502	0.15702
969.18583	0.1549
968.22147	0.15475
967.25711	0.15389
966.29274	0.15367
965.32838	0.15652
964.36401	0.16019
963.39965	0.15852
962.43529	0.14859
961.47092	0.13484
960.50656	0.12414
959.54219	0.11873
958.57783	0.11541
957.61347	0.11128
956.6491	0.10814
955.68474	0.10933
954.72037	0.1141
953.75601	0.11784
952.79165	0.11854
951.82728	0.11984
950.86292	0.12615
949.89855	0.13661
948.93419	0.1456
947.96983	0.14951
947.00546	0.15066
946.0411	0.15344
945.07673	0.15773
944.11237	0.15899
943.14801	0.1546
942.18364	0.14787
941.21928	0.14373
940.25491	0.14236
939.29055	0.13942
938.32619	0.13219
937.36182	0.12355
936.39746	0.11787
935.43309	0.1149
934.46873	0.11004
933.50437	0.10134
932.54	0.09263
931.57564	0.08853
930.61127	0.08847
929.64691	0.0876
928.68255	0.08328
927.71818	0.07846
926.75382	0.07698
925.78945	0.07725
924.82509	0.07406
923.86073	0.06594
922.89636	0.0573
921.932	0.05276
920.96763	0.05141
920.00327	0.04828
919.03891	0.04139
918.07454	0.03468
917.11018	0.03265
916.14581	0.03377
915.18145	0.03248
914.21708	0.02719
913.25272	0.02234
912.28836	0.02207
911.32399	0.02447
910.35963	0.0241
909.39526	0.01946
908.4309	0.01491
907.46654	0.01479
906.50217	0.01719
905.53781	0.01643
904.57344	0.0111
903.60908	0.00627
902.64472	0.00636
901.68035	0.00894
900.71599	0.00837
899.75162	0.00363
898.78726	0
897.8229	0.0016
896.85853	0.00563
895.89417	0.00631
894.9298	0.00301
893.96544	0.00107
893.00108	0.00429
892.03671	0.00946
891.07235	0.01083
890.10798	0.00805
889.14362	0.00656
888.17926	0.00992
887.21489	0.01491
886.25053	0.01617
885.28616	0.01387
884.3218	0.01381
883.35744	0.0194
882.39307	0.02692
881.42871	0.03032
880.46434	0.02896
879.49998	0.02746
878.53562	0.02885
877.57125	0.03051
876.60689	0.02842
875.64252	0.02386
874.67816	0.0225
873.7138	0.02698
872.74943	0.03315
871.78507	0.03578
870.8207	0.0357
869.85634	0.03835
868.89198	0.04575
867.92761	0.05355
866.96325	0.05702
865.99888	0.05763
865.03452	0.06134
864.07016	0.07061
863.10579	0.08186
862.14143	0.09133
861.17706	0.10052
860.2127	0.11305
859.24834	0.1271
858.28397	0.13445
857.31961	0.12924
856.35524	0.11516
855.39088	0.10132
854.42652	0.09254
853.46215	0.08602
852.49779	0.07759
851.53342	0.06854
850.56906	0.06361
849.6047	0.06367
848.64033	0.06405
847.67597	0.06088
846.7116	0.05621
845.74724	0.05507
844.78288	0.05793
843.81851	0.05939
842.85415	0.05545
841.88978	0.04882
840.92542	0.04502
839.96106	0.04509
838.99669	0.04444
838.03233	0.03997
837.06796	0.03461
836.1036	0.03311
835.13924	0.03535
834.17487	0.03649
833.21051	0.03364
832.24614	0.02993
831.28178	0.03001
830.31742	0.03362
829.35305	0.03596
828.38869	0.03452
827.42432	0.03242
826.45996	0.03417
825.4956	0.03907
824.53123	0.0422
823.56687	0.04139
822.6025	0.04014
821.63814	0.04262
820.67378	0.04778
819.70941	0.05086
818.74505	0.05021
817.78068	0.04981
816.81632	0.05355
815.85196	0.05981
814.88759	0.0636
813.92323	0.0635
812.95886	0.0635
811.9945	0.0673
811.03014	0.07326
810.06577	0.07699
809.10141	0.07776
808.13704	0.0797
807.17268	0.08635
806.20832	0.09549
805.24395	0.10145
804.27959	0.1017
803.31522	0.09924
802.35086	0.09759
801.3865	0.09631
800.42213	0.0927
799.45777	0.08693
798.4934	0.08276
797.52904	0.08262
796.56468	0.08407
795.60031	0.08309
794.63595	0.07956
793.67158	0.07701
792.70722	0.07734
791.74286	0.07806
790.77849	0.07573
789.81413	0.0712
788.84976	0.06856
787.8854	0.06966
786.92104	0.07151
785.95667	0.0706
784.99231	0.06799
784.02794	0.06778
783.06358	0.07133
782.09922	0.07535
781.13485	0.07667
780.17049	0.07684
779.20612	0.07997
778.24176	0.08733
777.2774	0.09619
776.31303	0.10437
775.34867	0.11305
774.3843	0.12391
773.41994	0.13406
772.45557	0.13752
771.49121	0.13186
770.52685	0.12173
769.56248	0.11372
768.59812	0.10979
767.63375	0.10729
766.66939	0.10412
765.70503	0.10207
764.74066	0.10372
763.7763	0.10814
762.81193	0.11171
761.84757	0.11316
760.88321	0.11542
759.91884	0.12188
758.95448	0.13182
757.99011	0.14113
757.02575	0.1476
756.06139	0.15271
755.09702	0.15721
754.13266	0.15758
753.16829	0.14994
752.20393	0.13623
751.23957	0.12325
750.2752	0.11568
749.31084	0.11253
748.34647	0.10988
747.38211	0.1063
746.41775	0.10397
745.45338	0.10428
744.48902	0.1048
743.52465	0.10238
742.56029	0.09731
741.59593	0.09289
740.63156	0.09111
739.6672	0.0903
738.70283	0.08788
737.73847	0.08476
736.77411	0.08472
735.80974	0.08954
734.84538	0.09674
733.88101	0.10249
732.91665	0.10546
731.95229	0.10683
730.98792	0.10696
730.02356	0.10441
729.05919	0.09843
728.09483	0.09139
727.13047	0.0869
726.1661	0.08603
725.20174	0.08592
724.23737	0.08379
723.27301	0.0808
722.30865	0.07997
721.34428	0.08126
720.37992	0.08238
719.41555	0.08243
718.45119	0.08277
717.48683	0.08564
716.52246	0.09078
715.5581	0.09483
714.59373	0.09561
713.62937	0.09545
712.66501	0.09759
711.70064	0.1016
710.73628	0.10413
709.77191	0.10396
708.80755	0.10393
707.84319	0.10651
706.87882	0.11028
705.91446	0.11198
704.95009	0.11073
703.98573	0.1097
703.02137	0.11177
702.057	0.11519
701.09264	0.11568
700.12827	0.11228
699.16391	0.10837
698.19955	0.10659
697.23518	0.10527
696.27082	0.10128
695.30645	0.09504
694.34209	0.09052
693.37773	0.08987
692.41336	0.0905
691.449	0.08859
690.48463	0.08439
689.52027	0.08215
688.55591	0.08353
687.59154	0.08488
686.62718	0.08272
685.66281	0.07846
684.69845	0.07651
683.73409	0.0783
682.76972	0.08018
681.80536	0.07859
680.84099	0.07506
679.87663	0.07412
678.91227	0.07696
677.9479	0.07962
676.98354	0.07871
676.01917	0.07622
675.05481	0.07682
674.09045	0.08102
673.12608	0.08426
672.16172	0.0833
671.19735	0.07979
670.23299	0.0756
669.26863	0.06981
668.30426	0.07054
667.3399	0.08929
666.37553	0.10126
665.41117	0.1089
664.44681	0.1148
663.48244	0.11542
662.51808	0.10922
661.55371	0.10105
660.58935	0.09643
659.62499	0.09487
658.66062	0.09158
657.69626	0.08477
656.73189	0.07882
655.76753	0.078
654.80317	0.08028
653.8388	0.07992
652.87444	0.07558
651.91007	0.07201
650.94571	0.07273
649.98135	0.07509
649.01698	0.07444
648.05262	0.07069
647.08825	0.06835
646.12389	0.07031
645.15953	0.07387
644.19516	0.07379
643.2308	0.06976
642.26643	0.06741
641.30207	0.07009
640.33771	0.07388
639.37334	0.07341
638.40898	0.0698
637.44461	0.06913
636.48025	0.07398
635.51589	0.07999
634.55152	0.08143
633.58716	0.07985
632.62279	0.08148
631.65843	0.08757
630.69406	0.09211
629.7297	0.08998
628.76534	0.08415
627.80097	0.08177
626.83661	0.08458
625.87224	0.08721
624.90788	0.08458
623.94352	0.07964
622.97915	0.07935
622.01479	0.08454
621.05042	0.08909
620.08606	0.08829
619.1217	0.08507
618.15733	0.0865
617.19297	0.0944
616.2286	0.10135
615.26424	0.10182
614.29988	0.10056
613.33551	0.10427
612.37115	0.11185
611.40678	0.11621
610.44242	0.11421
609.47806	0.11106
608.51369	0.11267
607.54933	0.11711
606.58496	0.11792
605.6206	0.11365
604.65624	0.10999
603.69187	0.11242
602.72751	0.11852
601.76314	0.12088
600.79878	0.11672
599.83442	0.11102
598.87005	0.10994
597.90569	0.11182
596.94132	0.1103
595.97696	0.10431
595.0126	0.10002
594.04823	0.10246
593.08387	0.10874
592.1195	0.11143
591.15514	0.10839
590.19078	0.10715
589.22641	0.11253
588.26205	0.11979
587.29768	0.12196
586.33332	0.12013
585.36896	0.12184
584.40459	0.1302
583.44023	0.13929
582.47586	0.1432
581.5115	0.1433
580.54714	0.14483
579.58277	0.14968
578.61841	0.15336
577.65404	0.15157
576.68968	0.14608
575.72532	0.14286
574.76095	0.14434
573.79659	0.14574
572.83222	0.14167
571.86786	0.1345
570.9035	0.13177
569.93913	0.13419
568.97477	0.1343
568.0104	0.12731
567.04604	0.11761
566.08168	0.11261
565.11731	0.1126
564.15295	0.11071
563.18858	0.10298
562.22422	0.09449
561.25986	0.09221
560.29549	0.095
559.33113	0.09518
558.36676	0.08942
557.4024	0.08334
556.43804	0.08357
555.47367	0.08852
554.50931	0.09067
553.54494	0.08707
552.58058	0.08381
551.61622	0.08725
550.65185	0.09514
549.68749	0.09949
548.72312	0.09802
547.75876	0.09728
546.7944	0.10248
545.83003	0.10965
544.86567	0.11093
543.9013	0.10659
542.93694	0.10496
541.97258	0.11032
541.00821	0.11691
540.04385	0.1168
539.07948	0.11081
538.11512	0.10643
537.15076	0.10721
536.18639	0.10827
535.22203	0.10389
534.25766	0.09702
533.2933	0.09477
532.32894	0.0985
531.36457	0.10192
530.40021	0.09949
529.43584	0.09412
528.47148	0.09299
527.50712	0.09782
526.54275	0.10319
525.57839	0.1021
524.61402	0.097
523.64966	0.0964
522.6853	0.10057
521.72093	0.10245
520.75657	0.09796
519.7922	0.09067
518.82784	0.08731
517.86348	0.08824
516.89911	0.0856
515.93475	0.07643
514.97038	0.06885
514.00602	0.06825
513.04166	0.07111
512.07729	0.07066
511.11293	0.06555
510.14856	0.06094
509.1842	0.06194
508.21984	0.06661
507.25547	0.06811
506.29111	0.06398
505.32674	0.06117
504.36238	0.06409
503.39802	0.0688
502.43365	0.06759
501.46929	0.05901
500.50492	0.05308
499.54056	0.05445
498.5762	0.05765
497.61183	0.05535
496.64747	0.04848
495.6831	0.04496
494.71874	0.04748
493.75437	0.05025
492.79001	0.04834
491.82565	0.04434
490.86128	0.04418
489.89692	0.0476
488.93255	0.04899
487.96819	0.04572
487.00383	0.04248
486.03946	0.04427
485.0751	0.04914
484.11073	0.05063
483.14637	0.0459
482.18201	0.04145
481.21764	0.04326
480.25328	0.04865
479.28891	0.05025
478.32455	0.0469
477.36019	0.04471
476.39582	0.04721
475.43146	0.0505
474.46709	0.05142
473.50273	0.05165
472.53837	0.05175
471.574	0.05081
470.60964	0.049
469.64527	0.04502
468.68091	0.03979
467.71655	0.03769
466.75218	0.03934
465.78782	0.04008
464.82345	0.03698
463.85909	0.03302
462.89473	0.03311
461.93036	0.03661
460.966	0.03729
460.00163	0.03331
459.03727	0.03117
458.07291	0.03554
457.10854	0.03955
456.14418	0.03672
455.17981	0.0327
454.21545	0.03103
453.25109	0.03254
452.28672	0.03335
451.32236	0.02991
450.35799	0.02602
449.39363	0.02589
448.42927	0.02951
447.4649	0.03281
446.50054	0.03022
445.53617	0.02498
444.57181	0.02584
443.60745	0.03218
442.64308	0.03411
441.67872	0.0281
440.71435	0.02246
439.74999	0.02262
438.78563	0.02651
437.82126	0.02914
436.8569	0.02778
435.89253	0.02528
434.92817	0.02531
433.96381	0.02642
432.99944	0.02584
432.03508	0.02401
431.07071	0.0232
430.10635	0.02385
429.14199	0.0234
428.17762	0.02041
427.21326	0.0179
426.24889	0.01959
425.28453	0.02403
424.32017	0.02684
423.3558	0.02646
422.39144	0.02583
421.42707	0.02983
420.46271	0.03919
419.49835	0.05208
418.53398	0.05405
417.56962	0.0435
416.60525	0.03512
415.64089	0.02983
414.67653	0.02757
413.71216	0.0263
412.7478	0.02455
411.78343	0.02543
410.81907	0.02929
409.85471	0.02752
408.89034	0.02361
407.92598	0.02049
406.96161	0.01772
405.99725	0.01209
405.03289	0.01209
404.06852	0.01209
403.10416	0.01209
402.13979	0.01209
401.17543	0.01209
400.21107	0.01209