3996.41167	0.00428
3994.4829	0.00429
3992.55413	0.0043
3990.62536	0.00431
3988.69659	0.00432
3986.76782	0.00434
3984.83905	0.00435
3982.91028	0.00437
3980.98151	0.00439
3979.05274	0.00441
3977.12397	0.00443
3975.1952	0.00446
3973.26643	0.00448
3971.33766	0.00454
3969.40889	0.0047
3967.48012	0.0047
3965.55135	0.00461
3963.62258	0.00466
3961.69381	0.00478
3959.76504	0.0049
3957.83627	0.00491
3955.9075	0.00473
3953.97873	0.00461
3952.04996	0.00474
3950.12119	0.00485
3948.19242	0.00476
3946.26365	0.00475
3944.33488	0.00477
3942.40611	0.00453
3940.47734	0.00418
3938.54857	0.00409
3936.6198	0.0042
3934.69103	0.00423
3932.76226	0.00428
3930.83349	0.00423
3928.90472	0.00382
3926.97595	0.00338
3925.04718	0.00328
3923.11841	0.00324
3921.18964	0.00333
3919.26087	0.00376
3917.3321	0.00398
3915.40333	0.00367
3913.47456	0.00358
3911.54579	0.00374
3909.61702	0.00365
3907.68825	0.00378
3905.75948	0.00398
3903.83071	0.00373
3901.90194	0.00381
3899.97317	0.00425
3898.0444	0.00426
3896.11563	0.00403
3894.18686	0.00387
3892.25809	0.00411
3890.32932	0.00454
3888.40055	0.00437
3886.47178	0.00398
3884.54301	0.00386
3882.61424	0.004
3880.68547	0.00422
3878.7567	0.00377
3876.82792	0.00276
3874.89915	0.0029
3872.97038	0.0038
3871.04161	0.00428
3869.11284	0.0045
3867.18407	0.00497
3865.2553	0.0053
3863.32653	0.00511
3861.39776	0.00509
3859.46899	0.0054
3857.54022	0.00581
3855.61145	0.00633
3853.68268	0.0065
3851.75391	0.00628
3849.82514	0.00619
3847.89637	0.00629
3845.9676	0.0062
3844.03883	0.0058
3842.11006	0.00548
3840.18129	0.00523
3838.25252	0.00516
3836.32375	0.00522
3834.39498	0.00479
3832.46621	0.00375
3830.53744	0.00332
3828.60867	0.00459
3826.6799	0.00548
3824.75113	0.00512
3822.82236	0.00493
3820.89359	0.00502
3818.96482	0.00509
3817.03605	0.00521
3815.10728	0.00549
3813.17851	0.00596
3811.24974	0.00622
3809.32097	0.00619
3807.3922	0.00633
3805.46343	0.00652
3803.53466	0.00644
3801.60589	0.00636
3799.67712	0.00637
3797.74835	0.00676
3795.81958	0.00721
3793.89081	0.00695
3791.96204	0.00704
3790.03327	0.00755
3788.1045	0.00768
3786.17573	0.00762
3784.24696	0.00756
3782.31819	0.00767
3780.38942	0.00778
3778.46065	0.00806
3776.53188	0.00832
3774.60311	0.00778
3772.67434	0.00767
3770.74557	0.00821
3768.8168	0.00798
3766.88803	0.00759
3764.95926	0.00804
3763.03049	0.00858
3761.10172	0.00864
3759.17295	0.00825
3757.24418	0.00788
3755.31541	0.00827
3753.38664	0.00916
3751.45787	0.00954
3749.5291	0.0093
3747.60033	0.00899
3745.67156	0.00903
3743.74279	0.00908
3741.81402	0.00914
3739.88525	0.00914
3737.95648	0.00866
3736.02771	0.00817
3734.09894	0.00805
3732.17017	0.00833
3730.2414	0.00854
3728.31263	0.00892
3726.38386	0.00953
3724.45509	0.00967
3722.52632	0.0095
3720.59755	0.01005
3718.66878	0.01104
3716.74001	0.01139
3714.81124	0.01089
3712.88247	0.01041
3710.9537	0.01091
3709.02493	0.01234
3707.09616	0.01364
3705.16739	0.01431
3703.23861	0.01475
3701.30984	0.01507
3699.38107	0.01512
3697.4523	0.01578
3695.52353	0.01686
3693.59476	0.01712
3691.66599	0.01733
3689.73722	0.01837
3687.80845	0.01988
3685.87968	0.02165
3683.95091	0.02298
3682.02214	0.02369
3680.09337	0.02416
3678.1646	0.02546
3676.23583	0.02728
3674.30706	0.02821
3672.37829	0.02855
3670.44952	0.0294
3668.52075	0.03079
3666.59198	0.03271
3664.66321	0.03515
3662.73444	0.03766
3660.80567	0.03977
3658.8769	0.04176
3656.94813	0.04384
3655.01936	0.04574
3653.09059	0.04725
3651.16182	0.04956
3649.23305	0.05244
3647.30428	0.05495
3645.37551	0.05767
3643.44674	0.0602
3641.51797	0.06235
3639.5892	0.06482
3637.66043	0.06724
3635.73166	0.0695
3633.80289	0.07214
3631.87412	0.07504
3629.94535	0.07761
3628.01658	0.08
3626.08781	0.08292
3624.15904	0.08649
3622.23027	0.09006
3620.3015	0.09327
3618.37273	0.0963
3616.44396	0.09979
3614.51519	0.10351
3612.58642	0.10695
3610.65765	0.11003
3608.72888	0.11323
3606.80011	0.11678
3604.87134	0.12111
3602.94257	0.1257
3601.0138	0.12951
3599.08503	0.13291
3597.15626	0.13658
3595.22749	0.14084
3593.29872	0.14517
3591.36995	0.14885
3589.44118	0.15267
3587.51241	0.1572
3585.58364	0.16176
3583.65487	0.16634
3581.7261	0.17097
3579.79733	0.17539
3577.86856	0.17972
3575.93979	0.18421
3574.01102	0.18898
3572.08225	0.1938
3570.15348	0.19862
3568.22471	0.20314
3566.29594	0.20765
3564.36717	0.21254
3562.4384	0.21799
3560.50963	0.22333
3558.58086	0.22847
3556.65209	0.23374
3554.72332	0.23913
3552.79455	0.24448
3550.86578	0.24983
3548.93701	0.25512
3547.00824	0.26015
3545.07947	0.2652
3543.1507	0.27075
3541.22193	0.27658
3539.29316	0.2822
3537.36439	0.28775
3535.43562	0.29341
3533.50685	0.29912
3531.57807	0.30489
3529.6493	0.31079
3527.72053	0.3167
3525.79176	0.32253
3523.86299	0.32851
3521.93422	0.33484
3520.00545	0.34138
3518.07668	0.34793
3516.14791	0.35445
3514.21914	0.361
3512.29037	0.36764
3510.3616	0.3743
3508.43283	0.38085
3506.50406	0.38722
3504.57529	0.39358
3502.64652	0.40008
3500.71775	0.40663
3498.78898	0.41319
3496.86021	0.41969
3494.93144	0.42613
3493.00267	0.43255
3491.0739	0.43892
3489.14513	0.44521
3487.21636	0.45144
3485.28759	0.45762
3483.35882	0.46368
3481.43005	0.46962
3479.50128	0.47565
3477.57251	0.4818
3475.64374	0.48784
3473.71497	0.49379
3471.7862	0.49966
3469.85743	0.50546
3467.92866	0.51128
3465.99989	0.51709
3464.07112	0.52293
3462.14235	0.52879
3460.21358	0.53459
3458.28481	0.54044
3456.35604	0.5464
3454.42727	0.55233
3452.4985	0.55826
3450.56973	0.56426
3448.64096	0.57031
3446.71219	0.57634
3444.78342	0.58229
3442.85465	0.58825
3440.92588	0.5942
3438.99711	0.60004
3437.06834	0.60582
3435.13957	0.61149
3433.2108	0.61702
3431.28203	0.62243
3429.35326	0.62773
3427.42449	0.63287
3425.49572	0.63784
3423.56695	0.64278
3421.63818	0.64772
3419.70941	0.65255
3417.78064	0.65729
3415.85187	0.66195
3413.9231	0.66654
3411.99433	0.67111
3410.06556	0.67563
3408.13679	0.68014
3406.20802	0.68467
3404.27925	0.68919
3402.35048	0.69366
3400.42171	0.69807
3398.49294	0.70242
3396.56417	0.70677
3394.6354	0.71105
3392.70663	0.71517
3390.77786	0.71921
3388.84909	0.72317
3386.92032	0.72706
3384.99155	0.73083
3383.06278	0.73449
3381.13401	0.73799
3379.20524	0.74132
3377.27647	0.74449
3375.3477	0.74752
3373.41893	0.75045
3371.49016	0.75323
3369.56139	0.75583
3367.63262	0.7583
3365.70385	0.7606
3363.77508	0.76269
3361.84631	0.76463
3359.91753	0.76644
3357.98876	0.76809
3356.05999	0.76956
3354.13122	0.77085
3352.20245	0.77195
3350.27368	0.77284
3348.34491	0.77354
3346.41614	0.77403
3344.48737	0.77434
3342.5586	0.77446
3340.62983	0.77438
3338.70106	0.7741
3336.77229	0.77361
3334.84352	0.77291
3332.91475	0.77199
3330.98598	0.77097
3329.05721	0.7699
3327.12844	0.76877
3325.19967	0.76756
3323.2709	0.76627
3321.34213	0.76493
3319.41336	0.76355
3317.48459	0.76214
3315.55582	0.76071
3313.62705	0.75934
3311.69828	0.75803
3309.76951	0.75676
3307.84074	0.75551
3305.91197	0.7543
3303.9832	0.7531
3302.05443	0.75189
3300.12566	0.75063
3298.19689	0.74931
3296.26812	0.7479
3294.33935	0.74642
3292.41058	0.74482
3290.48181	0.74306
3288.55304	0.74111
3286.62427	0.73903
3284.6955	0.73686
3282.76673	0.7346
3280.83796	0.73217
3278.90919	0.72959
3276.98042	0.72686
3275.05165	0.72401
3273.12288	0.72102
3271.19411	0.71789
3269.26534	0.71463
3267.33657	0.71131
3265.4078	0.7079
3263.47903	0.70436
3261.55026	0.7007
3259.62149	0.6969
3257.69272	0.69292
3255.76395	0.6887
3253.83518	0.68426
3251.90641	0.67966
3249.97764	0.67492
3248.04887	0.67002
3246.1201	0.66493
3244.19133	0.65968
3242.26256	0.65433
3240.33379	0.64893
3238.40502	0.64343
3236.47625	0.63786
3234.54748	0.63228
3232.61871	0.6267
3230.68994	0.62115
3228.76117	0.61566
3226.8324	0.61021
3224.90363	0.6048
3222.97486	0.59943
3221.04609	0.59409
3219.11732	0.58881
3217.18855	0.58354
3215.25978	0.57827
3213.33101	0.57299
3211.40224	0.56767
3209.47347	0.56229
3207.5447	0.55688
3205.61593	0.55146
3203.68716	0.54601
3201.75839	0.54043
3199.82962	0.53474
3197.90085	0.52892
3195.97208	0.52296
3194.04331	0.51686
3192.11454	0.51058
3190.18577	0.50417
3188.257	0.49765
3186.32822	0.49101
3184.39945	0.4843
3182.47068	0.47754
3180.54191	0.47073
3178.61314	0.46388
3176.68437	0.45699
3174.7556	0.45013
3172.82683	0.44332
3170.89806	0.43656
3168.96929	0.42984
3167.04052	0.42318
3165.11175	0.41658
3163.18298	0.41006
3161.25421	0.40366
3159.32544	0.39739
3157.39667	0.39119
3155.4679	0.38504
3153.53913	0.37898
3151.61036	0.37294
3149.68159	0.36694
3147.75282	0.361
3145.82405	0.35511
3143.89528	0.34927
3141.96651	0.3435
3140.03774	0.33779
3138.10897	0.3322
3136.1802	0.32674
3134.25143	0.32138
3132.32266	0.3161
3130.39389	0.31087
3128.46512	0.3057
3126.53635	0.30054
3124.60758	0.29537
3122.67881	0.29023
3120.75004	0.28513
3118.82127	0.28008
3116.8925	0.27511
3114.96373	0.27021
3113.03496	0.26538
3111.10619	0.2606
3109.17742	0.2559
3107.24865	0.25131
3105.31988	0.24683
3103.39111	0.24248
3101.46234	0.23827
3099.53357	0.23422
3097.6048	0.23033
3095.67603	0.2266
3093.74726	0.22303
3091.81849	0.21967
3089.88972	0.21647
3087.96095	0.2134
3086.03218	0.21049
3084.10341	0.2077
3082.17464	0.20497
3080.24587	0.20226
3078.3171	0.19963
3076.38833	0.19712
3074.45956	0.19469
3072.53079	0.19232
3070.60202	0.19002
3068.67325	0.18776
3066.74448	0.18555
3064.81571	0.18343
3062.88694	0.18141
3060.95817	0.17946
3059.0294	0.17753
3057.10063	0.17561
3055.17186	0.17372
3053.24309	0.17189
3051.31432	0.17012
3049.38555	0.16835
3047.45678	0.1666
3045.52801	0.16485
3043.59924	0.1631
3041.67047	0.16139
3039.7417	0.15969
3037.81293	0.158
3035.88416	0.1563
3033.95539	0.15464
3032.02662	0.1531
3030.09785	0.15165
3028.16908	0.15028
3026.24031	0.14897
3024.31154	0.14776
3022.38277	0.14669
3020.454	0.14578
3018.52523	0.14504
3016.59646	0.1445
3014.66768	0.14419
3012.73891	0.14416
3010.81014	0.14446
3008.88137	0.1452
3006.9526	0.14647
3005.02383	0.14835
3003.09506	0.15091
3001.16629	0.15435
2999.23752	0.15882
2997.30875	0.16449
2995.37998	0.17144
2993.45121	0.1797
2991.52244	0.18914
2989.59367	0.19949
2987.6649	0.21033
2985.73613	0.22119
2983.80736	0.23154
2981.87859	0.24093
2979.94982	0.24903
2978.02105	0.25558
2976.09228	0.26042
2974.16351	0.26354
2972.23474	0.26502
2970.30597	0.26504
2968.3772	0.26387
2966.44843	0.26183
2964.51966	0.25926
2962.59089	0.25656
2960.66212	0.2541
2958.73335	0.25231
2956.80458	0.25153
2954.87581	0.25207
2952.94704	0.25414
2951.01827	0.25783
2949.0895	0.26306
2947.16073	0.26959
2945.23196	0.27698
2943.30319	0.28473
2941.37442	0.29231
2939.44565	0.29927
2937.51688	0.30526
2935.58811	0.31002
2933.65934	0.31341
2931.73057	0.31538
2929.8018	0.31596
2927.87303	0.31527
2925.94426	0.3135
2924.01549	0.31089
2922.08672	0.30772
2920.15795	0.30423
2918.22918	0.30064
2916.30041	0.29712
2914.37164	0.29379
2912.44287	0.29074
2910.5141	0.28804
2908.58533	0.28568
2906.65656	0.2837
2904.72779	0.28205
2902.79902	0.28066
2900.87025	0.27945
2898.94148	0.27833
2897.01271	0.27722
2895.08394	0.27609
2893.15517	0.27488
2891.2264	0.27344
2889.29763	0.27168
2887.36886	0.2695
2885.44009	0.2668
2883.51132	0.26351
2881.58255	0.25964
2879.65378	0.25524
2877.72501	0.25034
2875.79624	0.24495
2873.86747	0.23911
2871.9387	0.2329
2870.00993	0.22635
2868.08116	0.21952
2866.15239	0.21248
2864.22362	0.20532
2862.29485	0.19814
2860.36608	0.19109
2858.43731	0.18427
2856.50854	0.17779
2854.57977	0.17172
2852.651	0.16614
2850.72223	0.16111
2848.79346	0.15664
2846.86469	0.15268
2844.93592	0.1492
2843.00714	0.14615
2841.07837	0.14349
2839.1496	0.14113
2837.22083	0.139
2835.29206	0.13704
2833.36329	0.13517
2831.43452	0.13335
2829.50575	0.13153
2827.57698	0.12967
2825.64821	0.12776
2823.71944	0.12579
2821.79067	0.12374
2819.8619	0.12165
2817.93313	0.11956
2816.00436	0.11745
2814.07559	0.11535
2812.14682	0.11328
2810.21805	0.11127
2808.28928	0.10931
2806.36051	0.10738
2804.43174	0.1055
2802.50297	0.1037
2800.5742	0.10197
2798.64543	0.10032
2796.71666	0.09879
2794.78789	0.0974
2792.85912	0.09612
2790.93035	0.09489
2789.00158	0.09372
2787.07281	0.09263
2785.14404	0.0916
2783.21527	0.09059
2781.2865	0.08958
2779.35773	0.08858
2777.42896	0.08764
2775.50019	0.08676
2773.57142	0.08594
2771.64265	0.08517
2769.71388	0.08444
2767.78511	0.08378
2765.85634	0.08319
2763.92757	0.08263
2761.9988	0.08203
2760.07003	0.08141
2758.14126	0.0808
2756.21249	0.0802
2754.28372	0.07959
2752.35495	0.07898
2750.42618	0.0784
2748.49741	0.07786
2746.56864	0.07735
2744.63987	0.07686
2742.7111	0.07639
2740.78233	0.07591
2738.85356	0.07541
2736.92479	0.07489
2734.99602	0.07434
2733.06725	0.07379
2731.13848	0.07325
2729.20971	0.07269
2727.28094	0.07213
2725.35217	0.07159
2723.4234	0.07106
2721.49463	0.0705
2719.56586	0.0699
2717.63709	0.06926
2715.70832	0.0686
2713.77955	0.06793
2711.85078	0.06725
2709.92201	0.06655
2707.99324	0.06583
2706.06447	0.0651
2704.1357	0.06438
2702.20693	0.06372
2700.27816	0.06313
2698.34939	0.06257
2696.42062	0.06203
2694.49185	0.06151
2692.56308	0.06099
2690.63431	0.06046
2688.70554	0.05992
2686.77677	0.05939
2684.848	0.05888
2682.91923	0.05839
2680.99046	0.05788
2679.06169	0.05736
2677.13292	0.05681
2675.20415	0.05624
2673.27538	0.05564
2671.34661	0.055
2669.41783	0.05434
2667.48906	0.05364
2665.56029	0.0529
2663.63152	0.05213
2661.70275	0.05136
2659.77398	0.0506
2657.84521	0.04985
2655.91644	0.04915
2653.98767	0.04847
2652.0589	0.04779
2650.13013	0.04709
2648.20136	0.04639
2646.27259	0.04571
2644.34382	0.04503
2642.41505	0.04435
2640.48628	0.04367
2638.55751	0.04302
2636.62874	0.04238
2634.69997	0.04174
2632.7712	0.04109
2630.84243	0.04043
2628.91366	0.03978
2626.98489	0.03914
2625.05612	0.03853
2623.12735	0.03795
2621.19858	0.03737
2619.26981	0.03679
2617.34104	0.03624
2615.41227	0.03573
2613.4835	0.03525
2611.55473	0.03477
2609.62596	0.0343
2607.69719	0.03385
2605.76842	0.03343
2603.83965	0.03305
2601.91088	0.03272
2599.98211	0.03243
2598.05334	0.03214
2596.12457	0.03187
2594.1958	0.03164
2592.26703	0.03145
2590.33826	0.03129
2588.40949	0.03113
2586.48072	0.03097
2584.55195	0.03083
2582.62318	0.03072
2580.69441	0.03064
2578.76564	0.03058
2576.83687	0.03048
2574.9081	0.03036
2572.97933	0.03023
2571.05056	0.03011
2569.12179	0.03
2567.19302	0.02987
2565.26425	0.02971
2563.33548	0.02955
2561.40671	0.02939
2559.47794	0.02922
2557.54917	0.02906
2555.6204	0.02891
2553.69163	0.02876
2551.76286	0.0286
2549.83409	0.02845
2547.90532	0.02832
2545.97655	0.02819
2544.04778	0.02806
2542.11901	0.02793
2540.19024	0.02781
2538.26147	0.02771
2536.3327	0.02762
2534.40393	0.02752
2532.47516	0.02739
2530.54639	0.02723
2528.61762	0.0271
2526.68885	0.02699
2524.76008	0.02689
2522.83131	0.02677
2520.90254	0.02663
2518.97377	0.02648
2517.045	0.02632
2515.11623	0.02615
2513.18746	0.02596
2511.25869	0.02577
2509.32992	0.02558
2507.40115	0.02538
2505.47238	0.02517
2503.54361	0.02499
2501.61484	0.02481
2499.68607	0.02465
2497.75729	0.02448
2495.82852	0.02429
2493.89975	0.02411
2491.97098	0.02394
2490.04221	0.02378
2488.11344	0.02359
2486.18467	0.0234
2484.2559	0.02322
2482.32713	0.02306
2480.39836	0.02293
2478.46959	0.02281
2476.54082	0.0227
2474.61205	0.02261
2472.68328	0.02253
2470.75451	0.02245
2468.82574	0.02237
2466.89697	0.02231
2464.9682	0.02226
2463.03943	0.02224
2461.11066	0.02224
2459.18189	0.02225
2457.25312	0.02227
2455.32435	0.02228
2453.39558	0.02229
2451.46681	0.02229
2449.53804	0.02229
2447.60927	0.02231
2445.6805	0.02234
2443.75173	0.02236
2441.82296	0.02235
2439.89419	0.02234
2437.96542	0.02233
2436.03665	0.02233
2434.10788	0.02233
2432.17911	0.02233
2430.25034	0.02233
2428.32157	0.02233
2426.3928	0.02233
2424.46403	0.02233
2422.53526	0.02233
2420.60649	0.02233
2418.67772	0.02233
2416.74895	0.02233
2414.82018	0.02233
2412.89141	0.02233
2410.96264	0.02233
2409.03387	0.02233
2407.1051	0.02233
2405.17633	0.02233
2403.24756	0.02233
2401.31879	0.02233
2399.39002	0.02233
2397.46125	0.02233
2395.53248	0.02233
2393.60371	0.02233
2391.67494	0.02233
2389.74617	0.02233
2387.8174	0.02233
2385.88863	0.02233
2383.95986	0.02233
2382.03109	0.02233
2380.10232	0.02233
2378.17355	0.02233
2376.24478	0.02233
2374.31601	0.02233
2372.38724	0.02233
2370.45847	0.02233
2368.5297	0.02233
2366.60093	0.02233
2364.67216	0.02233
2362.74339	0.02233
2360.81462	0.02233
2358.88585	0.02233
2356.95708	0.02233
2355.02831	0.02233
2353.09954	0.02233
2351.17077	0.02233
2349.242	0.02233
2347.31323	0.02233
2345.38446	0.02233
2343.45569	0.02233
2341.52692	0.02233
2339.59815	0.02233
2337.66938	0.02233
2335.74061	0.02233
2333.81184	0.02233
2331.88307	0.02233
2329.9543	0.02233
2328.02553	0.02233
2326.09675	0.02233
2324.16798	0.02233
2322.23921	0.02233
2320.31044	0.02233
2318.38167	0.02233
2316.4529	0.02233
2314.52413	0.02233
2312.59536	0.02233
2310.66659	0.02233
2308.73782	0.02233
2306.80905	0.02233
2304.88028	0.02233
2302.95151	0.02233
2301.02274	0.02233
2299.09397	0.02233
2297.1652	0.02233
2295.23643	0.02233
2293.30766	0.02233
2291.37889	0.02233
2289.45012	0.02233
2287.52135	0.02233
2285.59258	0.02233
2283.66381	0.02233
2281.73504	0.02233
2279.80627	0.02265
2277.8775	0.02287
2275.94873	0.02292
2274.01996	0.02284
2272.09119	0.02266
2270.16242	0.02237
2268.23365	0.02197
2266.30488	0.0215
2264.37611	0.02098
2262.44734	0.02039
2260.51857	0.01974
2258.5898	0.01906
2256.66103	0.01838
2254.73226	0.0177
2252.80349	0.01704
2250.87472	0.01642
2248.94595	0.01584
2247.01718	0.01531
2245.08841	0.01484
2243.15964	0.01445
2241.23087	0.01421
2239.3021	0.01411
2237.37333	0.01415
2235.44456	0.01433
2233.51579	0.01467
2231.58702	0.01471
2229.65825	0.01472
2227.72948	0.01477
2225.80071	0.01481
2223.87194	0.01482
2221.94317	0.0148
2220.0144	0.01478
2218.08563	0.01475
2216.15686	0.0147
2214.22809	0.01472
2212.29932	0.01481
2210.37055	0.0149
2208.44178	0.01496
2206.51301	0.01497
2204.58424	0.01494
2202.65547	0.01487
2200.7267	0.01476
2198.79793	0.01467
2196.86916	0.01461
2194.94039	0.01458
2193.01162	0.01456
2191.08285	0.01454
2189.15408	0.01452
2187.22531	0.01449
2185.29654	0.01443
2183.36777	0.01437
2181.439	0.01428
2179.51023	0.01411
2177.58146	0.01386
2175.65269	0.01359
2173.72392	0.01334
2171.79515	0.01313
2169.86638	0.013
2167.93761	0.01296
2166.00884	0.01298
2164.08007	0.013
2162.1513	0.01301
2160.22253	0.01307
2158.29376	0.01321
2156.36499	0.01346
2154.43622	0.01381
2152.50744	0.01426
2150.57867	0.0148
2148.6499	0.01536
2146.72113	0.01595
2144.79236	0.01656
2142.86359	0.01715
2140.93482	0.01771
2139.00605	0.01824
2137.07728	0.01877
2135.14851	0.01925
2133.21974	0.01961
2131.29097	0.01991
2129.3622	0.02017
2127.43343	0.02037
2125.50466	0.02053
2123.57589	0.02067
2121.64712	0.02082
2119.71835	0.02092
2117.78958	0.02095
2115.86081	0.02094
2113.93204	0.02095
2112.00327	0.02098
2110.0745	0.02099
2108.14573	0.02098
2106.21696	0.02094
2104.28819	0.02086
2102.35942	0.02075
2100.43065	0.02063
2098.50188	0.02051
2096.57311	0.02037
2094.64434	0.02022
2092.71557	0.02008
2090.7868	0.01995
2088.85803	0.01979
2086.92926	0.01959
2085.00049	0.01935
2083.07172	0.01907
2081.14295	0.01876
2079.21418	0.01846
2077.28541	0.01819
2075.35664	0.01794
2073.42787	0.01769
2071.4991	0.01745
2069.57033	0.01724
2067.64156	0.017
2065.71279	0.01668
2063.78402	0.01629
2061.85525	0.01588
2059.92648	0.01548
2057.99771	0.01507
2056.06894	0.01467
2054.14017	0.01426
2052.2114	0.01381
2050.28263	0.01329
2048.35386	0.01272
2046.42509	0.01218
2044.49632	0.0117
2042.56755	0.01123
2040.63878	0.01072
2038.71001	0.0102
2036.78124	0.00965
2034.85247	0.00907
2032.9237	0.00853
2030.99493	0.00806
2029.06616	0.00765
2027.13739	0.00724
2025.20862	0.0068
2023.27985	0.00631
2021.35108	0.00583
2019.42231	0.00542
2017.49354	0.00507
2015.56477	0.00476
2013.636	0.00454
2011.70723	0.00442
2009.77846	0.0044
2007.84969	0.00444
2005.92092	0.00452
2003.99215	0.00467
2002.06338	0.00488
2000.13461	0.00512
1998.20584	0.00531
1996.27707	0.00536
1994.3483	0.00528
1992.41953	0.00507
1990.49076	0.00472
1988.56199	0.00433
1986.63322	0.00393
1984.70445	0.00352
1982.77568	0.00311
1980.8469	0.00267
1978.91813	0.00222
1976.98936	0.00186
1975.06059	0.00164
1973.13182	0.00154
1971.20305	0.00149
1969.27428	0.00156
1967.34551	0.00175
1965.41674	0.00202
1963.48797	0.00246
1961.5592	0.00298
1959.63043	0.00351
1957.70166	0.00403
1955.77289	0.00448
1953.84412	0.00485
1951.91535	0.00517
1949.98658	0.00548
1948.05781	0.00571
1946.12904	0.00586
1944.20027	0.00607
1942.2715	0.00626
1940.34273	0.0064
1938.41396	0.00662
1936.48519	0.00686
1934.55642	0.00703
1932.62765	0.00716
1930.69888	0.00733
1928.77011	0.00752
1926.84134	0.00767
1924.91257	0.00779
1922.9838	0.00787
1921.05503	0.00785
1919.12626	0.0078
1917.19749	0.00777
1915.26872	0.00762
1913.33995	0.00729
1911.41118	0.00695
1909.48241	0.00667
1907.55364	0.00638
1905.62487	0.00608
1903.6961	0.00579
1901.76733	0.00548
1899.83856	0.00525
1897.90979	0.00513
1895.98102	0.00502
1894.05225	0.0049
1892.12348	0.00474
1890.19471	0.0046
1888.26594	0.00449
1886.33717	0.00438
1884.4084	0.00424
1882.47963	0.00408
1880.55086	0.00392
1878.62209	0.00379
1876.69332	0.00368
1874.76455	0.00354
1872.83578	0.0034
1870.90701	0.00326
1868.97824	0.00299
1867.04947	0.00266
1865.1207	0.00258
1863.19193	0.00258
1861.26316	0.00246
1859.33439	0.00235
1857.40562	0.00236
1855.47685	0.00238
1853.54808	0.00234
1851.61931	0.00243
1849.69054	0.00253
1847.76177	0.0025
1845.833	0.00253
1843.90423	0.00272
1841.97546	0.00284
1840.04669	0.0029
1838.11792	0.00306
1836.18915	0.00328
1834.26038	0.00351
1832.33161	0.00385
1830.40284	0.0044
1828.47407	0.00517
1826.5453	0.00614
1824.61653	0.00732
1822.68776	0.00894
1820.75899	0.01139
1818.83022	0.01476
1816.90145	0.01868
1814.97268	0.02327
1813.04391	0.0292
1811.11514	0.03652
1809.18636	0.04497
1807.25759	0.05467
1805.32882	0.06572
1803.40005	0.07781
1801.47128	0.0907
1799.54251	0.10401
1797.61374	0.11691
1795.68497	0.12891
1793.7562	0.14021
1791.82743	0.15096
1789.89866	0.16099
1787.96989	0.17013
1786.04112	0.17814
1784.11235	0.18499
1782.18358	0.19058
1780.25481	0.19477
1778.32604	0.19772
1776.39727	0.19954
1774.4685	0.20013
1772.53973	0.1996
1770.61096	0.19823
1768.68219	0.19638
1766.75342	0.19431
1764.82465	0.19187
1762.89588	0.18923
1760.96711	0.18682
1759.03834	0.18436
1757.10957	0.18167
1755.1808	0.17912
1753.25203	0.17647
1751.32326	0.17361
1749.39449	0.17102
1747.46572	0.16934
1745.53695	0.1688
1743.60818	0.16912
1741.67941	0.16997
1739.75064	0.17165
1737.82187	0.17455
1735.8931	0.17814
1733.96433	0.18178
1732.03556	0.18515
1730.10679	0.18786
1728.17802	0.18994
1726.24925	0.19139
1724.32048	0.19163
1722.39171	0.19068
1720.46294	0.18871
1718.53417	0.18587
1716.6054	0.18253
1714.67663	0.17854
1712.74786	0.1737
1710.81909	0.16861
1708.89032	0.16344
1706.96155	0.15812
1705.03278	0.15343
1703.10401	0.14966
1701.17524	0.14677
1699.24647	0.14487
1697.3177	0.14417
1695.38893	0.14477
1693.46016	0.14667
1691.53139	0.14976
1689.60262	0.15349
1687.67385	0.15721
1685.74508	0.16078
1683.81631	0.16442
1681.88754	0.168
1679.95877	0.17088
1678.03	0.1727
1676.10123	0.1745
1674.17246	0.17682
1672.24369	0.17853
1670.31492	0.17902
1668.38615	0.17852
1666.45738	0.17719
1664.52861	0.17487
1662.59984	0.17144
1660.67107	0.16733
1658.7423	0.16304
1656.81353	0.15862
1654.88476	0.15391
1652.95599	0.1489
1651.02722	0.14396
1649.09845	0.1391
1647.16968	0.13423
1645.24091	0.12984
1643.31214	0.12572
1641.38337	0.12122
1639.4546	0.11679
1637.52583	0.11303
1635.59705	0.10951
1633.66828	0.10602
1631.73951	0.10302
1629.81074	0.10111
1627.88197	0.09972
1625.9532	0.09763
1624.02443	0.09532
1622.09566	0.09337
1620.16689	0.09129
1618.23812	0.08887
1616.30935	0.08637
1614.38058	0.08395
1612.45181	0.08187
1610.52304	0.08013
1608.59427	0.07817
1606.6655	0.07599
1604.73673	0.07389
1602.80796	0.07172
1600.87919	0.06913
1598.95042	0.06638
1597.02165	0.06367
1595.09288	0.06059
1593.16411	0.05735
1591.23534	0.05443
1589.30657	0.05166
1587.3778	0.04915
1585.44903	0.04702
1583.52026	0.04493
1581.59149	0.0432
1579.66272	0.04251
1577.73395	0.04241
1575.80518	0.04255
1573.87641	0.04291
1571.94764	0.04367
1570.01887	0.04483
1568.0901	0.04614
1566.16133	0.04745
1564.23256	0.04866
1562.30379	0.05009
1560.37502	0.05189
1558.44625	0.05335
1556.51748	0.05414
1554.58871	0.05475
1552.65994	0.05545
1550.73117	0.05607
1548.8024	0.05637
1546.87363	0.05658
1544.94486	0.05701
1543.01609	0.05763
1541.08732	0.058
1539.15855	0.05792
1537.22978	0.05758
1535.30101	0.05746
1533.37224	0.05719
1531.44347	0.05574
1529.5147	0.0537
1527.58593	0.05187
1525.65716	0.04992
1523.72839	0.04735
1521.79962	0.04414
1519.87085	0.04073
1517.94208	0.03754
1516.01331	0.03464
1514.08454	0.0314
1512.15577	0.02755
1510.227	0.02398
1508.29823	0.0213
1506.36946	0.01927
1504.44069	0.01802
1502.51192	0.01796
1500.58315	0.01885
1498.65438	0.02039
1496.72561	0.02236
1494.79684	0.02459
1492.86807	0.02735
1490.9393	0.03049
1489.01053	0.03359
1487.08176	0.03694
1485.15299	0.04095
1483.22422	0.04566
1481.29545	0.05058
1479.36668	0.05542
1477.43791	0.06053
1475.50914	0.06594
1473.58037	0.07146
1471.6516	0.07687
1469.72283	0.0819
1467.79406	0.0866
1465.86529	0.09133
1463.93651	0.09616
1462.00774	0.10072
1460.07897	0.10484
1458.1502	0.10874
1456.22143	0.11226
1454.29266	0.11488
1452.36389	0.11654
1450.43512	0.11755
1448.50635	0.11816
1446.57758	0.11844
1444.64881	0.11818
1442.72004	0.11753
1440.79127	0.11708
1438.8625	0.11696
1436.93373	0.11685
1435.00496	0.11708
1433.07619	0.11833
1431.14742	0.1205
1429.21865	0.12312
1427.28988	0.12632
1425.36111	0.13027
1423.43234	0.13485
1421.50357	0.13986
1419.5748	0.1451
1417.64603	0.1504
1415.71726	0.15561
1413.78849	0.16065
1411.85972	0.16537
1409.93095	0.16956
1408.00218	0.17327
1406.07341	0.17662
1404.14464	0.17952
1402.21587	0.18189
1400.2871	0.18386
1398.35833	0.18554
1396.42956	0.18725
1394.50079	0.18939
1392.57202	0.19178
1390.64325	0.19412
1388.71448	0.1963
1386.78571	0.19815
1384.85694	0.19952
1382.92817	0.20023
1380.9994	0.20013
1379.07063	0.19909
1377.14186	0.19709
1375.21309	0.19431
1373.28432	0.19088
1371.35555	0.1869
1369.42678	0.18252
1367.49801	0.17774
1365.56924	0.1727
1363.64047	0.16765
1361.7117	0.16287
1359.78293	0.15861
1357.85416	0.15529
1355.92539	0.15335
1353.99662	0.15324
1352.06785	0.15535
1350.13908	0.15983
1348.21031	0.16637
1346.28154	0.17436
1344.35277	0.18321
1342.424	0.19226
1340.49523	0.20095
1338.56646	0.2088
1336.63769	0.21526
1334.70892	0.21997
1332.78015	0.22283
1330.85138	0.22385
1328.92261	0.22311
1326.99384	0.22072
1325.06507	0.2169
1323.1363	0.21184
1321.20753	0.20575
1319.27876	0.19885
1317.34999	0.19141
1315.42122	0.18379
1313.49245	0.17623
1311.56368	0.16886
1309.63491	0.16185
1307.70614	0.15542
1305.77737	0.14964
1303.8486	0.14446
1301.91983	0.13972
1299.99106	0.13521
1298.06229	0.13074
1296.13352	0.12617
1294.20475	0.12144
1292.27597	0.11656
1290.3472	0.11164
1288.41843	0.10682
1286.48966	0.10224
1284.56089	0.09804
1282.63212	0.09441
1280.70335	0.09157
1278.77458	0.08968
1276.84581	0.08879
1274.91704	0.08889
1272.98827	0.08986
1271.0595	0.0916
1269.13073	0.09395
1267.20196	0.0967
1265.27319	0.09963
1263.34442	0.10253
1261.41565	0.10526
1259.48688	0.10772
1257.55811	0.10989
1255.62934	0.11182
1253.70057	0.11356
1251.7718	0.11507
1249.84303	0.11622
1247.91426	0.11683
1245.98549	0.11674
1244.05672	0.11578
1242.12795	0.11387
1240.19918	0.11105
1238.27041	0.10754
1236.34164	0.10368
1234.41287	0.09982
1232.4841	0.09622
1230.55533	0.0931
1228.62656	0.09057
1226.69779	0.08865
1224.76902	0.08722
1222.84025	0.08604
1220.91148	0.08486
1218.98271	0.08349
1217.05394	0.0819
1215.12517	0.08012
1213.1964	0.07822
1211.26763	0.07627
1209.33886	0.07423
1207.41009	0.07194
1205.48132	0.06913
1203.55255	0.0656
1201.62378	0.06126
1199.69501	0.05618
1197.76624	0.05059
1195.83747	0.04486
1193.9087	0.03944
1191.97993	0.03478
1190.05116	0.03129
1188.12239	0.02935
1186.19362	0.0293
1184.26485	0.0315
1182.33608	0.03627
1180.40731	0.04387
1178.47854	0.05449
1176.54977	0.0682
1174.621	0.08483
1172.69223	0.10398
1170.76346	0.12502
1168.83469	0.14717
1166.90592	0.16955
1164.97715	0.19125
1163.04838	0.21137
1161.11961	0.22912
1159.19084	0.2439
1157.26207	0.25532
1155.3333	0.2632
1153.40453	0.26756
1151.47576	0.26858
1149.54699	0.26657
1147.61822	0.26193
1145.68945	0.25511
1143.76068	0.24669
1141.83191	0.23738
1139.90314	0.22798
1137.97437	0.21936
1136.0456	0.21229
1134.11683	0.20735
1132.18806	0.20479
1130.25929	0.2046
1128.33052	0.20655
1126.40175	0.21033
1124.47298	0.21554
1122.54421	0.22176
1120.61544	0.22849
1118.68666	0.23523
1116.75789	0.24157
1114.82912	0.24727
1112.90035	0.25232
1110.97158	0.25691
1109.04281	0.26145
1107.11404	0.26658
1105.18527	0.27319
1103.2565	0.28229
1101.32773	0.29472
1099.39896	0.31081
1097.47019	0.3301
1095.54142	0.35144
1093.61265	0.37343
1091.68388	0.3948
1089.75511	0.41471
1087.82634	0.43265
1085.89757	0.44832
1083.9688	0.46152
1082.04003	0.47208
1080.11126	0.47989
1078.18249	0.4849
1076.25372	0.48713
1074.32495	0.4868
1072.39618	0.48437
1070.46741	0.48055
1068.53864	0.47637
1066.60987	0.47307
1064.6811	0.47202
1062.75233	0.47448
1060.82356	0.48148
1058.89479	0.49363
1056.96602	0.51105
1055.03725	0.53328
1053.10848	0.55935
1051.17971	0.58812
1049.25094	0.61873
1047.32217	0.65078
1045.3934	0.68417
1043.46463	0.71871
1041.53586	0.75377
1039.60709	0.78833
1037.67832	0.82125
1035.74955	0.85165
1033.82078	0.87903
1031.89201	0.90322
1029.96324	0.92424
1028.03447	0.94231
1026.1057	0.95772
1024.17693	0.97081
1022.24816	0.98183
1020.31939	0.99072
1018.39062	0.99705
1016.46185	1
1014.53308	0.99849
1012.60431	0.99154
1010.67554	0.9786
1008.74677	0.95974
1006.818	0.93554
1004.88923	0.90678
1002.96046	0.87419
1001.03169	0.83834
999.10292	0.79948
997.17415	0.75767
995.24538	0.71291
993.31661	0.66536
991.38784	0.61557
989.45907	0.56438
987.5303	0.51279
985.60153	0.46178
983.67276	0.41233
981.74399	0.36543
979.81522	0.3219
977.88645	0.28237
975.95768	0.24714
974.02891	0.21627
972.10014	0.1897
970.17137	0.16737
968.2426	0.14937
966.31383	0.13589
964.38506	0.127
962.45629	0.12255
960.52752	0.12207
958.59875	0.12497
956.66998	0.13061
954.74121	0.13841
952.81244	0.14774
950.88367	0.15786
948.9549	0.16802
947.02612	0.17751
945.09735	0.18568
943.16858	0.192
941.23981	0.196
939.31104	0.19736
937.38227	0.19587
935.4535	0.19147
933.52473	0.18427
931.59596	0.17448
929.66719	0.16248
927.73842	0.14879
925.80965	0.1341
923.88088	0.11916
921.95211	0.10465
920.02334	0.0909
918.09457	0.07794
916.1658	0.06569
914.23703	0.05407
912.30826	0.04317
910.37949	0.03333
908.45072	0.02514
906.52195	0.01914
904.59318	0.01538
902.66441	0.01365
900.73564	0.01374
898.80687	0.01544
896.8781	0.01847
894.94933	0.02247
893.02056	0.02711
891.09179	0.03208
889.16302	0.03717
887.23425	0.04221
885.30548	0.04711
883.37671	0.0518
881.44794	0.05623
879.51917	0.06039
877.5904	0.06421
875.66163	0.0676
873.73286	0.07046
871.80409	0.07267
869.87532	0.07418
867.94655	0.075
866.01778	0.07537
864.08901	0.07575
862.16024	0.07653
860.23147	0.0777
858.3027	0.07887
856.37393	0.07965
854.44516	0.07978
852.51639	0.07903
850.58762	0.07716
848.65885	0.07407
846.73008	0.06985
844.80131	0.06471
842.87254	0.05899
840.94377	0.05305
839.015	0.04716
837.08623	0.04154
835.15746	0.03627
833.22869	0.03132
831.29992	0.02665
829.37115	0.02224
827.44238	0.01809
825.51361	0.01425
823.58484	0.01082
821.65607	0.00787
819.7273	0.00548
817.79853	0.00368
815.86976	0.00244
813.94099	0.00167
812.01222	0.00121
810.08345	9.05921E-4
808.15468	6.55011E-4
806.22591	3.97252E-4
804.29714	1.49691E-4
802.36837	0
800.4396	1.10405E-4
798.51083	6.63428E-4
796.58206	0.00176
794.65329	0.00337
792.72452	0.00535
790.79575	0.00757
788.86698	0.00993
786.93821	0.01247
785.00944	0.01533
783.08067	0.0187
781.1519	0.02279
779.22313	0.0278
777.29436	0.0338
775.36558	0.04065
773.43681	0.04802
771.50804	0.05552
769.57927	0.06284
767.6505	0.06975
765.72173	0.07606
763.79296	0.08156
761.86419	0.08603
759.93542	0.08933
758.00665	0.09136
756.07788	0.09215
754.14911	0.09182
752.22034	0.09043
750.29157	0.08802
748.3628	0.08463
746.43403	0.0803
744.50526	0.07535
742.57649	0.06998
740.64772	0.06454
738.71895	0.05952
736.79018	0.05521
734.86141	0.05187
732.93264	0.0497
731.00387	0.04877
729.0751	0.04901
727.14633	0.0503
725.21756	0.05257
723.28879	0.05568
721.36002	0.05946
719.43125	0.06364
717.50248	0.06791
715.57371	0.07202
713.64494	0.07581
711.71617	0.07917
709.7874	0.08209
707.85863	0.08455
705.92986	0.08656
704.00109	0.0881
702.07232	0.08917
700.14355	0.0898
698.21478	0.09002
696.28601	0.08921
694.35724	0.08735
692.42847	0.08737
690.4997	0.08921
688.57093	0.08679
686.64216	0.08491
684.71339	0.08428
682.78462	0.08404
680.85585	0.08401
678.92708	0.08426
676.99831	0.0846
675.06954	0.08499
673.14077	0.08536
671.212	0.08564
669.28323	0.08586
667.35446	0.08606
665.42569	0.08623
663.49692	0.08635
661.56815	0.08641
659.63938	0.08638
657.71061	0.08625
655.78184	0.08598
653.85307	0.08558
651.9243	0.08497
649.99553	0.08414
648.06676	0.08385
646.13799	0.08501
644.20922	0.08451
642.28045	0.08065
640.35168	0.08019
638.42291	0.08011
636.49414	0.07964
634.56537	0.07952
632.6366	0.08004
630.70783	0.0812
628.77906	0.08308
626.85029	0.08562
624.92152	0.08869
622.99275	0.09217
621.06398	0.09589
619.13521	0.09966
617.20644	0.1034
615.27767	0.10713
613.3489	0.11094
611.42013	0.11483
609.49136	0.11879
607.56259	0.1227
605.63382	0.12649
603.70505	0.13005
601.77627	0.13341
599.8475	0.13654
597.91873	0.13941
595.98996	0.14198
594.06119	0.14418
592.13242	0.14603
590.20365	0.1475
588.27488	0.14853
586.34611	0.14907
584.41734	0.14905
582.48857	0.14841
580.5598	0.14708
578.63103	0.145
576.70226	0.14219
574.77349	0.13873
572.84472	0.1348
570.91595	0.13062
568.98718	0.1264
567.05841	0.12231
565.12964	0.11842
563.20087	0.11479
561.2721	0.11149
559.34333	0.10861
557.41456	0.10621
555.48579	0.10433
553.55702	0.10296
551.62825	0.10207
549.69948	0.1016
547.77071	0.10152
545.84194	0.1018
543.91317	0.10232
541.9844	0.103
540.05563	0.10376
538.12686	0.10453
536.19809	0.10516
534.26932	0.10555
532.34055	0.10564
530.41178	0.10538
528.48301	0.10478
526.55424	0.10381
524.62547	0.10248
522.6967	0.10081
520.76793	0.09884
518.83916	0.0966
516.91039	0.09419
514.98162	0.09167
513.05285	0.08911
511.12408	0.08659
509.19531	0.08417
507.26654	0.08193
505.33777	0.07993
503.409	0.07822
501.48023	0.07684
499.55146	0.07576
497.62269	0.07494
495.69392	0.07435
493.76515	0.07392
491.83638	0.07352
489.90761	0.07304
487.97884	0.07244
486.05007	0.07167
484.1213	0.07069
482.19253	0.06945
480.26376	0.06795
478.33499	0.06621
476.40622	0.06418
474.47745	0.06186
472.54868	0.05931
470.61991	0.0566
468.69114	0.05378
466.76237	0.05092
464.8336	0.0481
462.90483	0.04541
460.97606	0.0429
459.04729	0.04064
457.11852	0.03872
455.18975	0.03717
453.26098	0.03604
451.33221	0.0353
449.40344	0.03491
447.47467	0.03481
445.5459	0.03494
443.61713	0.03523
441.68836	0.03565
439.75959	0.03614
437.83082	0.03653
435.90205	0.03674
433.97328	0.03678
432.04451	0.03658
430.11573	0.03609
428.18696	0.03533
426.25819	0.0343
424.32942	0.03299
422.40065	0.03139
420.47188	0.0299
418.54311	0.02823
416.61434	0.02639
414.68557	0.02437
412.7568	0.02219
410.82803	0.01983
408.89926	0.01731
406.97049	0.01461
405.04172	0.01174
403.11295	0.0087
401.18418	0.00549
399.25541	0.0021