401	0.00236
402	0
403	0.00611
404	0.01437
405	0.01455
406	0.01013
407	0.01197
408	0.02003
409	0.02532
410	0.02291
411	0.02023
412	0.02704
413	0.03853
414	0.04228
415	0.03835
416	0.03533
417	0.03499
418	0.03353
419	0.03011
420	0.02952
421	0.03414
422	0.04118
423	0.04475
424	0.04148
425	0.03594
426	0.03389
427	0.03625
428	0.03682
429	0.03256
430	0.03183
431	0.03946
432	0.04597
433	0.04587
434	0.04738
435	0.05285
436	0.05535
437	0.05111
438	0.04482
439	0.0445
440	0.05155
441	0.05832
442	0.05895
443	0.05746
444	0.06032
445	0.06603
446	0.06895
447	0.06827
448	0.06897
449	0.0737
450	0.07916
451	0.08004
452	0.07548
453	0.07176
454	0.07152
455	0.0699
456	0.06615
457	0.06301
458	0.06073
459	0.05888
460	0.05685
461	0.05538
462	0.05745
463	0.06171
464	0.06419
465	0.06381
466	0.06315
467	0.06549
468	0.06985
469	0.07185
470	0.07121
471	0.07116
472	0.07369
473	0.07816
474	0.0817
475	0.0845
476	0.08855
477	0.09306
478	0.09536
479	0.09463
480	0.09413
481	0.09675
482	0.10023
483	0.10093
484	0.09874
485	0.09806
486	0.10096
487	0.10312
488	0.10175
489	0.09973
490	0.09918
491	0.09933
492	0.09848
493	0.09632
494	0.09467
495	0.09449
496	0.09485
497	0.09453
498	0.09378
499	0.09406
500	0.09575
501	0.09708
502	0.09695
503	0.09732
504	0.09951
505	0.10232
506	0.10477
507	0.10615
508	0.10678
509	0.1083
510	0.11046
511	0.11198
512	0.11348
513	0.11653
514	0.12079
515	0.12453
516	0.1268
517	0.12929
518	0.13384
519	0.13875
520	0.14275
521	0.14625
522	0.15037
523	0.15532
524	0.15953
525	0.16162
526	0.16174
527	0.16101
528	0.16033
529	0.15952
530	0.15837
531	0.15751
532	0.15729
533	0.15691
534	0.15533
535	0.1529
536	0.15059
537	0.14796
538	0.14392
539	0.13831
540	0.13277
541	0.12931
542	0.12802
543	0.1274
544	0.12714
545	0.12774
546	0.12873
547	0.12929
548	0.12969
549	0.13099
550	0.13336
551	0.13602
552	0.13865
553	0.1411
554	0.14325
555	0.14581
556	0.14931
557	0.15348
558	0.1585
559	0.16464
560	0.17194
561	0.18031
562	0.18962
563	0.2
564	0.21173
565	0.22443
566	0.23705
567	0.24922
568	0.26108
569	0.27158
570	0.2794
571	0.28398
572	0.2858
573	0.28505
574	0.28212
575	0.27769
576	0.2724
577	0.26688
578	0.2614
579	0.2558
580	0.24967
581	0.24217
582	0.23263
583	0.22158
584	0.21107
585	0.20312
586	0.19801
587	0.19477
588	0.19293
589	0.19264
590	0.1934
591	0.19337
592	0.1915
593	0.18958
594	0.18911
595	0.18953
596	0.18889
597	0.1864
598	0.18427
599	0.18434
600	0.18565
601	0.18688
602	0.18852
603	0.19161
604	0.19572
605	0.19843
606	0.1983
607	0.19681
608	0.19574
609	0.19439
610	0.19087
611	0.18515
612	0.17967
613	0.17589
614	0.17217
615	0.16644
616	0.15916
617	0.15248
618	0.14745
619	0.14318
620	0.13785
621	0.13191
622	0.12852
623	0.12832
624	0.12748
625	0.12406
626	0.12083
627	0.1207
628	0.12218
629	0.12188
630	0.11916
631	0.11714
632	0.11826
633	0.12028
634	0.11957
635	0.11652
636	0.11482
637	0.11592
638	0.11667
639	0.11449
640	0.11158
641	0.11167
642	0.11434
643	0.11567
644	0.11405
645	0.11271
646	0.11445
647	0.11738
648	0.11751
649	0.11506
650	0.11419
651	0.11645
652	0.11839
653	0.11749
654	0.11538
655	0.11509
656	0.11642
657	0.11655
658	0.11456
659	0.11302
660	0.11408
661	0.11592
662	0.11545
663	0.11314
664	0.11228
665	0.11434
666	0.1177
667	0.11977
668	0.1167
669	0.11346
670	0.11446
671	0.11519
672	0.11332
673	0.11104
674	0.11161
675	0.11442
676	0.11505
677	0.11213
678	0.10992
679	0.11166
680	0.11456
681	0.11384
682	0.11039
683	0.10919
684	0.11162
685	0.11339
686	0.11141
687	0.10856
688	0.10892
689	0.11157
690	0.11192
691	0.1089
692	0.1069
693	0.10902
694	0.11257
695	0.11331
696	0.11207
697	0.11332
698	0.11845
699	0.12365
700	0.12526
701	0.12534
702	0.12898
703	0.13598
704	0.14096
705	0.14127
706	0.14133
707	0.14475
708	0.1491
709	0.14965
710	0.14611
711	0.14262
712	0.14155
713	0.13995
714	0.13416
715	0.12615
716	0.12075
717	0.11835
718	0.1148
719	0.10802
720	0.10123
721	0.09849
722	0.09828
723	0.09588
724	0.09083
725	0.08735
726	0.08806
727	0.08983
728	0.08803
729	0.08363
730	0.08219
731	0.08495
732	0.08672
733	0.08433
734	0.08158
735	0.08313
736	0.08781
737	0.09085
738	0.091
739	0.09225
740	0.09811
741	0.10677
742	0.11388
743	0.1192
744	0.12652
745	0.13671
746	0.14544
747	0.14915
748	0.1501
749	0.15309
750	0.1584
751	0.16155
752	0.16026
753	0.1582
754	0.16008
755	0.16459
756	0.16588
757	0.16295
758	0.16125
759	0.16356
760	0.16549
761	0.16213
762	0.15418
763	0.14659
764	0.14155
765	0.13565
766	0.12596
767	0.11535
768	0.10867
769	0.10561
770	0.10152
771	0.09459
772	0.08848
773	0.08673
774	0.08726
775	0.08532
776	0.08052
777	0.07719
778	0.07703
779	0.07619
780	0.07133
781	0.06476
782	0.06146
783	0.06176
784	0.06039
785	0.05446
786	0.04797
787	0.04548
788	0.04538
789	0.04311
790	0.038
791	0.03439
792	0.03518
793	0.03758
794	0.03752
795	0.03547
796	0.0351
797	0.03783
798	0.04038
799	0.0393
800	0.03631
801	0.03581
802	0.03792
803	0.03825
804	0.03492
805	0.03181
806	0.03246
807	0.03467
808	0.03391
809	0.0302
810	0.02829
811	0.03083
812	0.03397
813	0.03331
814	0.03146
815	0.03285
816	0.03735
817	0.04039
818	0.03954
819	0.03771
820	0.03835
821	0.04028
822	0.03946
823	0.03543
824	0.0323
825	0.03278
826	0.03421
827	0.03279
828	0.02983
829	0.02993
830	0.03395
831	0.03783
832	0.03884
833	0.03966
834	0.04431
835	0.05165
836	0.05676
837	0.05823
838	0.05989
839	0.06515
840	0.0714
841	0.07396
842	0.07265
843	0.07195
844	0.07412
845	0.07605
846	0.07435
847	0.07082
848	0.06994
849	0.07244
850	0.07465
851	0.07445
852	0.07453
853	0.07817
854	0.08404
855	0.08799
856	0.08913
857	0.09089
858	0.09583
859	0.10153
860	0.10396
861	0.10337
862	0.10394
863	0.10732
864	0.10972
865	0.10727
866	0.10207
867	0.09878
868	0.09745
869	0.09417
870	0.08743
871	0.08061
872	0.07733
873	0.076
874	0.07229
875	0.06579
876	0.06062
877	0.05934
878	0.05945
879	0.05784
880	0.05584
881	0.05775
882	0.06534
883	0.0755
884	0.08372
885	0.08827
886	0.0895
887	0.08631
888	0.07658
889	0.06175
890	0.04778
891	0.03919
892	0.03447
893	0.0291
894	0.02229
895	0.01797
896	0.01832
897	0.0204
898	0.02058
899	0.01961
900	0.02077
901	0.02458
902	0.02775
903	0.02787
904	0.02671
905	0.02752
906	0.03038
907	0.0324
908	0.03263
909	0.03373
910	0.03817
911	0.04433
912	0.04876
913	0.05128
914	0.05515
915	0.06219
916	0.07009
917	0.07577
918	0.07979
919	0.08522
920	0.09275
921	0.09903
922	0.10201
923	0.10413
924	0.10883
925	0.11565
926	0.12146
927	0.12533
928	0.13
929	0.1378
930	0.14762
931	0.15663
932	0.16422
933	0.17242
934	0.18249
935	0.19284
936	0.20121
937	0.20766
938	0.21386
939	0.21999
940	0.22391
941	0.22455
942	0.2243
943	0.22604
944	0.23001
945	0.23425
946	0.23765
947	0.24166
948	0.24724
949	0.25235
950	0.25376
951	0.24991
952	0.24134
953	0.22847
954	0.21128
955	0.1915
956	0.17306
957	0.15923
958	0.15036
959	0.14456
960	0.14043
961	0.13848
962	0.13952
963	0.14255
964	0.14576
965	0.1489
966	0.15351
967	0.16039
968	0.16831
969	0.17572
970	0.18294
971	0.19196
972	0.20291
973	0.2141
974	0.22443
975	0.23522
976	0.24785
977	0.26158
978	0.27483
979	0.2872
980	0.29987
981	0.31371
982	0.32803
983	0.34184
984	0.3554
985	0.36986
986	0.38558
987	0.40167
988	0.41768
989	0.43477
990	0.45435
991	0.47596
992	0.49798
993	0.51969
994	0.54153
995	0.56357
996	0.58457
997	0.60265
998	0.61705
999	0.62845
1000	0.63738
1001	0.64384
1002	0.64836
1003	0.65325
1004	0.66078
1005	0.67099
1006	0.68255
1007	0.69451
1008	0.70684
1009	0.71926
1010	0.73054
1011	0.73946
1012	0.74647
1013	0.75374
1014	0.7627
1015	0.77301
1016	0.78421
1017	0.79716
1018	0.813
1019	0.83129
1020	0.8504
1021	0.86973
1022	0.89025
1023	0.91245
1024	0.93479
1025	0.95425
1026	0.96893
1027	0.97926
1028	0.98701
1029	0.99277
1030	0.99637
1031	0.99821
1032	0.9992
1033	0.99984
1034	1
1035	0.9997
1036	0.99921
1037	0.99911
1038	0.9993
1039	0.99909
1040	0.99838
1041	0.99744
1042	0.99568
1043	0.99111
1044	0.98133
1045	0.96533
1046	0.94468
1047	0.92208
1048	0.90003
1049	0.88017
1050	0.86391
1051	0.85261
1052	0.84665
1053	0.8458
1054	0.84982
1055	0.85802
1056	0.86807
1057	0.87685
1058	0.88226
1059	0.88288
1060	0.87729
1061	0.8646
1062	0.84529
1063	0.82101
1064	0.79448
1065	0.76852
1066	0.74523
1067	0.7271
1068	0.71732
1069	0.71803
1070	0.72897
1071	0.74809
1072	0.7725
1073	0.79947
1074	0.8264
1075	0.85002
1076	0.86697
1077	0.87549
1078	0.87571
1079	0.86869
1080	0.85516
1081	0.8361
1082	0.81333
1083	0.78918
1084	0.76514
1085	0.74127
1086	0.71795
1087	0.69624
1088	0.67738
1089	0.66095
1090	0.6464
1091	0.63427
1092	0.62559
1093	0.62013
1094	0.61576
1095	0.6104
1096	0.60394
1097	0.59768
1098	0.59194
1099	0.58584
1100	0.57891
1101	0.57202
1102	0.566
1103	0.56042
1104	0.55406
1105	0.54674
1106	0.53989
1107	0.53445
1108	0.52946
1109	0.52258
1110	0.51389
1111	0.50588
1112	0.49952
1113	0.49327
1114	0.48577
1115	0.47746
1116	0.46986
1117	0.46336
1118	0.45619
1119	0.44724
1120	0.43803
1121	0.43052
1122	0.42443
1123	0.41808
1124	0.4109
1125	0.40422
1126	0.39917
1127	0.39461
1128	0.38868
1129	0.38149
1130	0.37509
1131	0.37041
1132	0.36641
1133	0.36225
1134	0.35904
1135	0.35886
1136	0.36223
1137	0.36712
1138	0.37226
1139	0.37924
1140	0.39011
1141	0.40468
1142	0.42139
1143	0.43974
1144	0.46098
1145	0.48552
1146	0.51181
1147	0.53791
1148	0.56333
1149	0.58886
1150	0.6146
1151	0.63879
1152	0.65938
1153	0.67631
1154	0.69068
1155	0.70224
1156	0.7084
1157	0.70672
1158	0.69731
1159	0.68184
1160	0.66073
1161	0.63342
1162	0.60128
1163	0.56818
1164	0.53718
1165	0.50804
1166	0.47945
1167	0.45205
1168	0.42796
1169	0.40783
1170	0.38983
1171	0.37223
1172	0.35582
1173	0.34237
1174	0.33148
1175	0.32091
1176	0.30964
1177	0.29913
1178	0.29096
1179	0.28451
1180	0.27793
1181	0.27088
1182	0.2652
1183	0.26222
1184	0.26054
1185	0.25808
1186	0.25523
1187	0.25408
1188	0.25519
1189	0.25645
1190	0.25582
1191	0.25401
1192	0.25333
1193	0.25354
1194	0.25237
1195	0.24925
1196	0.24643
1197	0.24606
1198	0.24782
1199	0.24973
1200	0.25153
1201	0.25522
1202	0.26179
1203	0.26955
1204	0.27643
1205	0.28271
1206	0.29017
1207	0.29893
1208	0.30672
1209	0.31167
1210	0.31486
1211	0.3183
1212	0.32146
1213	0.32171
1214	0.31834
1215	0.31358
1216	0.30952
1217	0.30555
1218	0.29943
1219	0.29156
1220	0.28466
1221	0.28036
1222	0.27721
1223	0.2732
1224	0.26917
1225	0.26752
1226	0.26897
1227	0.27149
1228	0.27323
1229	0.27521
1230	0.27949
1231	0.28559
1232	0.29048
1233	0.29244
1234	0.29324
1235	0.29526
1236	0.29803
1237	0.2993
1238	0.29905
1239	0.2996
1240	0.3023
1241	0.30548
1242	0.30686
1243	0.30704
1244	0.30856
1245	0.31243
1246	0.31596
1247	0.31708
1248	0.31681
1249	0.31713
1250	0.31769
1251	0.31625
1252	0.31244
1253	0.30859
1254	0.30685
1255	0.30649
1256	0.30518
1257	0.30242
1258	0.29995
1259	0.29863
1260	0.29664
1261	0.29205
1262	0.28597
1263	0.28103
1264	0.27786
1265	0.27455
1266	0.26945
1267	0.26385
1268	0.26007
1269	0.258
1270	0.25516
1271	0.25027
1272	0.24507
1273	0.24206
1274	0.24047
1275	0.23774
1276	0.23342
1277	0.22972
1278	0.22825
1279	0.22778
1280	0.22615
1281	0.22374
1282	0.22283
1283	0.22446
1284	0.227
1285	0.22895
1286	0.23105
1287	0.23492
1288	0.2403
1289	0.24515
1290	0.24851
1291	0.25192
1292	0.25716
1293	0.26359
1294	0.26913
1295	0.27324
1296	0.27745
1297	0.28295
1298	0.2883
1299	0.29151
1300	0.29305
1301	0.2953
1302	0.2987
1303	0.30105
1304	0.3005
1305	0.29774
1306	0.29516
1307	0.29351
1308	0.29155
1309	0.28866
1310	0.28636
1311	0.28629
1312	0.28808
1313	0.29025
1314	0.2928
1315	0.29722
1316	0.30428
1317	0.31297
1318	0.32177
1319	0.33077
1320	0.34116
1321	0.35317
1322	0.36525
1323	0.37595
1324	0.38585
1325	0.39621
1326	0.40672
1327	0.41504
1328	0.42023
1329	0.42344
1330	0.42582
1331	0.42684
1332	0.42509
1333	0.42072
1334	0.41538
1335	0.41032
1336	0.40472
1337	0.3979
1338	0.3909
1339	0.38441
1340	0.37821
1341	0.37231
1342	0.36673
1343	0.36124
1344	0.35622
1345	0.35171
1346	0.34662
1347	0.34085
1348	0.33561
1349	0.33147
1350	0.32753
1351	0.32279
1352	0.31718
1353	0.31213
1354	0.30839
1355	0.30481
1356	0.30108
1357	0.29832
1358	0.29766
1359	0.29936
1360	0.30223
1361	0.30522
1362	0.3086
1363	0.31284
1364	0.31736
1365	0.32091
1366	0.32323
1367	0.32542
1368	0.32842
1369	0.33202
1370	0.3357
1371	0.3398
1372	0.34502
1373	0.35087
1374	0.35526
1375	0.35654
1376	0.3564
1377	0.35648
1378	0.35623
1379	0.35499
1380	0.35315
1381	0.35219
1382	0.35315
1383	0.35546
1384	0.35819
1385	0.3613
1386	0.36495
1387	0.36806
1388	0.36988
1389	0.37087
1390	0.37152
1391	0.37255
1392	0.37478
1393	0.37757
1394	0.37902
1395	0.37897
1396	0.38006
1397	0.38303
1398	0.38552
1399	0.386
1400	0.3865
1401	0.38833
1402	0.39011
1403	0.39051
1404	0.38882
1405	0.38468
1406	0.38123
1407	0.37971
1408	0.37776
1409	0.37525
1410	0.37304
1411	0.37043
1412	0.36564
1413	0.35859
1414	0.35111
1415	0.34477
1416	0.33956
1417	0.33471
1418	0.3294
1419	0.32123
1420	0.31276
1421	0.30913
1422	0.30757
1423	0.30451
1424	0.29972
1425	0.29603
1426	0.2941
1427	0.29206
1428	0.28976
1429	0.28757
1430	0.28483
1431	0.28241
1432	0.28046
1433	0.27833
1434	0.27747
1435	0.27897
1436	0.27881
1437	0.27372
1438	0.27183
1439	0.27393
1440	0.27594
1441	0.27707
1442	0.27776
1443	0.27876
1444	0.28028
1445	0.28165
1446	0.28243
1447	0.28229
1448	0.28127
1449	0.28101
1450	0.28158
1451	0.28075
1452	0.27796
1453	0.27568
1454	0.27543
1455	0.27615
1456	0.27566
1457	0.27185
1458	0.26738
1459	0.26472
1460	0.2633
1461	0.2622
1462	0.26104
1463	0.26034
1464	0.2582
1465	0.25069
1466	0.24277
1467	0.23896
1468	0.23562
1469	0.23187
1470	0.22886
1471	0.22641
1472	0.22156
1473	0.21346
1474	0.20792
1475	0.20639
1476	0.20465
1477	0.20311
1478	0.20395
1479	0.20617
1480	0.20822
1481	0.20908
1482	0.20835
1483	0.20646
1484	0.20342
1485	0.19988
1486	0.19593
1487	0.18967
1488	0.18284
1489	0.17804
1490	0.1694
1491	0.15926
1492	0.15525
1493	0.15341
1494	0.15221
1495	0.15158
1496	0.1498
1497	0.14746
1498	0.14638
1499	0.14479
1500	0.1439
1501	0.1446
1502	0.1454
1503	0.14683
1504	0.14996
1505	0.15443
1506	0.15744
1507	0.15516
1508	0.15335
1509	0.15431
1510	0.15673
1511	0.15948
1512	0.16125
1513	0.16314
1514	0.16693
1515	0.17194
1516	0.17643
1517	0.17768
1518	0.17947
1519	0.18488
1520	0.19082
1521	0.19491
1522	0.19672
1523	0.20049
1524	0.20574
1525	0.20992
1526	0.21275
1527	0.21485
1528	0.21611
1529	0.21709
1530	0.21851
1531	0.21993
1532	0.22086
1533	0.21951
1534	0.21561
1535	0.2137
1536	0.21432
1537	0.21648
1538	0.21979
1539	0.22045
1540	0.21368
1541	0.21023
1542	0.20781
1543	0.20608
1544	0.20518
1545	0.20036
1546	0.19509
1547	0.19408
1548	0.19479
1549	0.19417
1550	0.19031
1551	0.18674
1552	0.18736
1553	0.18911
1554	0.18796
1555	0.18543
1556	0.18674
1557	0.19106
1558	0.19401
1559	0.18586
1560	0.17598
1561	0.1749
1562	0.17686
1563	0.17763
1564	0.17569
1565	0.17037
1566	0.16592
1567	0.16489
1568	0.16532
1569	0.1621
1570	0.15252
1571	0.1488
1572	0.14884
1573	0.14856
1574	0.14895
1575	0.14986
1576	0.14756
1577	0.143
1578	0.14278
1579	0.14428
1580	0.1461
1581	0.14861
1582	0.15149
1583	0.15447
1584	0.1579
1585	0.1621
1586	0.16675
1587	0.17106
1588	0.17487
1589	0.17862
1590	0.18279
1591	0.18716
1592	0.19121
1593	0.1949
1594	0.19846
1595	0.20195
1596	0.205
1597	0.20747
1598	0.20952
1599	0.21185
1600	0.21443
1601	0.21665
1602	0.21835
1603	0.21975
1604	0.22152
1605	0.22401
1606	0.22653
1607	0.22853
1608	0.23058
1609	0.233
1610	0.23536
1611	0.23752
1612	0.23958
1613	0.24203
1614	0.24567
1615	0.25012
1616	0.25226
1617	0.25019
1618	0.25028
1619	0.25277
1620	0.25504
1621	0.25749
1622	0.26047
1623	0.262
1624	0.26188
1625	0.26414
1626	0.26773
1627	0.27069
1628	0.27261
1629	0.27484
1630	0.27744
1631	0.2797
1632	0.28216
1633	0.28572
1634	0.2895
1635	0.28984
1636	0.28675
1637	0.28588
1638	0.28702
1639	0.28807
1640	0.28863
1641	0.28883
1642	0.28925
1643	0.29023
1644	0.29206
1645	0.29409
1646	0.29462
1647	0.29288
1648	0.29132
1649	0.29282
1650	0.29768
1651	0.30441
1652	0.31144
1653	0.31544
1654	0.31415
1655	0.31628
1656	0.31814
1657	0.31822
1658	0.31687
1659	0.31562
1660	0.31608
1661	0.31858
1662	0.32085
1663	0.32104
1664	0.32156
1665	0.32424
1666	0.32827
1667	0.3331
1668	0.33719
1669	0.33858
1670	0.3395
1671	0.34131
1672	0.343
1673	0.34564
1674	0.34843
1675	0.34796
1676	0.34636
1677	0.34816
1678	0.35027
1679	0.35131
1680	0.35106
1681	0.35124
1682	0.35383
1683	0.35615
1684	0.35079
1685	0.33873
1686	0.33776
1687	0.33873
1688	0.33688
1689	0.33318
1690	0.32934
1691	0.32594
1692	0.32322
1693	0.3218
1694	0.32227
1695	0.32188
1696	0.31579
1697	0.31185
1698	0.31391
1699	0.31689
1700	0.31015
1701	0.29842
1702	0.29891
1703	0.30151
1704	0.30249
1705	0.30274
1706	0.30256
1707	0.30277
1708	0.30633
1709	0.31209
1710	0.31814
1711	0.32436
1712	0.33154
1713	0.34013
1714	0.34974
1715	0.35998
1716	0.36955
1717	0.37615
1718	0.37869
1719	0.38049
1720	0.3839
1721	0.38736
1722	0.39043
1723	0.39282
1724	0.39405
1725	0.39431
1726	0.39378
1727	0.3933
1728	0.3941
1729	0.395
1730	0.39367
1731	0.39327
1732	0.39659
1733	0.39988
1734	0.39519
1735	0.38776
1736	0.38901
1737	0.39153
1738	0.39339
1739	0.39318
1740	0.38965
1741	0.38771
1742	0.38904
1743	0.38886
1744	0.38677
1745	0.38584
1746	0.3865
1747	0.38725
1748	0.38666
1749	0.38524
1750	0.38422
1751	0.38181
1752	0.37944
1753	0.3797
1754	0.38099
1755	0.38269
1756	0.38392
1757	0.38346
1758	0.38349
1759	0.38539
1760	0.38842
1761	0.39055
1762	0.38986
1763	0.38975
1764	0.39155
1765	0.39397
1766	0.39736
1767	0.40121
1768	0.40435
1769	0.40803
1770	0.41257
1771	0.41423
1772	0.40819
1773	0.39903
1774	0.39591
1775	0.39689
1776	0.39865
1777	0.40159
1778	0.40586
1779	0.41089
1780	0.41565
1781	0.41955
1782	0.4231
1783	0.42655
1784	0.42865
1785	0.4284
1786	0.427
1787	0.42504
1788	0.42214
1789	0.41934
1790	0.41668
1791	0.41208
1792	0.40287
1793	0.39049
1794	0.38245
1795	0.37666
1796	0.36766
1797	0.35754
1798	0.34963
1799	0.34111
1800	0.3301
1801	0.31885
1802	0.30738
1803	0.29606
1804	0.28652
1805	0.27739
1806	0.26763
1807	0.25757
1808	0.24797
1809	0.24012
1810	0.23193
1811	0.22119
1812	0.21147
1813	0.20441
1814	0.19831
1815	0.19222
1816	0.18607
1817	0.18008
1818	0.17469
1819	0.17014
1820	0.16584
1821	0.1616
1822	0.15808
1823	0.15571
1824	0.15346
1825	0.14884
1826	0.14363
1827	0.14173
1828	0.14195
1829	0.14013
1830	0.1344
1831	0.1298
1832	0.12841
1833	0.12737
1834	0.12551
1835	0.12363
1836	0.12197
1837	0.12012
1838	0.11813
1839	0.11637
1840	0.11481
1841	0.11394
1842	0.11445
1843	0.11494
1844	0.11158
1845	0.10648
1846	0.10577
1847	0.10592
1848	0.10438
1849	0.10243
1850	0.10127
1851	0.10061
1852	0.09995
1853	0.09895
1854	0.09766
1855	0.0966
1856	0.096
1857	0.09554
1858	0.09469
1859	0.09355
1860	0.09275
1861	0.09231
1862	0.09172
1863	0.09083
1864	0.09018
1865	0.09038
1866	0.09113
1867	0.09167
1868	0.09094
1869	0.08808
1870	0.08571
1871	0.08553
1872	0.08557
1873	0.08499
1874	0.08429
1875	0.08398
1876	0.08374
1877	0.08323
1878	0.08255
1879	0.08197
1880	0.0816
1881	0.08124
1882	0.08073
1883	0.08027
1884	0.07991
1885	0.07948
1886	0.07896
1887	0.07872
1888	0.07889
1889	0.07824
1890	0.07651
1891	0.07548
1892	0.07517
1893	0.07519
1894	0.07541
1895	0.07465
1896	0.07329
1897	0.07258
1898	0.07238
1899	0.07231
1900	0.072
1901	0.07136
1902	0.07071
1903	0.07043
1904	0.07029
1905	0.06995
1906	0.06951
1907	0.06921
1908	0.06917
1909	0.06897
1910	0.06807
1911	0.06707
1912	0.06672
1913	0.06674
1914	0.06655
1915	0.06628
1916	0.06654
1917	0.06671
1918	0.06539
1919	0.0641
1920	0.06427
1921	0.06497
1922	0.06521
1923	0.06418
1924	0.06312
1925	0.06281
1926	0.06266
1927	0.0626
1928	0.06268
1929	0.06243
1930	0.06193
1931	0.06169
1932	0.06182
1933	0.06187
1934	0.06153
1935	0.06109
1936	0.06091
1937	0.06098
1938	0.06093
1939	0.06062
1940	0.06069
1941	0.06139
1942	0.06121
1943	0.05979
1944	0.05914
1945	0.0592
1946	0.05912
1947	0.05904
1948	0.05882
1949	0.05844
1950	0.0582
1951	0.05825
1952	0.05836
1953	0.05817
1954	0.0578
1955	0.05753
1956	0.05752
1957	0.05751
1958	0.0572
1959	0.05683
1960	0.05673
1961	0.05674
1962	0.05654
1963	0.05618
1964	0.05607
1965	0.05652
1966	0.05691
1967	0.05634
1968	0.0553
1969	0.05491
1970	0.05508
1971	0.05525
1972	0.05499
1973	0.05455
1974	0.05434
1975	0.05444
1976	0.05451
1977	0.05427
1978	0.0538
1979	0.0536
1980	0.05364
1981	0.05358
1982	0.05322
1983	0.05278
1984	0.05267
1985	0.05278
1986	0.05287
1987	0.05271
1988	0.05229
1989	0.05212
1990	0.0526
1991	0.0528
1992	0.05184
1993	0.05092
1994	0.05092
1995	0.05114
1996	0.05103
1997	0.05077
1998	0.05066
1999	0.05065
2000	0.05051
2001	0.05019
2002	0.04989
2003	0.04984
2004	0.04994
2005	0.04979
2006	0.04957
2007	0.04945
2008	0.04952
2009	0.04953
2010	0.04941
2011	0.04917
2012	0.04905
2013	0.04919
2014	0.04946
2015	0.04965
2016	0.04959
2017	0.04927
2018	0.04909
2019	0.04912
2020	0.04915
2021	0.04917
2022	0.04924
2023	0.04934
2024	0.04946
2025	0.04948
2026	0.04951
2027	0.04961
2028	0.04986
2029	0.04995
2030	0.04995
2031	0.05003
2032	0.05018
2033	0.05028
2034	0.05024
2035	0.05021
2036	0.05027
2037	0.05037
2038	0.05045
2039	0.05059
2040	0.05082
2041	0.05092
2042	0.05088
2043	0.05083
2044	0.05077
2045	0.05075
2046	0.05084
2047	0.05092
2048	0.05089
2049	0.05084
2050	0.05086
2051	0.05089
2052	0.0509
2053	0.05077
2054	0.05066
2055	0.05068
2056	0.05072
2057	0.05072
2058	0.05064
2059	0.05061
2060	0.05061
2061	0.0506
2062	0.05057
2063	0.05057
2064	0.05049
2065	0.05016
2066	0.04984
2067	0.04973
2068	0.04963
2069	0.04962
2070	0.04968
2071	0.0496
2072	0.04937
2073	0.04913
2074	0.04902
2075	0.049
2076	0.04903
2077	0.04893
2078	0.04875
2079	0.04862
2080	0.0486
2081	0.04854
2082	0.04843
2083	0.04839
2084	0.04831
2085	0.04831
2086	0.04827
2087	0.04819
2088	0.04813
2089	0.04809
2090	0.04783
2091	0.04754
2092	0.04741
2093	0.04731
2094	0.04715
2095	0.04699
2096	0.04688
2097	0.04674
2098	0.04657
2099	0.04636
2100	0.0462
2101	0.04609
2102	0.04598
2103	0.04581
2104	0.0457
2105	0.04569
2106	0.0456
2107	0.04539
2108	0.04516
2109	0.04504
2110	0.04496
2111	0.04485
2112	0.04474
2113	0.04474
2114	0.04481
2115	0.04474
2116	0.04456
2117	0.04438
2118	0.04427
2119	0.04417
2120	0.04408
2121	0.04395
2122	0.0438
2123	0.04367
2124	0.04355
2125	0.04348
2126	0.04342
2127	0.0433
2128	0.04315
2129	0.04305
2130	0.04302
2131	0.043
2132	0.0429
2133	0.04282
2134	0.04284
2135	0.04287
2136	0.04271
2137	0.04241
2138	0.04222
2139	0.04218
2140	0.04218
2141	0.04206
2142	0.04193
2143	0.04194
2144	0.04199
2145	0.04191
2146	0.0417
2147	0.04159
2148	0.0416
2149	0.04172
2150	0.04173
2151	0.04155
2152	0.04136
2153	0.04137
2154	0.04146
2155	0.04138
2156	0.04109
2157	0.0409
2158	0.0409
2159	0.04091
2160	0.04067
2161	0.0403
2162	0.04006
2163	0.04
2164	0.04003
2165	0.03981
2166	0.0394
2167	0.03924
2168	0.0393
2169	0.03922
2170	0.03889
2171	0.0385
2172	0.03841
2173	0.03844
2174	0.03828
2175	0.0379
2176	0.03755
2177	0.03749
2178	0.03757
2179	0.03742
2180	0.03698
2181	0.03662
2182	0.03658
2183	0.03655
2184	0.03627
2185	0.03587
2186	0.03571
2187	0.03575
2188	0.0357
2189	0.03537
2190	0.03489
2191	0.03464
2192	0.03463
2193	0.03447
2194	0.03406
2195	0.03375
2196	0.03369
2197	0.03365
2198	0.03342
2199	0.03306
2200	0.03281
2201	0.03273
2202	0.03263
2203	0.03236
2204	0.03197
2205	0.03177
2206	0.03177
2207	0.03169
2208	0.03133
2209	0.03086
2210	0.03067
2211	0.03068
2212	0.03061
2213	0.03033
2214	0.03014
2215	0.03017
2216	0.03025
2217	0.03012
2218	0.02983
2219	0.02953
2220	0.02953
2221	0.02963
2222	0.02948
2223	0.02909
2224	0.02888
2225	0.02893
2226	0.02899
2227	0.02882
2228	0.02858
2229	0.02856
2230	0.02867
2231	0.02859
2232	0.0283
2233	0.02801
2234	0.02796
2235	0.028
2236	0.02779
2237	0.02745
2238	0.02729
2239	0.02732
2240	0.02728
2241	0.02691
2242	0.02652
2243	0.0264
2244	0.02646
2245	0.02639
2246	0.02606
2247	0.02584
2248	0.02585
2249	0.02594
2250	0.02581
2251	0.02554
2252	0.02526
2253	0.02515
2254	0.02514
2255	0.02495
2256	0.02465
2257	0.02448
2258	0.02452
2259	0.0245
2260	0.02423
2261	0.02388
2262	0.02374
2263	0.0238
2264	0.02376
2265	0.02343
2266	0.02309
2267	0.02303
2268	0.02312
2269	0.023
2270	0.02255
2271	0.02215
2272	0.02214
2273	0.02224
2274	0.022
2275	0.02151
2276	0.02127
2277	0.02133
2278	0.02131
2279	0.02103
2280	0.02061
2281	0.02042
2282	0.02047
2283	0.0205
2284	0.02034
2285	0.02011
2286	0.0201
2287	0.0203
2288	0.02034
2289	0.02008
2290	0.01984
2291	0.01992
2292	0.02018
2293	0.02015
2294	0.01982
2295	0.01967
2296	0.01989
2297	0.02014
2298	0.02006
2299	0.01976
2300	0.01973
2301	0.02013
2302	0.02035
2303	0.0201
2304	0.01988
2305	0.02008
2306	0.02056
2307	0.02078
2308	0.02064
2309	0.02058
2310	0.02081
2311	0.02105
2312	0.02102
2313	0.02082
2314	0.0208
2315	0.02115
2316	0.02158
2317	0.02174
2318	0.02169
2319	0.02178
2320	0.02209
2321	0.02228
2322	0.02227
2323	0.02194
2324	0.02171
2325	0.02227
2326	0.02311
2327	0.0231
2328	0.02258
2329	0.02262
2330	0.02294
2331	0.02281
2332	0.02248
2333	0.02267
2334	0.02355
2335	0.02443
2336	0.02435
2337	0.02371
2338	0.0237
2339	0.02414
2340	0.02433
2341	0.02413
2342	0.02362
2343	0.02289
2344	0.02203
2345	0.02082
2346	0.01916
2347	0.01822
2348	0.01962
2349	0.02256
2350	0.02478
2351	0.02524
2352	0.02497
2353	0.02507
2354	0.02529
2355	0.02507
2356	0.02477
2357	0.02479
2358	0.02481
2359	0.0245
2360	0.02388
2361	0.02332
2362	0.02301
2363	0.02288
2364	0.02284
2365	0.02269
2366	0.02223
2367	0.02168
2368	0.02121
2369	0.02071
2370	0.02021
2371	0.01985
2372	0.01966
2373	0.0195
2374	0.01912
2375	0.01845
2376	0.01791
2377	0.01776
2378	0.01775
2379	0.01761
2380	0.01726
2381	0.01717
2382	0.01724
2383	0.01727
2384	0.01714
2385	0.01695
2386	0.01697
2387	0.01712
2388	0.0172
2389	0.01703
2390	0.01686
2391	0.01691
2392	0.01708
2393	0.01706
2394	0.01685
2395	0.01667
2396	0.01677
2397	0.01696
2398	0.01695
2399	0.01677
2400	0.01676
2401	0.01701
2402	0.01726
2403	0.01722
2404	0.01705
2405	0.01705
2406	0.01722
2407	0.01744
2408	0.01749
2409	0.01746
2410	0.01746
2411	0.01754
2412	0.01758
2413	0.01743
2414	0.01733
2415	0.0175
2416	0.0178
2417	0.01791
2418	0.01782
2419	0.01775
2420	0.01784
2421	0.01805
2422	0.01811
2423	0.01807
2424	0.01813
2425	0.01831
2426	0.01846
2427	0.01852
2428	0.01858
2429	0.01878
2430	0.01903
2431	0.01915
2432	0.01908
2433	0.01908
2434	0.01933
2435	0.01958
2436	0.01963
2437	0.01954
2438	0.01965
2439	0.01994
2440	0.02029
2441	0.02041
2442	0.02037
2443	0.02044
2444	0.02072
2445	0.02101
2446	0.0211
2447	0.02109
2448	0.02119
2449	0.02141
2450	0.02159
2451	0.02164
2452	0.02168
2453	0.02193
2454	0.02228
2455	0.02248
2456	0.0225
2457	0.02259
2458	0.0228
2459	0.02308
2460	0.02329
2461	0.02335
2462	0.02337
2463	0.02352
2464	0.0236
2465	0.02353
2466	0.02342
2467	0.02354
2468	0.02381
2469	0.02398
2470	0.0239
2471	0.02381
2472	0.02395
2473	0.02425
2474	0.02439
2475	0.02424
2476	0.02412
2477	0.02422
2478	0.02442
2479	0.02451
2480	0.02453
2481	0.02459
2482	0.02473
2483	0.02486
2484	0.02484
2485	0.02465
2486	0.0246
2487	0.0248
2488	0.02504
2489	0.02503
2490	0.02493
2491	0.02494
2492	0.02509
2493	0.02509
2494	0.02494
2495	0.02481
2496	0.02493
2497	0.02513
2498	0.02516
2499	0.02504
2500	0.02497
2501	0.02508
2502	0.02523
2503	0.02519
2504	0.02499
2505	0.02494
2506	0.02513
2507	0.02532
2508	0.02524
2509	0.02503
2510	0.02506
2511	0.02534
2512	0.02556
2513	0.02553
2514	0.02538
2515	0.02551
2516	0.02573
2517	0.02584
2518	0.02585
2519	0.02594
2520	0.02622
2521	0.02655
2522	0.02656
2523	0.0263
2524	0.02611
2525	0.02621
2526	0.02645
2527	0.02656
2528	0.02654
2529	0.02665
2530	0.02697
2531	0.02722
2532	0.02718
2533	0.02708
2534	0.02721
2535	0.02757
2536	0.02786
2537	0.02795
2538	0.02799
2539	0.02815
2540	0.02837
2541	0.02836
2542	0.02826
2543	0.02832
2544	0.02858
2545	0.02888
2546	0.02906
2547	0.02918
2548	0.02931
2549	0.02953
2550	0.02972
2551	0.02975
2552	0.02977
2553	0.02989
2554	0.03015
2555	0.03038
2556	0.03042
2557	0.0304
2558	0.03048
2559	0.03063
2560	0.03072
2561	0.03071
2562	0.0307
2563	0.03082
2564	0.03101
2565	0.03106
2566	0.03103
2567	0.03112
2568	0.03136
2569	0.03159
2570	0.03157
2571	0.03146
2572	0.03154
2573	0.03177
2574	0.03194
2575	0.03193
2576	0.03191
2577	0.03201
2578	0.03219
2579	0.03228
2580	0.03218
2581	0.03211
2582	0.03229
2583	0.03258
2584	0.03267
2585	0.03261
2586	0.03269
2587	0.03293
2588	0.03303
2589	0.03296
2590	0.03295
2591	0.03304
2592	0.03321
2593	0.03337
2594	0.03339
2595	0.03336
2596	0.03346
2597	0.03368
2598	0.03379
2599	0.03369
2600	0.03371
2601	0.03397
2602	0.03416
2603	0.03415
2604	0.0341
2605	0.03422
2606	0.03446
2607	0.03466
2608	0.03467
2609	0.03461
2610	0.03478
2611	0.03516
2612	0.03546
2613	0.03555
2614	0.03565
2615	0.03598
2616	0.03637
2617	0.03657
2618	0.0366
2619	0.03672
2620	0.03702
2621	0.03733
2622	0.03747
2623	0.03755
2624	0.0378
2625	0.03835
2626	0.03887
2627	0.03912
2628	0.03917
2629	0.03937
2630	0.03987
2631	0.04037
2632	0.04072
2633	0.04102
2634	0.04147
2635	0.04203
2636	0.04246
2637	0.04276
2638	0.043
2639	0.04334
2640	0.04374
2641	0.04398
2642	0.04404
2643	0.04414
2644	0.04437
2645	0.04469
2646	0.04494
2647	0.04511
2648	0.04539
2649	0.04579
2650	0.0462
2651	0.04651
2652	0.04667
2653	0.04694
2654	0.04743
2655	0.04782
2656	0.04796
2657	0.04812
2658	0.0485
2659	0.04902
2660	0.04944
2661	0.04966
2662	0.04985
2663	0.0503
2664	0.05084
2665	0.05115
2666	0.05127
2667	0.0515
2668	0.05197
2669	0.05238
2670	0.05255
2671	0.0526
2672	0.05286
2673	0.05334
2674	0.05369
2675	0.05381
2676	0.05401
2677	0.05447
2678	0.05497
2679	0.05531
2680	0.05558
2681	0.05575
2682	0.0558
2683	0.05598
2684	0.05627
2685	0.05648
2686	0.05671
2687	0.0571
2688	0.0576
2689	0.05796
2690	0.05818
2691	0.0584
2692	0.0588
2693	0.0593
2694	0.05963
2695	0.05979
2696	0.06004
2697	0.0606
2698	0.06131
2699	0.06178
2700	0.06199
2701	0.06223
2702	0.06262
2703	0.06291
2704	0.06307
2705	0.06322
2706	0.06348
2707	0.06386
2708	0.06428
2709	0.06469
2710	0.06503
2711	0.06537
2712	0.06573
2713	0.06601
2714	0.0662
2715	0.06644
2716	0.06682
2717	0.06726
2718	0.06764
2719	0.06794
2720	0.0683
2721	0.06888
2722	0.06947
2723	0.06977
2724	0.06997
2725	0.0704
2726	0.07096
2727	0.07127
2728	0.07135
2729	0.07142
2730	0.07166
2731	0.07206
2732	0.07247
2733	0.07271
2734	0.07286
2735	0.07315
2736	0.07368
2737	0.07421
2738	0.07443
2739	0.07447
2740	0.07454
2741	0.07476
2742	0.07504
2743	0.07524
2744	0.0754
2745	0.07559
2746	0.07598
2747	0.07649
2748	0.07674
2749	0.0768
2750	0.07706
2751	0.07734
2752	0.07744
2753	0.07748
2754	0.07757
2755	0.0778
2756	0.0781
2757	0.0784
2758	0.07867
2759	0.07894
2760	0.07924
2761	0.0795
2762	0.07954
2763	0.07963
2764	0.07996
2765	0.08043
2766	0.08079
2767	0.08102
2768	0.08116
2769	0.08144
2770	0.08185
2771	0.08233
2772	0.08277
2773	0.08327
2774	0.08391
2775	0.08447
2776	0.08469
2777	0.08469
2778	0.08486
2779	0.08529
2780	0.08581
2781	0.08623
2782	0.08661
2783	0.08708
2784	0.08763
2785	0.08807
2786	0.08841
2787	0.08886
2788	0.08962
2789	0.09035
2790	0.09079
2791	0.09105
2792	0.0913
2793	0.09166
2794	0.09216
2795	0.09278
2796	0.09336
2797	0.09405
2798	0.09487
2799	0.09537
2800	0.09547
2801	0.09562
2802	0.0961
2803	0.0968
2804	0.09754
2805	0.09823
2806	0.09899
2807	0.09992
2808	0.10104
2809	0.1023
2810	0.10352
2811	0.10448
2812	0.10535
2813	0.10639
2814	0.10753
2815	0.10855
2816	0.10973
2817	0.11106
2818	0.11236
2819	0.1135
2820	0.11449
2821	0.1155
2822	0.11662
2823	0.1176
2824	0.11833
2825	0.11892
2826	0.11952
2827	0.12007
2828	0.12045
2829	0.12076
2830	0.12118
2831	0.12178
2832	0.12238
2833	0.12289
2834	0.12347
2835	0.12413
2836	0.12481
2837	0.12576
2838	0.12681
2839	0.12767
2840	0.12851
2841	0.12948
2842	0.13073
2843	0.1321
2844	0.13368
2845	0.13567
2846	0.13808
2847	0.14085
2848	0.14358
2849	0.14607
2850	0.14838
2851	0.15049
2852	0.15221
2853	0.15356
2854	0.15467
2855	0.15556
2856	0.15623
2857	0.15661
2858	0.15684
2859	0.15714
2860	0.15745
2861	0.15752
2862	0.15743
2863	0.15769
2864	0.1584
2865	0.15939
2866	0.16057
2867	0.16182
2868	0.1631
2869	0.16477
2870	0.16693
2871	0.16919
2872	0.17137
2873	0.17346
2874	0.17555
2875	0.17743
2876	0.179
2877	0.18042
2878	0.182
2879	0.18386
2880	0.18577
2881	0.18743
2882	0.189
2883	0.19076
2884	0.19276
2885	0.19484
2886	0.19682
2887	0.19878
2888	0.20093
2889	0.2033
2890	0.20563
2891	0.20779
2892	0.21
2893	0.21263
2894	0.21559
2895	0.21861
2896	0.22103
2897	0.2228
2898	0.22438
2899	0.22629
2900	0.22831
2901	0.23023
2902	0.2321
2903	0.23397
2904	0.23554
2905	0.23674
2906	0.23787
2907	0.23946
2908	0.24161
2909	0.24412
2910	0.24688
2911	0.25013
2912	0.25428
2913	0.2594
2914	0.26512
2915	0.27132
2916	0.27803
2917	0.28505
2918	0.29161
2919	0.29709
2920	0.3013
2921	0.30487
2922	0.30821
2923	0.31124
2924	0.31391
2925	0.31634
2926	0.31893
2927	0.32151
2928	0.32327
2929	0.32337
2930	0.32164
2931	0.31871
2932	0.31541
2933	0.3122
2934	0.3091
2935	0.30633
2936	0.30417
2937	0.30249
2938	0.30078
2939	0.29855
2940	0.29561
2941	0.29195
2942	0.28769
2943	0.28302
2944	0.27794
2945	0.27272
2946	0.26788
2947	0.26328
2948	0.25853
2949	0.2537
2950	0.24916
2951	0.24509
2952	0.24141
2953	0.23753
2954	0.23361
2955	0.23028
2956	0.22747
2957	0.22463
2958	0.22133
2959	0.21764
2960	0.2137
2961	0.20974
2962	0.20587
2963	0.20211
2964	0.19865
2965	0.19566
2966	0.19298
2967	0.19044
2968	0.18796
2969	0.18561
2970	0.18358
2971	0.18182
2972	0.18003
2973	0.17821
2974	0.17669
2975	0.17535
2976	0.17399
2977	0.17267
2978	0.17167
2979	0.17108
2980	0.17069
2981	0.17011
2982	0.1692
2983	0.16816
2984	0.16732
2985	0.16701
2986	0.16692
2987	0.1668
2988	0.16677
2989	0.16694
2990	0.16728
2991	0.1677
2992	0.16807
2993	0.16824
2994	0.16822
2995	0.16815
2996	0.16828
2997	0.16856
2998	0.16869
2999	0.16853
3000	0.16811
3001	0.16756
3002	0.16716
3003	0.16721
3004	0.16728
3005	0.16724
3006	0.16719
3007	0.16745
3008	0.16797
3009	0.16863
3010	0.16922
3011	0.16973
3012	0.17021
3013	0.1708
3014	0.17142
3015	0.17173
3016	0.17182
3017	0.17213
3018	0.17275
3019	0.17337
3020	0.17381
3021	0.17428
3022	0.17498
3023	0.17601
3024	0.17706
3025	0.1778
3026	0.17823
3027	0.17877
3028	0.17959
3029	0.18087
3030	0.18212
3031	0.18308
3032	0.18404
3033	0.18528
3034	0.18641
3035	0.18713
3036	0.18774
3037	0.1886
3038	0.18972
3039	0.19089
3040	0.19208
3041	0.19329
3042	0.19441
3043	0.19524
3044	0.19583
3045	0.19644
3046	0.19718
3047	0.19791
3048	0.1985
3049	0.19922
3050	0.20021
3051	0.20119
3052	0.2019
3053	0.20264
3054	0.20374
3055	0.20478
3056	0.20546
3057	0.20607
3058	0.20671
3059	0.20731
3060	0.2079
3061	0.20876
3062	0.20985
3063	0.21087
3064	0.21169
3065	0.2126
3066	0.21382
3067	0.21481
3068	0.21539
3069	0.21582
3070	0.21639
3071	0.21714
3072	0.2179
3073	0.21868
3074	0.21958
3075	0.22064
3076	0.22185
3077	0.22299
3078	0.22403
3079	0.22508
3080	0.22617
3081	0.22711
3082	0.22783
3083	0.22871
3084	0.22986
3085	0.231
3086	0.23194
3087	0.23287
3088	0.23402
3089	0.23534
3090	0.23682
3091	0.23814
3092	0.23928
3093	0.24051
3094	0.24188
3095	0.24324
3096	0.24455
3097	0.24606
3098	0.24787
3099	0.2498
3100	0.2515
3101	0.25284
3102	0.25405
3103	0.25538
3104	0.25699
3105	0.25883
3106	0.26089
3107	0.26309
3108	0.26545
3109	0.2676
3110	0.26942
3111	0.27113
3112	0.27312
3113	0.27558
3114	0.27821
3115	0.28059
3116	0.28257
3117	0.28467
3118	0.28682
3119	0.2888
3120	0.29088
3121	0.29298
3122	0.29481
3123	0.29639
3124	0.29819
3125	0.30022
3126	0.3022
3127	0.30417
3128	0.30633
3129	0.30862
3130	0.31097
3131	0.3133
3132	0.31542
3133	0.31724
3134	0.31907
3135	0.32135
3136	0.3238
3137	0.32629
3138	0.32869
3139	0.33103
3140	0.33318
3141	0.33518
3142	0.33705
3143	0.33912
3144	0.3414
3145	0.34374
3146	0.34619
3147	0.3486
3148	0.35098
3149	0.35342
3150	0.35596
3151	0.35854
3152	0.36104
3153	0.36344
3154	0.36588
3155	0.36838
3156	0.37081
3157	0.37309
3158	0.37538
3159	0.37768
3160	0.38007
3161	0.38246
3162	0.38475
3163	0.38699
3164	0.38932
3165	0.39181
3166	0.39438
3167	0.39702
3168	0.39955
3169	0.40196
3170	0.40436
3171	0.4069
3172	0.40964
3173	0.41241
3174	0.41513
3175	0.41804
3176	0.42108
3177	0.42395
3178	0.42662
3179	0.42937
3180	0.43224
3181	0.43512
3182	0.43791
3183	0.44072
3184	0.44357
3185	0.44633
3186	0.44892
3187	0.45154
3188	0.45422
3189	0.45684
3190	0.45935
3191	0.46178
3192	0.46427
3193	0.46691
3194	0.46956
3195	0.47213
3196	0.47464
3197	0.47696
3198	0.47911
3199	0.48127
3200	0.48359
3201	0.486
3202	0.48849
3203	0.49104
3204	0.49343
3205	0.49566
3206	0.49798
3207	0.50044
3208	0.50283
3209	0.50504
3210	0.50715
3211	0.50944
3212	0.51187
3213	0.51425
3214	0.51646
3215	0.51873
3216	0.52094
3217	0.52317
3218	0.52563
3219	0.52813
3220	0.53027
3221	0.53239
3222	0.53463
3223	0.53706
3224	0.5396
3225	0.54221
3226	0.54478
3227	0.54718
3228	0.5497
3229	0.55241
3230	0.55514
3231	0.5579
3232	0.56077
3233	0.5636
3234	0.56621
3235	0.56855
3236	0.57065
3237	0.57286
3238	0.57544
3239	0.57822
3240	0.58083
3241	0.58336
3242	0.58599
3243	0.58885
3244	0.59166
3245	0.59426
3246	0.59673
3247	0.59933
3248	0.60186
3249	0.60424
3250	0.60643
3251	0.6086
3252	0.61088
3253	0.61324
3254	0.61551
3255	0.61794
3256	0.62029
3257	0.62224
3258	0.62397
3259	0.62578
3260	0.62765
3261	0.62955
3262	0.63142
3263	0.63311
3264	0.63475
3265	0.63651
3266	0.63835
3267	0.64007
3268	0.64168
3269	0.64344
3270	0.64541
3271	0.64741
3272	0.64908
3273	0.65012
3274	0.65096
3275	0.65228
3276	0.65366
3277	0.6548
3278	0.65596
3279	0.65734
3280	0.6588
3281	0.6604
3282	0.66199
3283	0.66337
3284	0.66454
3285	0.66577
3286	0.66719
3287	0.66874
3288	0.67027
3289	0.67178
3290	0.67346
3291	0.67519
3292	0.67664
3293	0.67784
3294	0.67913
3295	0.68055
3296	0.68187
3297	0.68294
3298	0.68393
3299	0.68498
3300	0.68625
3301	0.68775
3302	0.68926
3303	0.6907
3304	0.69212
3305	0.69379
3306	0.69552
3307	0.69713
3308	0.69848
3309	0.69966
3310	0.70094
3311	0.70244
3312	0.70405
3313	0.70555
3314	0.70694
3315	0.70842
3316	0.70997
3317	0.71154
3318	0.71324
3319	0.71511
3320	0.71692
3321	0.71865
3322	0.72038
3323	0.72232
3324	0.72435
3325	0.7264
3326	0.72831
3327	0.72992
3328	0.73151
3329	0.7334
3330	0.73552
3331	0.73779
3332	0.73999
3333	0.7423
3334	0.74454
3335	0.74662
3336	0.74863
3337	0.75085
3338	0.75332
3339	0.75567
3340	0.75764
3341	0.75943
3342	0.76139
3343	0.76351
3344	0.76545
3345	0.76712
3346	0.76876
3347	0.77072
3348	0.77299
3349	0.77528
3350	0.77738
3351	0.77945
3352	0.78147
3353	0.78328
3354	0.78502
3355	0.78687
3356	0.7889
3357	0.79095
3358	0.79308
3359	0.79532
3360	0.7976
3361	0.79974
3362	0.80179
3363	0.80396
3364	0.80625
3365	0.80849
3366	0.81072
3367	0.81271
3368	0.81444
3369	0.81624
3370	0.81809
3371	0.81986
3372	0.82156
3373	0.82324
3374	0.82478
3375	0.82623
3376	0.82789
3377	0.82946
3378	0.83064
3379	0.83173
3380	0.8329
3381	0.83393
3382	0.83485
3383	0.83586
3384	0.83669
3385	0.83738
3386	0.83827
3387	0.83922
3388	0.83996
3389	0.84074
3390	0.84175
3391	0.84269
3392	0.84312
3393	0.84305
3394	0.84318
3395	0.84377
3396	0.84437
3397	0.84465
3398	0.84484
3399	0.84524
3400	0.84582
3401	0.84637
3402	0.84688
3403	0.84723
3404	0.84745
3405	0.84755
3406	0.84759
3407	0.8477
3408	0.84798
3409	0.84832
3410	0.8484
3411	0.84841
3412	0.84865
3413	0.84896
3414	0.84904
3415	0.84895
3416	0.84878
3417	0.84871
3418	0.84865
3419	0.84858
3420	0.84827
3421	0.84783
3422	0.84735
3423	0.84684
3424	0.84648
3425	0.84623
3426	0.8459
3427	0.84555
3428	0.84537
3429	0.84539
3430	0.84519
3431	0.84452
3432	0.84357
3433	0.84268
3434	0.84201
3435	0.84126
3436	0.84026
3437	0.83898
3438	0.83781
3439	0.83675
3440	0.83558
3441	0.83414
3442	0.83246
3443	0.831
3444	0.83017
3445	0.82979
3446	0.82868
3447	0.82628
3448	0.82374
3449	0.82203
3450	0.82038
3451	0.81847
3452	0.8166
3453	0.8148
3454	0.81298
3455	0.8111
3456	0.80913
3457	0.80718
3458	0.80528
3459	0.80348
3460	0.8018
3461	0.79974
3462	0.79722
3463	0.79472
3464	0.79281
3465	0.79117
3466	0.78929
3467	0.78706
3468	0.78485
3469	0.78268
3470	0.78022
3471	0.77749
3472	0.77482
3473	0.77241
3474	0.77002
3475	0.76744
3476	0.76487
3477	0.76259
3478	0.76074
3479	0.75922
3480	0.75748
3481	0.75493
3482	0.75168
3483	0.74878
3484	0.74692
3485	0.74551
3486	0.74391
3487	0.74168
3488	0.73866
3489	0.73579
3490	0.7338
3491	0.73183
3492	0.7296
3493	0.72734
3494	0.72524
3495	0.72291
3496	0.72019
3497	0.71732
3498	0.71465
3499	0.71189
3500	0.70897
3501	0.70637
3502	0.70348
3503	0.69924
3504	0.69427
3505	0.69015
3506	0.68706
3507	0.68452
3508	0.68158
3509	0.67727
3510	0.6726
3511	0.66913
3512	0.66633
3513	0.66328
3514	0.65967
3515	0.65587
3516	0.65246
3517	0.64916
3518	0.64547
3519	0.64145
3520	0.63816
3521	0.63593
3522	0.6335
3523	0.62977
3524	0.62575
3525	0.62244
3526	0.61919
3527	0.61559
3528	0.6119
3529	0.60853
3530	0.60546
3531	0.60259
3532	0.6
3533	0.59762
3534	0.59553
3535	0.59365
3536	0.59112
3537	0.5879
3538	0.58502
3539	0.58259
3540	0.58018
3541	0.57816
3542	0.57675
3543	0.57523
3544	0.57291
3545	0.56958
3546	0.56558
3547	0.56076
3548	0.55641
3549	0.55391
3550	0.55249
3551	0.55028
3552	0.54596
3553	0.54072
3554	0.53671
3555	0.53386
3556	0.53119
3557	0.52824
3558	0.5253
3559	0.52233
3560	0.51893
3561	0.51568
3562	0.51269
3563	0.5098
3564	0.50776
3565	0.50601
3566	0.50195
3567	0.49471
3568	0.48755
3569	0.48414
3570	0.48261
3571	0.47992
3572	0.47673
3573	0.47364
3574	0.46996
3575	0.46607
3576	0.46261
3577	0.459
3578	0.45559
3579	0.45224
3580	0.44843
3581	0.44509
3582	0.4425
3583	0.43967
3584	0.43735
3585	0.43618
3586	0.43359
3587	0.42741
3588	0.41946
3589	0.41348
3590	0.41104
3591	0.4101
3592	0.40804
3593	0.40442
3594	0.40042
3595	0.39608
3596	0.39168
3597	0.38904
3598	0.38669
3599	0.3838
3600	0.38022
3601	0.37551
3602	0.37125
3603	0.36781
3604	0.36509
3605	0.3633
3606	0.36121
3607	0.35752
3608	0.35296
3609	0.34782
3610	0.34419
3611	0.34323
3612	0.34082
3613	0.33599
3614	0.33165
3615	0.32902
3616	0.32794
3617	0.32678
3618	0.32363
3619	0.3186
3620	0.31342
3621	0.31009
3622	0.30775
3623	0.30497
3624	0.30256
3625	0.30091
3626	0.29994
3627	0.29996
3628	0.2976
3629	0.28709
3630	0.2778
3631	0.27833
3632	0.2792
3633	0.27708
3634	0.27258
3635	0.26917
3636	0.26746
3637	0.26527
3638	0.26212
3639	0.2592
3640	0.25708
3641	0.25487
3642	0.2517
3643	0.2485
3644	0.24707
3645	0.24742
3646	0.24756
3647	0.24534
3648	0.24224
3649	0.23978
3650	0.23405
3651	0.22569
3652	0.22217
3653	0.22224
3654	0.22278
3655	0.22184
3656	0.21684
3657	0.21102
3658	0.20981
3659	0.20907
3660	0.20705
3661	0.20452
3662	0.20201
3663	0.1996
3664	0.19741
3665	0.19558
3666	0.19454
3667	0.1944
3668	0.19412
3669	0.19223
3670	0.18661
3671	0.1805
3672	0.18037
3673	0.18392
3674	0.18595
3675	0.18014
3676	0.1689
3677	0.16831
3678	0.17042
3679	0.16904
3680	0.16594
3681	0.16465
3682	0.16441
3683	0.16377
3684	0.16251
3685	0.16171
3686	0.16265
3687	0.16382
3688	0.16199
3689	0.15839
3690	0.15599
3691	0.15202
3692	0.14829
3693	0.14756
3694	0.14744
3695	0.14667
3696	0.14536
3697	0.14385
3698	0.14271
3699	0.14233
3700	0.14241
3701	0.14075
3702	0.13698
3703	0.13538
3704	0.13561
3705	0.13526
3706	0.13471
3707	0.13532
3708	0.13608
3709	0.13518
3710	0.13452
3711	0.13371
3712	0.12843
3713	0.12439
3714	0.12506
3715	0.12539
3716	0.12543
3717	0.12597
3718	0.12569
3719	0.12455
3720	0.12455
3721	0.12505
3722	0.12354
3723	0.12182
3724	0.12195
3725	0.12194
3726	0.12001
3727	0.11734
3728	0.11657
3729	0.11783
3730	0.11998
3731	0.12069
3732	0.11899
3733	0.11947
3734	0.12126
3735	0.11861
3736	0.1139
3737	0.11222
3738	0.11204
3739	0.1127
3740	0.11297
3741	0.11251
3742	0.11384
3743	0.11589
3744	0.1116
3745	0.10363
3746	0.10511
3747	0.11052
3748	0.11252
3749	0.11062
3750	0.10873
3751	0.10764
3752	0.10244
3753	0.09915
3754	0.10144
3755	0.10372
3756	0.10321
3757	0.10253
3758	0.10358
3759	0.10249
3760	0.09868
3761	0.09796
3762	0.09898
3763	0.09972
3764	0.10063
3765	0.09972
3766	0.09694
3767	0.09679
3768	0.09917
3769	0.0993
3770	0.09584
3771	0.09334
3772	0.09372
3773	0.09407
3774	0.09391
3775	0.09377
3776	0.09399
3777	0.09478
3778	0.09544
3779	0.09396
3780	0.09137
3781	0.09082
3782	0.09171
3783	0.09249
3784	0.09211
3785	0.09042
3786	0.08923
3787	0.08878
3788	0.08851
3789	0.08828
3790	0.08805
3791	0.08772
3792	0.08757
3793	0.0878
3794	0.08872
3795	0.08945
3796	0.08818
3797	0.08581
3798	0.08612
3799	0.08886
3800	0.09067
3801	0.08797
3802	0.08255
3803	0.08111
3804	0.08365
3805	0.08661
3806	0.08657
3807	0.0819
3808	0.07929
3809	0.0802
3810	0.08105
3811	0.08123
3812	0.08147
3813	0.08236
3814	0.08447
3815	0.08521
3816	0.08059
3817	0.0781
3818	0.08172
3819	0.08544
3820	0.08629
3821	0.08098
3822	0.07496
3823	0.0761
3824	0.07854
3825	0.07996
3826	0.0795
3827	0.07744
3828	0.07639
3829	0.07753
3830	0.07886
3831	0.07772
3832	0.07574
3833	0.07659
3834	0.07792
3835	0.07821
3836	0.07994
3837	0.08046
3838	0.07743
3839	0.07629
3840	0.07552
3841	0.07388
3842	0.07469
3843	0.07477
3844	0.07239
3845	0.07193
3846	0.073
3847	0.07359
3848	0.0741
3849	0.07493
3850	0.07675
3851	0.07882
3852	0.07934
3853	0.07528
3854	0.06759
3855	0.06609
3856	0.06952
3857	0.07006
3858	0.06958
3859	0.07068
3860	0.07212
3861	0.07186
3862	0.07113
3863	0.07224
3864	0.07222
3865	0.06828
3866	0.06686
3867	0.06997
3868	0.07334
3869	0.07323
3870	0.06701
3871	0.06523
3872	0.06923
3873	0.07127
3874	0.06858
3875	0.06513
3876	0.06547
3877	0.067
3878	0.069
3879	0.07039
3880	0.06846
3881	0.06513
3882	0.06524
3883	0.06749
3884	0.06931
3885	0.0682
3886	0.06428
3887	0.06286
3888	0.06442
3889	0.06667
3890	0.06799
3891	0.06614
3892	0.06329
3893	0.06307
3894	0.06338
3895	0.06341
3896	0.06443
3897	0.06626
3898	0.06702
3899	0.06521
3900	0.0646
3901	0.06552
3902	0.06496
3903	0.06423
3904	0.06311
3905	0.06111
3906	0.0601
3907	0.06036
3908	0.06088
3909	0.06104
3910	0.06097
3911	0.06101
3912	0.06112
3913	0.06113
3914	0.06148
3915	0.06241
3916	0.06247
3917	0.061
3918	0.06053
3919	0.06089
3920	0.06003
3921	0.05968
3922	0.06074
3923	0.06163
3924	0.06096
3925	0.05882
3926	0.05812
3927	0.05912
3928	0.06016
3929	0.06058
3930	0.06087
3931	0.061
3932	0.06008
3933	0.05897
3934	0.05875
3935	0.05879
3936	0.05873
3937	0.05865
3938	0.05841
3939	0.05817
3940	0.05862
3941	0.05951
3942	0.0594
3943	0.05807
3944	0.05737
3945	0.05785
3946	0.05849
3947	0.05847
3948	0.058
3949	0.05757
3950	0.05705
3951	0.05685
3952	0.0568
3953	0.05647
3954	0.05633
3955	0.05654
3956	0.05635
3957	0.05588
3958	0.0557
3959	0.05588
3960	0.05629
3961	0.05632
3962	0.05585
3963	0.05559
3964	0.05564
3965	0.05564
3966	0.05554
3967	0.05541
3968	0.05517
3969	0.05494
3970	0.05495
3971	0.05501
3972	0.05491
3973	0.05479
3974	0.05474
3975	0.0545
3976	0.05431
3977	0.05433
3978	0.05447
3979	0.05443
3980	0.05413
3981	0.05385
3982	0.05381
3983	0.05407
3984	0.05436
3985	0.05425
3986	0.05395
3987	0.05375
3988	0.05377
3989	0.05374
3990	0.05341
3991	0.05304
3992	0.05309
3993	0.05338
3994	0.05343
3995	0.05318
3996	0.05293
3997	0.05295
3998	0.05311
3999	0.05325
4000	0.05327