4000.18193	0.02538
3999.21756	0.02559
3998.2532	0.02561
3997.28884	0.02522
3996.32447	0.02449
3995.36011	0.02388
3994.39574	0.02397
3993.43138	0.02443
3992.46702	0.0244
3991.50265	0.02379
3990.53829	0.02343
3989.57392	0.02407
3988.60956	0.02515
3987.6452	0.02582
3986.68083	0.02601
3985.71647	0.02613
3984.7521	0.02631
3983.78774	0.02621
3982.82338	0.02582
3981.85901	0.02572
3980.89465	0.02608
3979.93028	0.02646
3978.96592	0.02686
3978.00156	0.027
3977.03719	0.02625
3976.07283	0.02521
3975.10846	0.02504
3974.1441	0.02549
3973.17974	0.02575
3972.21537	0.02613
3971.25101	0.02666
3970.28664	0.02658
3969.32228	0.02629
3968.35792	0.02696
3967.39355	0.02811
3966.42919	0.02868
3965.46482	0.02858
3964.50046	0.02819
3963.5361	0.0273
3962.57173	0.02585
3961.60737	0.02548
3960.643	0.02661
3959.67864	0.02749
3958.71428	0.02754
3957.74991	0.02734
3956.78555	0.02753
3955.82118	0.02822
3954.85682	0.02865
3953.89246	0.02843
3952.92809	0.02838
3951.96373	0.02825
3950.99936	0.02646
3950.035	0.02429
3949.07064	0.02383
3948.10627	0.0244
3947.14191	0.02628
3946.17754	0.02875
3945.21318	0.02933
3944.24882	0.02716
3943.28445	0.02426
3942.32009	0.02498
3941.35572	0.02876
3940.39136	0.03114
3939.427	0.03147
3938.46263	0.03168
3937.49827	0.03252
3936.5339	0.03305
3935.56954	0.03244
3934.60518	0.03077
3933.64081	0.02804
3932.67645	0.02508
3931.71208	0.02445
3930.74772	0.02569
3929.78336	0.02725
3928.81899	0.02961
3927.85463	0.03185
3926.89026	0.03165
3925.9259	0.02808
3924.96154	0.02403
3923.99717	0.02494
3923.03281	0.02932
3922.06844	0.0318
3921.10408	0.03049
3920.13972	0.02839
3919.17535	0.02865
3918.21099	0.02792
3917.24662	0.02551
3916.28226	0.02726
3915.3179	0.03196
3914.35353	0.03479
3913.38917	0.03583
3912.4248	0.03637
3911.46044	0.03673
3910.49608	0.03687
3909.53171	0.03689
3908.56735	0.03643
3907.60298	0.03416
3906.63862	0.02893
3905.67426	0.02232
3904.70989	0.01834
3903.74553	0.01836
3902.78116	0.01925
3901.8168	0.02122
3900.85244	0.02396
3899.88807	0.02391
3898.92371	0.02434
3897.95934	0.02978
3896.99498	0.03531
3896.03062	0.03736
3895.06625	0.03617
3894.10189	0.03373
3893.13752	0.03079
3892.17316	0.02671
3891.2088	0.02671
3890.24443	0.0329
3889.28007	0.03764
3888.3157	0.03864
3887.35134	0.03613
3886.38698	0.03042
3885.42261	0.02762
3884.45825	0.0306
3883.49388	0.03318
3882.52952	0.03322
3881.56516	0.02963
3880.60079	0.02606
3879.63643	0.03162
3878.67206	0.03886
3877.7077	0.04206
3876.74333	0.04201
3875.77897	0.03868
3874.81461	0.03183
3873.85024	0.02952
3872.88588	0.03349
3871.92151	0.03348
3870.95715	0.02613
3869.99279	0.01936
3869.02842	0.02754
3868.06406	0.03686
3867.09969	0.03941
3866.13533	0.03492
3865.17097	0.02723
3864.2066	0.02759
3863.24224	0.03202
3862.27787	0.03457
3861.31351	0.0383
3860.34915	0.04302
3859.38478	0.04465
3858.42042	0.0419
3857.45605	0.0371
3856.49169	0.03466
3855.52733	0.03244
3854.56296	0.02222
3853.5986	0.00774
3852.63423	0.01347
3851.66987	0.027
3850.70551	0.03596
3849.74114	0.04106
3848.77678	0.0453
3847.81241	0.04871
3846.84805	0.05003
3845.88369	0.04883
3844.91932	0.04477
3843.95496	0.0405
3842.99059	0.04069
3842.02623	0.0403
3841.06187	0.03435
3840.0975	0.02887
3839.13314	0.02817
3838.16877	0.02939
3837.20441	0.03469
3836.24005	0.03917
3835.27568	0.0407
3834.31132	0.04364
3833.34695	0.0464
3832.38259	0.04532
3831.41823	0.04512
3830.45386	0.04945
3829.4895	0.05224
3828.52513	0.05084
3827.56077	0.04724
3826.59641	0.04625
3825.63204	0.04892
3824.66768	0.05065
3823.70331	0.0492
3822.73895	0.04382
3821.77459	0.03307
3820.81022	0.02999
3819.84586	0.04017
3818.88149	0.04752
3817.91713	0.04922
3816.95277	0.04565
3815.9884	0.04331
3815.02404	0.0501
3814.05967	0.05694
3813.09531	0.0605
3812.13095	0.06189
3811.16658	0.06227
3810.20222	0.06195
3809.23785	0.06055
3808.27349	0.05633
3807.30913	0.04997
3806.34476	0.05124
3805.3804	0.05699
3804.41603	0.05829
3803.45167	0.05349
3802.48731	0.0439
3801.52294	0.03828
3800.55858	0.04675
3799.59421	0.05549
3798.62985	0.05843
3797.66549	0.05676
3796.70112	0.05603
3795.73676	0.06094
3794.77239	0.06658
3793.80803	0.06958
3792.84367	0.07081
3791.8793	0.07157
3790.91494	0.07203
3789.95057	0.07214
3788.98621	0.07226
3788.02185	0.07223
3787.05748	0.07119
3786.09312	0.06854
3785.12875	0.06646
3784.16439	0.0685
3783.20003	0.07221
3782.23566	0.07379
3781.2713	0.07263
3780.30693	0.06909
3779.34257	0.06718
3778.37821	0.07088
3777.41384	0.07548
3776.44948	0.07813
3775.48511	0.07913
3774.52075	0.07939
3773.55639	0.07929
3772.59202	0.07828
3771.62766	0.07531
3770.66329	0.07022
3769.69893	0.06877
3768.73457	0.07378
3767.7702	0.0771
3766.80584	0.07545
3765.84147	0.0728
3764.87711	0.07535
3763.91275	0.07954
3762.94838	0.08156
3761.98402	0.08143
3761.01965	0.07803
3760.05529	0.07128
3759.09093	0.07021
3758.12656	0.07457
3757.1622	0.07652
3756.19783	0.07752
3755.23347	0.07899
3754.26911	0.07737
3753.30474	0.06999
3752.34038	0.05765
3751.37601	0.05317
3750.41165	0.05564
3749.44729	0.06
3748.48292	0.06737
3747.51856	0.07274
3746.55419	0.07377
3745.58983	0.0695
3744.62547	0.06506
3743.6611	0.07464
3742.69674	0.08177
3741.73237	0.08331
3740.76801	0.08432
3739.80365	0.08662
3738.83928	0.08628
3737.87492	0.0824
3736.91055	0.07613
3735.94619	0.06752
3734.98182	0.0674
3734.01746	0.07701
3733.0531	0.083
3732.08873	0.08618
3731.12437	0.09268
3730.16	0.09923
3729.19564	0.10219
3728.23128	0.1011
3727.26691	0.09712
3726.30255	0.09422
3725.33818	0.09559
3724.37382	0.09809
3723.40946	0.09775
3722.44509	0.09705
3721.48073	0.10143
3720.51636	0.1054
3719.552	0.10563
3718.58764	0.10666
3717.62327	0.11008
3716.65891	0.11186
3715.69454	0.11089
3714.73018	0.10896
3713.76582	0.1058
3712.80145	0.09799
3711.83709	0.09136
3710.87272	0.09533
3709.90836	0.10185
3708.944	0.10917
3707.97963	0.11618
3707.01527	0.12022
3706.0509	0.12193
3705.08654	0.12344
3704.12218	0.12428
3703.15781	0.12206
3702.19345	0.11827
3701.22908	0.12031
3700.26472	0.12626
3699.30036	0.13021
3698.33599	0.13179
3697.37163	0.1321
3696.40726	0.13248
3695.4429	0.13349
3694.47854	0.13397
3693.51417	0.13341
3692.54981	0.13058
3691.58544	0.12388
3690.62108	0.11964
3689.65672	0.12122
3688.69235	0.1243
3687.72799	0.13191
3686.76362	0.14039
3685.79926	0.14532
3684.8349	0.14777
3683.87053	0.15023
3682.90617	0.15277
3681.9418	0.15366
3680.97744	0.1518
3680.01308	0.14818
3679.04871	0.1463
3678.08435	0.14555
3677.11998	0.14072
3676.15562	0.12795
3675.19126	0.12657
3674.22689	0.14423
3673.26253	0.15492
3672.29816	0.15692
3671.3338	0.15091
3670.36944	0.14382
3669.40507	0.14878
3668.44071	0.16063
3667.47634	0.17065
3666.51198	0.1766
3665.54762	0.17967
3664.58325	0.18189
3663.61889	0.1841
3662.65452	0.18631
3661.69016	0.18826
3660.7258	0.18982
3659.76143	0.19148
3658.79707	0.19275
3657.8327	0.19154
3656.86834	0.18746
3655.90398	0.18854
3654.93961	0.19584
3653.97525	0.2008
3653.01088	0.20108
3652.04652	0.19578
3651.08216	0.18462
3650.11779	0.1769
3649.15343	0.17969
3648.18906	0.1839
3647.2247	0.19183
3646.26034	0.20553
3645.29597	0.21673
3644.33161	0.22253
3643.36724	0.22416
3642.40288	0.22553
3641.43852	0.22936
3640.47415	0.23347
3639.50979	0.23549
3638.54542	0.23648
3637.58106	0.23912
3636.6167	0.2428
3635.65233	0.24448
3634.68797	0.24349
3633.7236	0.24356
3632.75924	0.24686
3631.79488	0.24832
3630.83051	0.24417
3629.86615	0.23325
3628.90178	0.22947
3627.93742	0.243
3626.97306	0.25398
3626.00869	0.26111
3625.04433	0.26657
3624.07996	0.26994
3623.1156	0.27122
3622.15124	0.27066
3621.18687	0.26752
3620.22251	0.2627
3619.25814	0.26048
3618.29378	0.26413
3617.32942	0.27145
3616.36505	0.27605
3615.40069	0.27537
3614.43632	0.27308
3613.47196	0.27324
3612.5076	0.27779
3611.54323	0.28506
3610.57887	0.28865
3609.6145	0.28744
3608.65014	0.28683
3607.68578	0.28967
3606.72141	0.29593
3605.75705	0.30368
3604.79268	0.30871
3603.82832	0.31042
3602.86396	0.31053
3601.89959	0.30997
3600.93523	0.30997
3599.97086	0.31211
3599.0065	0.31514
3598.04214	0.318
3597.07777	0.31971
3596.11341	0.31961
3595.14904	0.3209
3594.18468	0.32451
3593.22031	0.32911
3592.25595	0.3347
3591.29159	0.33871
3590.32722	0.3389
3589.36286	0.33475
3588.39849	0.32873
3587.43413	0.32843
3586.46977	0.33758
3585.5054	0.3482
3584.54104	0.35425
3583.57667	0.35747
3582.61231	0.36074
3581.64795	0.36329
3580.68358	0.3642
3579.71922	0.36581
3578.75485	0.36889
3577.79049	0.37144
3576.82613	0.37375
3575.86176	0.37651
3574.8974	0.37918
3573.93303	0.38233
3572.96867	0.38599
3572.00431	0.38864
3571.03994	0.39001
3570.07558	0.38978
3569.11121	0.38585
3568.14685	0.37819
3567.18249	0.37351
3566.21812	0.37919
3565.25376	0.39101
3564.28939	0.40004
3563.32503	0.40561
3562.36067	0.41015
3561.3963	0.41321
3560.43194	0.41516
3559.46757	0.41869
3558.50321	0.42305
3557.53885	0.42635
3556.57448	0.42911
3555.61012	0.43132
3554.64575	0.43207
3553.68139	0.43182
3552.71703	0.43268
3551.75266	0.43663
3550.7883	0.44178
3549.82393	0.44486
3548.85957	0.44505
3547.89521	0.44377
3546.93084	0.44347
3545.96648	0.44482
3545.00211	0.44729
3544.03775	0.45136
3543.07339	0.45603
3542.10902	0.45949
3541.14466	0.46132
3540.18029	0.46233
3539.21593	0.46338
3538.25157	0.46401
3537.2872	0.46349
3536.32284	0.46373
3535.35847	0.46623
3534.39411	0.46907
3533.42975	0.47068
3532.46538	0.47135
3531.50102	0.47171
3530.53665	0.47228
3529.57229	0.47283
3528.60793	0.4735
3527.64356	0.47564
3526.6792	0.47983
3525.71483	0.48438
3524.75047	0.48741
3523.78611	0.48955
3522.82174	0.49397
3521.85738	0.50079
3520.89301	0.50673
3519.92865	0.51083
3518.96429	0.51468
3517.99992	0.51951
3517.03556	0.52498
3516.07119	0.53042
3515.10683	0.53583
3514.14247	0.54127
3513.1781	0.54631
3512.21374	0.55085
3511.24937	0.55497
3510.28501	0.55916
3509.32065	0.56595
3508.35628	0.57589
3507.39192	0.58555
3506.42755	0.59308
3505.46319	0.59879
3504.49883	0.60329
3503.53446	0.6081
3502.5701	0.61434
3501.60573	0.6205
3500.64137	0.62496
3499.67701	0.62765
3498.71264	0.62851
3497.74828	0.62701
3496.78391	0.62378
3495.81955	0.62084
3494.85519	0.61881
3493.89082	0.61666
3492.92646	0.61379
3491.96209	0.61067
3490.99773	0.60795
3490.03337	0.60546
3489.069	0.60254
3488.10464	0.6001
3487.14027	0.59928
3486.17591	0.59887
3485.21155	0.59785
3484.24718	0.59662
3483.28282	0.59495
3482.31845	0.59352
3481.35409	0.59407
3480.38973	0.59628
3479.42536	0.59842
3478.461	0.59962
3477.49663	0.60015
3476.53227	0.60034
3475.56791	0.60048
3474.60354	0.60122
3473.63918	0.60283
3472.67481	0.60475
3471.71045	0.60663
3470.74609	0.60855
3469.78172	0.61035
3468.81736	0.61155
3467.85299	0.61215
3466.88863	0.61294
3465.92427	0.61419
3464.9599	0.61541
3463.99554	0.61618
3463.03117	0.6168
3462.06681	0.6181
3461.10245	0.62021
3460.13808	0.62228
3459.17372	0.62382
3458.20935	0.62516
3457.24499	0.6266
3456.28062	0.62812
3455.31626	0.62973
3454.3519	0.63138
3453.38753	0.63299
3452.42317	0.63465
3451.4588	0.63638
3450.49444	0.63797
3449.53008	0.63888
3448.56571	0.63858
3447.60135	0.63819
3446.63698	0.64038
3445.67262	0.64445
3444.70826	0.64765
3443.74389	0.64935
3442.77953	0.65063
3441.81516	0.65289
3440.8508	0.65604
3439.88644	0.65933
3438.92207	0.66261
3437.95771	0.66578
3436.99334	0.66864
3436.02898	0.67134
3435.06462	0.67403
3434.10025	0.67639
3433.13589	0.67836
3432.17152	0.6805
3431.20716	0.68312
3430.2428	0.68596
3429.27843	0.6886
3428.31407	0.69074
3427.3497	0.69257
3426.38534	0.69452
3425.42098	0.69641
3424.45661	0.69781
3423.49225	0.69879
3422.52788	0.69963
3421.56352	0.70037
3420.59916	0.70116
3419.63479	0.70231
3418.67043	0.70354
3417.70606	0.7044
3416.7417	0.70493
3415.77734	0.70538
3414.81297	0.70569
3413.84861	0.70561
3412.88424	0.70503
3411.91988	0.70382
3410.95552	0.7023
3409.99115	0.70085
3409.02679	0.69925
3408.06242	0.69705
3407.09806	0.69454
3406.1337	0.69213
3405.16933	0.68976
3404.20497	0.6874
3403.2406	0.68532
3402.27624	0.68339
3401.31188	0.68148
3400.34751	0.67962
3399.38315	0.67759
3398.41878	0.67499
3397.45442	0.67262
3396.49006	0.6718
3395.52569	0.67189
3394.56133	0.67131
3393.59696	0.67003
3392.6326	0.66947
3391.66824	0.67023
3390.70387	0.67095
3389.73951	0.67087
3388.77514	0.67073
3387.81078	0.67082
3386.84642	0.67074
3385.88205	0.67054
3384.91769	0.67075
3383.95332	0.67174
3382.98896	0.67315
3382.0246	0.67469
3381.06023	0.67618
3380.09587	0.67741
3379.1315	0.67839
3378.16714	0.67959
3377.20278	0.68108
3376.23841	0.68233
3375.27405	0.68341
3374.30968	0.68475
3373.34532	0.68636
3372.38096	0.68799
3371.41659	0.68953
3370.45223	0.69073
3369.48786	0.69152
3368.5235	0.69231
3367.55914	0.69332
3366.59477	0.69428
3365.63041	0.69495
3364.66604	0.69567
3363.70168	0.69636
3362.73732	0.69679
3361.77295	0.69705
3360.80859	0.69726
3359.84422	0.69723
3358.87986	0.69684
3357.9155	0.69614
3356.95113	0.69522
3355.98677	0.69444
3355.0224	0.69398
3354.05804	0.6934
3353.09368	0.6925
3352.12931	0.69137
3351.16495	0.68982
3350.20058	0.68772
3349.23622	0.68526
3348.27186	0.68287
3347.30749	0.68084
3346.34313	0.67912
3345.37876	0.67765
3344.4144	0.67637
3343.45004	0.67513
3342.48567	0.6739
3341.52131	0.67276
3340.55694	0.67189
3339.59258	0.67128
3338.62822	0.67053
3337.66385	0.66932
3336.69949	0.66809
3335.73512	0.66719
3334.77076	0.66644
3333.8064	0.66564
3332.84203	0.6646
3331.87767	0.66339
3330.9133	0.66223
3329.94894	0.6611
3328.98458	0.65991
3328.02021	0.65897
3327.05585	0.65872
3326.09148	0.65903
3325.12712	0.65931
3324.16276	0.6595
3323.19839	0.65995
3322.23403	0.66091
3321.26966	0.66231
3320.3053	0.66392
3319.34094	0.66557
3318.37657	0.66721
3317.41221	0.66894
3316.44784	0.67091
3315.48348	0.67293
3314.51911	0.67461
3313.55475	0.67615
3312.59039	0.6779
3311.62602	0.6797
3310.66166	0.68124
3309.69729	0.68246
3308.73293	0.68369
3307.76857	0.68494
3306.8042	0.6857
3305.83984	0.68558
3304.87547	0.68463
3303.91111	0.68297
3302.94675	0.68091
3301.98238	0.67877
3301.01802	0.67662
3300.05365	0.67456
3299.08929	0.67268
3298.12493	0.67104
3297.16056	0.66992
3296.1962	0.66915
3295.23183	0.66835
3294.26747	0.66757
3293.30311	0.66716
3292.33874	0.66713
3291.37438	0.66717
3290.41001	0.66717
3289.44565	0.66721
3288.48129	0.66745
3287.51692	0.66793
3286.55256	0.66848
3285.58819	0.66905
3284.62383	0.66955
3283.65947	0.66996
3282.6951	0.67046
3281.73074	0.67101
3280.76637	0.67139
3279.80201	0.67153
3278.83765	0.67152
3277.87328	0.67135
3276.90892	0.67115
3275.94455	0.67105
3274.98019	0.67061
3274.01583	0.66986
3273.05146	0.66957
3272.0871	0.6694
3271.12273	0.66857
3270.15837	0.66715
3269.19401	0.66538
3268.22964	0.66338
3267.26528	0.66118
3266.30091	0.65884
3265.33655	0.65635
3264.37219	0.65384
3263.40782	0.65128
3262.44346	0.64861
3261.47909	0.64573
3260.51473	0.64279
3259.55037	0.63992
3258.586	0.63681
3257.62164	0.63345
3256.65727	0.6302
3255.69291	0.62667
3254.72855	0.62255
3253.76418	0.61859
3252.79982	0.6151
3251.83545	0.6115
3250.87109	0.60774
3249.90673	0.60402
3248.94236	0.60038
3247.978	0.59679
3247.01363	0.5929
3246.04927	0.5883
3245.08491	0.58369
3244.12054	0.57998
3243.15618	0.57665
3242.19181	0.57303
3241.22745	0.56924
3240.26309	0.5656
3239.29872	0.56215
3238.33436	0.55855
3237.36999	0.55489
3236.40563	0.5518
3235.44127	0.54936
3234.4769	0.54687
3233.51254	0.54417
3232.54817	0.54154
3231.58381	0.53898
3230.61945	0.53642
3229.65508	0.53425
3228.69072	0.53254
3227.72635	0.53121
3226.76199	0.53041
3225.79763	0.52997
3224.83326	0.52965
3223.8689	0.52953
3222.90453	0.52969
3221.94017	0.53007
3220.97581	0.53062
3220.01144	0.53122
3219.04708	0.53186
3218.08271	0.5321
3217.11835	0.53147
3216.15399	0.53004
3215.18962	0.5277
3214.22526	0.52456
3213.26089	0.52121
3212.29653	0.51766
3211.33217	0.51356
3210.3678	0.5092
3209.40344	0.50527
3208.43907	0.50208
3207.47471	0.49916
3206.51035	0.49612
3205.54598	0.49303
3204.58162	0.49016
3203.61725	0.4877
3202.65289	0.48553
3201.68853	0.4834
3200.72416	0.48137
3199.7598	0.47937
3198.79543	0.47725
3197.83107	0.47529
3196.86671	0.47367
3195.90234	0.47198
3194.93798	0.46988
3193.97361	0.46737
3193.00925	0.46445
3192.04489	0.46119
3191.08052	0.45767
3190.11616	0.454
3189.15179	0.45022
3188.18743	0.44631
3187.22307	0.44233
3186.2587	0.43828
3185.29434	0.43444
3184.32997	0.43114
3183.36561	0.42805
3182.40125	0.42479
3181.43688	0.42148
3180.47252	0.41832
3179.50815	0.41499
3178.54379	0.41142
3177.57943	0.40838
3176.61506	0.40597
3175.6507	0.40346
3174.68633	0.40071
3173.72197	0.39793
3172.7576	0.39516
3171.79324	0.39233
3170.82888	0.38961
3169.86451	0.3871
3168.90015	0.38483
3167.93578	0.38258
3166.97142	0.38031
3166.00706	0.37814
3165.04269	0.37614
3164.07833	0.37423
3163.11396	0.37237
3162.1496	0.37058
3161.18524	0.36884
3160.22087	0.36718
3159.25651	0.36546
3158.29214	0.36372
3157.32778	0.3621
3156.36342	0.3606
3155.39905	0.35915
3154.43469	0.35763
3153.47032	0.35611
3152.50596	0.35451
3151.5416	0.35273
3150.57723	0.35077
3149.61287	0.34872
3148.6485	0.34671
3147.68414	0.34481
3146.71978	0.34292
3145.75541	0.34097
3144.79105	0.33899
3143.82668	0.33708
3142.86232	0.33536
3141.89796	0.33389
3140.93359	0.33256
3139.96923	0.33111
3139.00486	0.32944
3138.0405	0.32753
3137.07614	0.32541
3136.11177	0.32314
3135.14741	0.32065
3134.18304	0.3179
3133.21868	0.31546
3132.25432	0.31394
3131.28995	0.31283
3130.32559	0.31143
3129.36122	0.30964
3128.39686	0.30764
3127.4325	0.30568
3126.46813	0.30413
3125.50377	0.30302
3124.5394	0.30179
3123.57504	0.30029
3122.61068	0.2992
3121.64631	0.29876
3120.68195	0.29794
3119.71758	0.29613
3118.75322	0.29405
3117.78886	0.29204
3116.82449	0.28956
3115.86013	0.28666
3114.89576	0.28394
3113.9314	0.28118
3112.96704	0.27826
3112.00267	0.27559
3111.03831	0.27334
3110.07394	0.27151
3109.10958	0.26986
3108.14522	0.2681
3107.18085	0.26622
3106.21649	0.2645
3105.25212	0.26298
3104.28776	0.26143
3103.3234	0.25988
3102.35903	0.25848
3101.39467	0.25742
3100.4303	0.25674
3099.46594	0.25611
3098.50158	0.25519
3097.53721	0.25381
3096.57285	0.25221
3095.60848	0.2512
3094.64412	0.25076
3093.67976	0.25044
3092.71539	0.25015
3091.75103	0.24985
3090.78666	0.24934
3089.8223	0.24859
3088.85794	0.24777
3087.89357	0.24704
3086.92921	0.24651
3085.96484	0.24619
3085.00048	0.24597
3084.03612	0.24558
3083.07175	0.24495
3082.10739	0.24436
3081.14302	0.24405
3080.17866	0.24387
3079.2143	0.24387
3078.24993	0.24391
3077.28557	0.24386
3076.3212	0.24371
3075.35684	0.24344
3074.39248	0.24327
3073.42811	0.24324
3072.46375	0.24338
3071.49938	0.24361
3070.53502	0.2439
3069.57066	0.24433
3068.60629	0.24468
3067.64193	0.24475
3066.67756	0.2447
3065.7132	0.24455
3064.74884	0.24447
3063.78447	0.245
3062.82011	0.24574
3061.85574	0.2461
3060.89138	0.24638
3059.92702	0.24686
3058.96265	0.24746
3057.99829	0.24791
3057.03392	0.24807
3056.06956	0.24858
3055.1052	0.24941
3054.14083	0.24984
3053.17647	0.24994
3052.2121	0.25032
3051.24774	0.25077
3050.28338	0.25055
3049.31901	0.24975
3048.35465	0.24936
3047.39028	0.24964
3046.42592	0.24983
3045.46156	0.24968
3044.49719	0.24927
3043.53283	0.24876
3042.56846	0.24822
3041.6041	0.24764
3040.63974	0.24691
3039.67537	0.2459
3038.71101	0.24464
3037.74664	0.2435
3036.78228	0.24248
3035.81792	0.24137
3034.85355	0.23997
3033.88919	0.23837
3032.92482	0.23652
3031.96046	0.23456
3030.99609	0.2333
3030.03173	0.23255
3029.06737	0.23141
3028.103	0.22999
3027.13864	0.22878
3026.17427	0.22786
3025.20991	0.22706
3024.24555	0.22607
3023.28118	0.22478
3022.31682	0.22367
3021.35245	0.22294
3020.38809	0.22241
3019.42373	0.2219
3018.45936	0.22144
3017.495	0.22095
3016.53063	0.22034
3015.56627	0.21988
3014.60191	0.21959
3013.63754	0.2191
3012.67318	0.21861
3011.70881	0.21851
3010.74445	0.21832
3009.78009	0.21793
3008.81572	0.21761
3007.85136	0.21736
3006.88699	0.21721
3005.92263	0.21721
3004.95827	0.21752
3003.9939	0.21826
3003.02954	0.21919
3002.06517	0.22003
3001.10081	0.22075
3000.13645	0.22123
2999.17208	0.22137
2998.20772	0.22107
2997.24335	0.2202
2996.27899	0.21892
2995.31463	0.21786
2994.35026	0.21754
2993.3859	0.21775
2992.42153	0.21791
2991.45717	0.21767
2990.49281	0.21728
2989.52844	0.21691
2988.56408	0.21674
2987.59971	0.21688
2986.63535	0.21721
2985.67099	0.21752
2984.70662	0.21785
2983.74226	0.2184
2982.77789	0.21898
2981.81353	0.21931
2980.84917	0.2194
2979.8848	0.21942
2978.92044	0.21937
2977.95607	0.21929
2976.99171	0.21953
2976.02735	0.22022
2975.06298	0.22104
2974.09862	0.22173
2973.13425	0.2224
2972.16989	0.22324
2971.20553	0.2241
2970.24116	0.22496
2969.2768	0.22597
2968.31243	0.22717
2967.34807	0.22849
2966.38371	0.23013
2965.41934	0.23231
2964.45498	0.23527
2963.49061	0.23915
2962.52625	0.24394
2961.56189	0.24957
2960.59752	0.2558
2959.63316	0.2618
2958.66879	0.26647
2957.70443	0.26907
2956.74007	0.26959
2955.7757	0.26898
2954.81134	0.26876
2953.84697	0.27001
2952.88261	0.27263
2951.91825	0.27586
2950.95388	0.27927
2949.98952	0.28269
2949.02515	0.28618
2948.06079	0.29008
2947.09643	0.2947
2946.13206	0.3004
2945.1677	0.30763
2944.20333	0.31617
2943.23897	0.32532
2942.27461	0.33447
2941.31024	0.34285
2940.34588	0.3494
2939.38151	0.35328
2938.41715	0.35481
2937.45279	0.35512
2936.48842	0.35531
2935.52406	0.35634
2934.55969	0.35867
2933.59533	0.36226
2932.63097	0.36678
2931.6666	0.37234
2930.70224	0.37872
2929.73787	0.38441
2928.77351	0.38739
2927.80915	0.38705
2926.84478	0.38446
2925.88042	0.38128
2924.91605	0.37838
2923.95169	0.37573
2922.98733	0.37291
2922.02296	0.36967
2921.0586	0.36603
2920.09423	0.36222
2919.12987	0.35793
2918.16551	0.35211
2917.20114	0.34409
2916.23678	0.33435
2915.27241	0.32413
2914.30805	0.31442
2913.34369	0.30571
2912.37932	0.29819
2911.41496	0.29188
2910.45059	0.28669
2909.48623	0.28247
2908.52187	0.27914
2907.5575	0.27665
2906.59314	0.27513
2905.62877	0.27477
2904.66441	0.27544
2903.70005	0.27661
2902.73568	0.27767
2901.77132	0.27824
2900.80695	0.27824
2899.84259	0.27777
2898.87823	0.27722
2897.91386	0.27668
2896.9495	0.27583
2895.98513	0.27376
2895.02077	0.26987
2894.05641	0.26464
2893.09204	0.25909
2892.12768	0.25403
2891.16331	0.24974
2890.19895	0.24617
2889.23458	0.24305
2888.27022	0.24021
2887.30586	0.23748
2886.34149	0.23492
2885.37713	0.23251
2884.41276	0.23024
2883.4484	0.22838
2882.48404	0.22695
2881.51967	0.2257
2880.55531	0.22422
2879.59094	0.22229
2878.62658	0.22004
2877.66222	0.21758
2876.69785	0.215
2875.73349	0.21237
2874.76912	0.20979
2873.80476	0.20725
2872.8404	0.20472
2871.87603	0.20209
2870.91167	0.19953
2869.9473	0.19724
2868.98294	0.19523
2868.01858	0.19347
2867.05421	0.19192
2866.08985	0.19054
2865.12548	0.18945
2864.16112	0.18873
2863.19676	0.18836
2862.23239	0.18848
2861.26803	0.18917
2860.30366	0.19023
2859.3393	0.19128
2858.37494	0.19226
2857.41057	0.19332
2856.44621	0.1944
2855.48184	0.19533
2854.51748	0.19596
2853.55312	0.19612
2852.58875	0.19568
2851.62439	0.1945
2850.66002	0.19249
2849.69566	0.18955
2848.7313	0.18574
2847.76693	0.1812
2846.80257	0.17628
2845.8382	0.17165
2844.87384	0.1677
2843.90948	0.16442
2842.94511	0.16157
2841.98075	0.15916
2841.01638	0.15727
2840.05202	0.15575
2839.08766	0.1543
2838.12329	0.1527
2837.15893	0.15113
2836.19456	0.1499
2835.2302	0.14908
2834.26584	0.14825
2833.30147	0.14743
2832.33711	0.14675
2831.37274	0.14614
2830.40838	0.14568
2829.44402	0.14548
2828.47965	0.14541
2827.51529	0.14533
2826.55092	0.14523
2825.58656	0.14525
2824.6222	0.14541
2823.65783	0.14546
2822.69347	0.14519
2821.7291	0.14475
2820.76474	0.14424
2819.80038	0.14351
2818.83601	0.14254
2817.87165	0.14143
2816.90728	0.14036
2815.94292	0.13935
2814.97856	0.13838
2814.01419	0.13756
2813.04983	0.13692
2812.08546	0.13646
2811.1211	0.136
2810.15674	0.13506
2809.19237	0.13324
2808.22801	0.13085
2807.26364	0.12837
2806.29928	0.126
2805.33492	0.12371
2804.37055	0.12158
2803.40619	0.1198
2802.44182	0.11842
2801.47746	0.11738
2800.5131	0.1166
2799.54873	0.116
2798.58437	0.11539
2797.62	0.11461
2796.65564	0.11384
2795.69128	0.11309
2794.72691	0.11226
2793.76255	0.11146
2792.79818	0.111
2791.83382	0.11068
2790.86946	0.11017
2789.90509	0.10961
2788.94073	0.10901
2787.97636	0.1083
2787.012	0.10767
2786.04764	0.10714
2785.08327	0.1066
2784.11891	0.10609
2783.15454	0.10568
2782.19018	0.10526
2781.22582	0.10475
2780.26145	0.10407
2779.29709	0.10344
2778.33272	0.10298
2777.36836	0.10271
2776.404	0.10244
2775.43963	0.10195
2774.47527	0.1012
2773.5109	0.10043
2772.54654	0.0997
2771.58218	0.09897
2770.61781	0.0982
2769.65345	0.09754
2768.68908	0.0971
2767.72472	0.09683
2766.76036	0.09644
2765.79599	0.09589
2764.83163	0.09538
2763.86726	0.09503
2762.9029	0.09472
2761.93854	0.09433
2760.97417	0.09391
2760.00981	0.09362
2759.04544	0.09347
2758.08108	0.09332
2757.11672	0.09307
2756.15235	0.09271
2755.18799	0.09229
2754.22362	0.09195
2753.25926	0.09168
2752.2949	0.09139
2751.33053	0.09114
2750.36617	0.09095
2749.4018	0.0908
2748.43744	0.09072
2747.47307	0.09045
2746.50871	0.08996
2745.54435	0.08965
2744.57998	0.08959
2743.61562	0.08956
2742.65125	0.08941
2741.68689	0.08924
2740.72253	0.08921
2739.75816	0.08933
2738.7938	0.08944
2737.82943	0.08939
2736.86507	0.08905
2735.90071	0.08868
2734.93634	0.08846
2733.97198	0.08829
2733.00761	0.08797
2732.04325	0.08756
2731.07889	0.08717
2730.11452	0.08685
2729.15016	0.08656
2728.18579	0.08626
2727.22143	0.08599
2726.25707	0.08565
2725.2927	0.08509
2724.32834	0.08444
2723.36397	0.08378
2722.39961	0.08308
2721.43525	0.08237
2720.47088	0.08177
2719.50652	0.08121
2718.54215	0.08048
2717.57779	0.07971
2716.61343	0.07907
2715.64906	0.07852
2714.6847	0.07786
2713.72033	0.07713
2712.75597	0.07645
2711.79161	0.07587
2710.82724	0.07538
2709.86288	0.07483
2708.89851	0.0741
2707.93415	0.07332
2706.96979	0.07272
2706.00542	0.07228
2705.04106	0.07177
2704.07669	0.07116
2703.11233	0.07051
2702.14797	0.06995
2701.1836	0.06939
2700.21924	0.06883
2699.25487	0.06815
2698.29051	0.0673
2697.32615	0.06641
2696.36178	0.06558
2695.39742	0.06478
2694.43305	0.06396
2693.46869	0.06316
2692.50433	0.06238
2691.53996	0.06166
2690.5756	0.0609
2689.61123	0.06006
2688.64687	0.05921
2687.68251	0.05848
2686.71814	0.0578
2685.75378	0.05708
2684.78941	0.05628
2683.82505	0.05555
2682.86069	0.05504
2681.89632	0.05477
2680.93196	0.05447
2679.96759	0.05394
2679.00323	0.05336
2678.03887	0.05297
2677.0745	0.05267
2676.11014	0.05221
2675.14577	0.05165
2674.18141	0.05126
2673.21705	0.05104
2672.25268	0.0507
2671.28832	0.05021
2670.32395	0.0497
2669.35959	0.04934
2668.39523	0.04904
2667.43086	0.0487
2666.4665	0.04826
2665.50213	0.0478
2664.53777	0.04741
2663.57341	0.04709
2662.60904	0.04675
2661.64468	0.04626
2660.68031	0.04563
2659.71595	0.0451
2658.75159	0.04476
2657.78722	0.04444
2656.82286	0.044
2655.85849	0.04346
2654.89413	0.043
2653.92977	0.04264
2652.9654	0.04227
2652.00104	0.04186
2651.03667	0.04135
2650.07231	0.04091
2649.10795	0.04064
2648.14358	0.04039
2647.17922	0.04005
2646.21485	0.03964
2645.25049	0.03927
2644.28613	0.03905
2643.32176	0.03895
2642.3574	0.03873
2641.39303	0.03836
2640.42867	0.03802
2639.46431	0.03782
2638.49994	0.03757
2637.53558	0.03709
2636.57121	0.03636
2635.60685	0.03571
2634.64249	0.03512
2633.67812	0.03442
2632.71376	0.03355
2631.74939	0.0327
2630.78503	0.03204
2629.82067	0.03151
2628.8563	0.03098
2627.89194	0.03039
2626.92757	0.02979
2625.96321	0.02925
2624.99885	0.02884
2624.03448	0.02835
2623.07012	0.02779
2622.10575	0.02731
2621.14139	0.02696
2620.17703	0.02672
2619.21266	0.02632
2618.2483	0.02582
2617.28393	0.02535
2616.31957	0.02498
2615.35521	0.02472
2614.39084	0.02448
2613.42648	0.02411
2612.46211	0.0238
2611.49775	0.02365
2610.53339	0.02363
2609.56902	0.02358
2608.60466	0.02348
2607.64029	0.02343
2606.67593	0.02355
2605.71156	0.02372
2604.7472	0.02376
2603.78284	0.02362
2602.81847	0.0235
2601.85411	0.02349
2600.88974	0.02357
2599.92538	0.02359
2598.96102	0.02349
2597.99665	0.02337
2597.03229	0.02337
2596.06792	0.02337
2595.10356	0.02322
2594.1392	0.02303
2593.17483	0.02285
2592.21047	0.02278
2591.2461	0.02276
2590.28174	0.02266
2589.31738	0.02242
2588.35301	0.0222
2587.38865	0.0222
2586.42428	0.02227
2585.45992	0.02219
2584.49556	0.022
2583.53119	0.0218
2582.56683	0.02171
2581.60246	0.02175
2580.6381	0.02175
2579.67374	0.02168
2578.70937	0.02165
2577.74501	0.0218
2576.78064	0.02196
2575.81628	0.02206
2574.85192	0.02208
2573.88755	0.0222
2572.92319	0.02239
2571.95882	0.02263
2570.99446	0.02285
2570.0301	0.02296
2569.06573	0.02306
2568.10137	0.0232
2567.137	0.02342
2566.17264	0.02351
2565.20828	0.02344
2564.24391	0.02337
2563.27955	0.02341
2562.31518	0.02346
2561.35082	0.02343
2560.38646	0.02334
2559.42209	0.02329
2558.45773	0.02338
2557.49336	0.02345
2556.529	0.0234
2555.56464	0.02333
2554.60027	0.0233
2553.63591	0.02328
2552.67154	0.0232
2551.70718	0.02311
2550.74282	0.02294
2549.77845	0.02279
2548.81409	0.02269
2547.84972	0.02262
2546.88536	0.02242
2545.921	0.02213
2544.95663	0.02187
2543.99227	0.02165
2543.0279	0.02143
2542.06354	0.02114
2541.09918	0.02083
2540.13481	0.02053
2539.17045	0.02029
2538.20608	0.02007
2537.24172	0.01978
2536.27736	0.01944
2535.31299	0.01906
2534.34863	0.01877
2533.38426	0.0185
2532.4199	0.01826
2531.45554	0.01799
2530.49117	0.01777
2529.52681	0.01758
2528.56244	0.01736
2527.59808	0.01714
2526.63372	0.01695
2525.66935	0.01678
2524.70499	0.01666
2523.74062	0.01661
2522.77626	0.01656
2521.8119	0.01648
2520.84753	0.01634
2519.88317	0.01612
2518.9188	0.01583
2517.95444	0.01551
2516.99008	0.01525
2516.02571	0.01498
2515.06135	0.01479
2514.09698	0.01467
2513.13262	0.01457
2512.16826	0.01447
2511.20389	0.01432
2510.23953	0.01411
2509.27516	0.01394
2508.3108	0.01389
2507.34644	0.01398
2506.38207	0.01408
2505.41771	0.01412
2504.45334	0.01412
2503.48898	0.01419
2502.52462	0.01436
2501.56025	0.01453
2500.59589	0.01467
2499.63152	0.01481
2498.66716	0.015
2497.7028	0.01524
2496.73843	0.01546
2495.77407	0.01558
2494.8097	0.0157
2493.84534	0.01586
2492.88098	0.01603
2491.91661	0.01615
2490.95225	0.01615
2489.98788	0.01612
2489.02352	0.01617
2488.05916	0.01629
2487.09479	0.01631
2486.13043	0.01629
2485.16606	0.01626
2484.2017	0.01636
2483.23734	0.01652
2482.27297	0.01669
2481.30861	0.01669
2480.34424	0.01659
2479.37988	0.01654
2478.41552	0.01654
2477.45115	0.01649
2476.48679	0.01639
2475.52242	0.01634
2474.55806	0.01634
2473.5937	0.01634
2472.62933	0.01627
2471.66497	0.01612
2470.7006	0.016
2469.73624	0.01602
2468.77187	0.01609
2467.80751	0.01607
2466.84315	0.01594
2465.87878	0.01589
2464.91442	0.01597
2463.95005	0.01606
2462.98569	0.01606
2462.02133	0.01601
2461.05696	0.01601
2460.0926	0.01603
2459.12823	0.01603
2458.16387	0.01588
2457.19951	0.01566
2456.23514	0.01547
2455.27078	0.01532
2454.30641	0.0152
2453.34205	0.0151
2452.37769	0.01496
2451.41332	0.01479
2450.44896	0.01467
2449.48459	0.01454
2448.52023	0.01442
2447.55587	0.01428
2446.5915	0.01411
2445.62714	0.01401
2444.66277	0.01396
2443.69841	0.01389
2442.73405	0.01369
2441.76968	0.01345
2440.80532	0.01328
2439.84095	0.01316
2438.87659	0.01296
2437.91223	0.0127
2436.94786	0.01248
2435.9835	0.01238
2435.01913	0.01226
2434.05477	0.01202
2433.09041	0.0117
2432.12604	0.01141
2431.16168	0.01126
2430.19731	0.01114
2429.23295	0.011
2428.26859	0.01083
2427.30422	0.01066
2426.33986	0.01056
2425.37549	0.01051
2424.41113	0.01046
2423.44677	0.01036
2422.4824	0.01029
2421.51804	0.01026
2420.55367	0.01026
2419.58931	0.01021
2418.62495	0.01016
2417.66058	0.01011
2416.69622	0.01009
2415.73185	0.01004
2414.76749	0.00994
2413.80313	0.00979
2412.83876	0.00974
2411.8744	0.00981
2410.91003	0.00993
2409.94567	0.00996
2408.98131	0.00988
2408.01694	0.00981
2407.05258	0.00976
2406.08821	0.00976
2405.12385	0.00973
2404.15949	0.00968
2403.19512	0.00968
2402.23076	0.00975
2401.26639	0.00985
2400.30203	0.00987
2399.33767	0.00984
2398.3733	0.00984
2397.40894	0.00987
2396.44457	0.00996
2395.48021	0.01008
2394.51585	0.01017
2393.55148	0.01032
2392.58712	0.01051
2391.62275	0.01072
2390.65839	0.01084
2389.69403	0.01099
2388.72966	0.01118
2387.7653	0.01137
2386.80093	0.01149
2385.83657	0.0117
2384.87221	0.01209
2383.90784	0.01222
2382.94348	0.01235
2381.97911	0.01248
2381.01475	0.01261
2380.05039	0.01274
2379.08602	0.01287
2378.12166	0.013
2377.15729	0.01313
2376.19293	0.01327
2375.22857	0.0134
2374.2642	0.01353
2373.29984	0.01366
2372.33547	0.01379
2371.37111	0.01392
2370.40675	0.01405
2369.44238	0.01418
2368.47802	0.01431
2367.51365	0.01444
2366.54929	0.01457
2365.58493	0.01471
2364.62056	0.01484
2363.6562	0.01497
2362.69183	0.0151
2361.72747	0.01523
2360.76311	0.01536
2359.79874	0.01549
2358.83438	0.01562
2357.87001	0.01575
2356.90565	0.01588
2355.94129	0.01601
2354.97692	0.01615
2354.01256	0.01628
2353.04819	0.01641
2352.08383	0.01654
2351.11947	0.01667
2350.1551	0.0168
2349.19074	0.01693
2348.22637	0.01706
2347.26201	0.01719
2346.29765	0.01732
2345.33328	0.01745
2344.36892	0.01759
2343.40455	0.01772
2342.44019	0.01785
2341.47583	0.01798
2340.51146	0.01811
2339.5471	0.01824
2338.58273	0.01837
2337.61837	0.0185
2336.65401	0.01863
2335.68964	0.01876
2334.72528	0.01889
2333.76091	0.01903
2332.79655	0.01916
2331.83219	0.01929
2330.86782	0.01942
2329.90346	0.01955
2328.93909	0.01968
2327.97473	0.01981
2327.01036	0.01994
2326.046	0.02007
2325.08164	0.0202
2324.11727	0.02033
2323.15291	0.02047
2322.18854	0.0206
2321.22418	0.02073
2320.25982	0.02086
2319.29545	0.02099
2318.33109	0.02112
2317.36672	0.02125
2316.40236	0.02138
2315.438	0.02151
2314.47363	0.02164
2313.50927	0.02177
2312.5449	0.02191
2311.58054	0.02204
2310.61618	0.02217
2309.65181	0.0223
2308.68745	0.02243
2307.72308	0.02256
2306.75872	0.02269
2305.79436	0.02282
2304.82999	0.02295
2303.86563	0.02308
2302.90126	0.02321
2301.9369	0.02335
2300.97254	0.02348
2300.00817	0.02361
2299.04381	0.02374
2298.07944	0.02387
2297.11508	0.024
2296.15072	0.02448
2295.18635	0.02461
2294.22199	0.02477
2293.25762	0.02484
2292.29326	0.0245
2291.3289	0.02414
2290.36453	0.02396
2289.40017	0.02378
2288.4358	0.02352
2287.47144	0.02319
2286.50708	0.02298
2285.54271	0.0229
2284.57835	0.02281
2283.61398	0.0226
2282.64962	0.02249
2281.68526	0.02267
2280.72089	0.02301
2279.75653	0.02331
2278.79216	0.02349
2277.8278	0.0236
2276.86344	0.02377
2275.89907	0.02402
2274.93471	0.02427
2273.97034	0.0244
2273.00598	0.02446
2272.04162	0.02464
2271.07725	0.02494
2270.11289	0.02521
2269.14852	0.02532
2268.18416	0.02532
2267.2198	0.02545
2266.25543	0.02573
2265.29107	0.026
2264.3267	0.02608
2263.36234	0.02609
2262.39798	0.0262
2261.43361	0.02642
2260.46925	0.02658
2259.50488	0.02654
2258.54052	0.02643
2257.57616	0.02648
2256.61179	0.02664
2255.64743	0.02677
2254.68306	0.02673
2253.7187	0.02669
2252.75434	0.02684
2251.78997	0.02719
2250.82561	0.02737
2249.86124	0.02728
2248.89688	0.02714
2247.93252	0.02725
2246.96815	0.02757
2246.00379	0.02773
2245.03942	0.02759
2244.07506	0.02745
2243.1107	0.02758
2242.14633	0.02788
2241.18197	0.02813
2240.2176	0.02814
2239.25324	0.0281
2238.28888	0.02823
2237.32451	0.02853
2236.36015	0.02868
2235.39578	0.02862
2234.43142	0.02856
2233.46706	0.02871
2232.50269	0.02901
2231.53833	0.02916
2230.57396	0.02896
2229.6096	0.02872
2228.64524	0.02878
2227.68087	0.02896
2226.71651	0.02892
2225.75214	0.02862
2224.78778	0.02831
2223.82342	0.02834
2222.85905	0.02852
2221.89469	0.02851
2220.93032	0.02825
2219.96596	0.02804
2219.0016	0.0281
2218.03723	0.02833
2217.07287	0.02831
2216.1085	0.02801
2215.14414	0.0278
2214.17978	0.02795
2213.21541	0.02823
2212.25105	0.02826
2211.28668	0.02803
2210.32232	0.02789
2209.35796	0.02812
2208.39359	0.02849
2207.42923	0.02864
2206.46486	0.02856
2205.5005	0.02859
2204.53614	0.02894
2203.57177	0.02943
2202.60741	0.02958
2201.64304	0.0294
2200.67868	0.02933
2199.71432	0.02966
2198.74995	0.03005
2197.78559	0.03016
2196.82122	0.02997
2195.85686	0.02996
2194.8925	0.03023
2193.92813	0.03055
2192.96377	0.03059
2191.9994	0.03043
2191.03504	0.03041
2190.07068	0.03076
2189.10631	0.03118
2188.14195	0.03126
2187.17758	0.03107
2186.21322	0.03104
2185.24885	0.03131
2184.28449	0.03168
2183.32013	0.03176
2182.35576	0.03153
2181.3914	0.03139
2180.42703	0.03169
2179.46267	0.03206
2178.49831	0.03207
2177.53394	0.03182
2176.56958	0.03173
2175.60521	0.03203
2174.64085	0.03235
2173.67649	0.03231
2172.71212	0.03215
2171.74776	0.03218
2170.78339	0.03255
2169.81903	0.03292
2168.85467	0.03298
2167.8903	0.03275
2166.92594	0.03271
2165.96157	0.03301
2164.99721	0.03323
2164.03285	0.03308
2163.06848	0.0327
2162.10412	0.03259
2161.13975	0.03284
2160.17539	0.03301
2159.21103	0.03283
2158.24666	0.03248
2157.2823	0.03234
2156.31793	0.03247
2155.35357	0.03246
2154.38921	0.03211
2153.42484	0.03166
2152.46048	0.0315
2151.49611	0.0316
2150.53175	0.03161
2149.56739	0.03128
2148.60302	0.03088
2147.63866	0.03084
2146.67429	0.03102
2145.70993	0.03106
2144.74557	0.03085
2143.7812	0.03064
2142.81684	0.0307
2141.85247	0.03092
2140.88811	0.03093
2139.92375	0.03065
2138.95938	0.03044
2137.99502	0.03048
2137.03065	0.03058
2136.06629	0.03062
2135.10193	0.03058
2134.13756	0.03059
2133.1732	0.03079
2132.20883	0.03104
2131.24447	0.03105
2130.28011	0.03084
2129.31574	0.03075
2128.35138	0.03095
2127.38701	0.03123
2126.42265	0.03126
2125.45829	0.03105
2124.49392	0.03094
2123.52956	0.03112
2122.56519	0.03135
2121.60083	0.03131
2120.63647	0.03112
2119.6721	0.03108
2118.70774	0.03126
2117.74337	0.03146
2116.77901	0.03128
2115.81465	0.03083
2114.85028	0.03065
2113.88592	0.0309
2112.92155	0.03122
2111.95719	0.03123
2110.99283	0.03109
2110.02846	0.0311
2109.0641	0.03135
2108.09973	0.03158
2107.13537	0.03156
2106.17101	0.03145
2105.20664	0.03151
2104.24228	0.03176
2103.27791	0.03196
2102.31355	0.03192
2101.34919	0.03176
2100.38482	0.03179
2099.42046	0.03209
2098.45609	0.03234
2097.49173	0.0324
2096.52737	0.03239
2095.563	0.03264
2094.59864	0.03301
2093.63427	0.03321
2092.66991	0.03305
2091.70555	0.03267
2090.74118	0.03239
2089.77682	0.03259
2088.81245	0.03296
2087.84809	0.03295
2086.88373	0.03279
2085.91936	0.03289
2084.955	0.03307
2083.99063	0.03301
2083.02627	0.03268
2082.06191	0.0324
2081.09754	0.03241
2080.13318	0.03256
2079.16881	0.03252
2078.20445	0.03227
2077.24009	0.03216
2076.27572	0.03229
2075.31136	0.03244
2074.34699	0.0324
2073.38263	0.03229
2072.41827	0.0324
2071.4539	0.03284
2070.48954	0.03333
2069.52517	0.03351
2068.56081	0.0334
2067.59645	0.03324
2066.63208	0.03288
2065.66772	0.03243
2064.70335	0.03259
2063.73899	0.03344
2062.77463	0.0341
2061.81026	0.03437
2060.8459	0.0345
2059.88153	0.03449
2058.91717	0.03433
2057.95281	0.03422
2056.98844	0.03432
2056.02408	0.03438
2055.05971	0.03415
2054.09535	0.03372
2053.13099	0.03349
2052.16662	0.0335
2051.20226	0.03353
2050.23789	0.03328
2049.27353	0.03281
2048.30917	0.03257
2047.3448	0.03261
2046.38044	0.03259
2045.41607	0.03219
2044.45171	0.03157
2043.48734	0.03115
2042.52298	0.03063
2041.55862	0.03001
2040.59425	0.02995
2039.62989	0.03015
2038.66552	0.03011
2037.70116	0.03002
2036.7368	0.02989
2035.77243	0.02944
2034.80807	0.02887
2033.8437	0.02861
2032.87934	0.02865
2031.91498	0.02861
2030.95061	0.02818
2029.98625	0.02766
2029.02188	0.02741
2028.05752	0.02732
2027.09316	0.02711
2026.12879	0.02671
2025.16443	0.02631
2024.20006	0.02606
2023.2357	0.02604
2022.27134	0.02605
2021.30697	0.02577
2020.34261	0.02506
2019.37824	0.0242
2018.41388	0.02329
2017.44952	0.0225
2016.48515	0.0228
2015.52079	0.02414
2014.55642	0.02518
2013.59206	0.02555
2012.6277	0.02554
2011.66333	0.02528
2010.69897	0.02505
2009.7346	0.02516
2008.77024	0.02538
2007.80588	0.02549
2006.84151	0.0255
2005.87715	0.02555
2004.91278	0.02588
2003.94842	0.02629
2002.98406	0.02614
2002.01969	0.02579
2001.05533	0.0255
2000.09096	0.02538
1999.1266	0.02541
1998.16224	0.02549
1997.19787	0.02542
1996.23351	0.02525
1995.26914	0.02511
1994.30478	0.02432
1993.34042	0.02189
1992.37605	0.01968
1991.41169	0.02081
1990.44732	0.02308
1989.48296	0.02323
1988.5186	0.02246
1987.55423	0.02282
1986.58987	0.02369
1985.6255	0.02415
1984.66114	0.02433
1983.69678	0.02426
1982.73241	0.02407
1981.76805	0.0241
1980.80368	0.02439
1979.83932	0.02463
1978.87496	0.02461
1977.91059	0.02445
1976.94623	0.02447
1975.98186	0.02472
1975.0175	0.02486
1974.05314	0.02477
1973.08877	0.02461
1972.12441	0.02469
1971.16004	0.02492
1970.19568	0.02481
1969.23132	0.02362
1968.26695	0.0212
1967.30259	0.01965
1966.33822	0.02086
1965.37386	0.0229
1964.4095	0.02373
1963.44513	0.02364
1962.48077	0.02341
1961.5164	0.02328
1960.55204	0.02337
1959.58768	0.02338
1958.62331	0.02322
1957.65895	0.02316
1956.69458	0.02305
1955.73022	0.02258
1954.76586	0.02228
1953.80149	0.0226
1952.83713	0.02312
1951.87276	0.02345
1950.9084	0.02346
1949.94404	0.02308
1948.97967	0.02266
1948.01531	0.02222
1947.05094	0.02134
1946.08658	0.02043
1945.12222	0.02018
1944.15785	0.01889
1943.19349	0.01591
1942.22912	0.01583
1941.26476	0.01943
1940.3004	0.02178
1939.33603	0.0223
1938.37167	0.02253
1937.4073	0.02275
1936.44294	0.02279
1935.47858	0.02258
1934.51421	0.02228
1933.54985	0.02222
1932.58548	0.02255
1931.62112	0.0229
1930.65676	0.02296
1929.69239	0.02306
1928.72803	0.02339
1927.76366	0.02371
1926.7993	0.02373
1925.83494	0.02342
1924.87057	0.02206
1923.90621	0.01887
1922.94184	0.01683
1921.97748	0.01918
1921.01312	0.0223
1920.04875	0.02255
1919.08439	0.02011
1918.12002	0.01846
1917.15566	0.02081
1916.1913	0.02352
1915.22693	0.02454
1914.26257	0.02508
1913.2982	0.0256
1912.33384	0.02549
1911.36948	0.02406
1910.40511	0.02236
1909.44075	0.02239
1908.47638	0.02366
1907.51202	0.02519
1906.54766	0.02677
1905.58329	0.02772
1904.61893	0.02821
1903.65456	0.02885
1902.6902	0.02925
1901.72583	0.02947
1900.76147	0.03002
1899.79711	0.03073
1898.83274	0.03112
1897.86838	0.03101
1896.90401	0.03006
1895.93965	0.02858
1894.97529	0.02883
1894.01092	0.03121
1893.04656	0.03302
1892.08219	0.03335
1891.11783	0.03194
1890.15347	0.02966
1889.1891	0.03066
1888.22474	0.0346
1887.26037	0.03712
1886.29601	0.03792
1885.33165	0.0382
1884.36728	0.03894
1883.40292	0.04015
1882.43855	0.04118
1881.47419	0.04186
1880.50983	0.04235
1879.54546	0.04268
1878.5811	0.04315
1877.61673	0.04374
1876.65237	0.04438
1875.68801	0.04499
1874.72364	0.04551
1873.75928	0.04581
1872.79491	0.04582
1871.83055	0.04482
1870.86619	0.04187
1869.90182	0.03699
1868.93746	0.03375
1867.97309	0.03603
1867.00873	0.041
1866.04437	0.04581
1865.08	0.04926
1864.11564	0.05103
1863.15127	0.05177
1862.18691	0.05217
1861.22255	0.05273
1860.25818	0.05349
1859.29382	0.05406
1858.32945	0.05498
1857.36509	0.05663
1856.40073	0.05814
1855.43636	0.05911
1854.472	0.05992
1853.50763	0.06085
1852.54327	0.06202
1851.57891	0.06321
1850.61454	0.06401
1849.65018	0.06369
1848.68581	0.06233
1847.72145	0.06234
1846.75709	0.0638
1845.79272	0.06265
1844.82836	0.05927
1843.86399	0.0619
1842.89963	0.06926
1841.93527	0.07467
1840.9709	0.07839
1840.00654	0.08108
1839.04217	0.08251
1838.07781	0.08291
1837.11345	0.08429
1836.14908	0.08778
1835.18472	0.09121
1834.22035	0.09346
1833.25599	0.09559
1832.29163	0.09707
1831.32726	0.09542
1830.3629	0.09134
1829.39853	0.09439
1828.43417	0.10435
1827.46981	0.1105
1826.50544	0.11145
1825.54108	0.11173
1824.57671	0.11745
1823.61235	0.12452
1822.64799	0.12964
1821.68362	0.13459
1820.71926	0.13979
1819.75489	0.14469
1818.79053	0.14887
1817.82617	0.15312
1816.8618	0.15889
1815.89744	0.16574
1814.93307	0.1724
1813.96871	0.17817
1813.00435	0.18276
1812.03998	0.18668
1811.07562	0.19288
1810.11125	0.20342
1809.14689	0.21384
1808.18253	0.22221
1807.21816	0.23126
1806.2538	0.24115
1805.28943	0.25063
1804.32507	0.25912
1803.36071	0.26571
1802.39634	0.27244
1801.43198	0.28132
1800.46761	0.29097
1799.50325	0.30336
1798.53889	0.31711
1797.57452	0.32678
1796.61016	0.33433
1795.64579	0.34531
1794.68143	0.35679
1793.71707	0.36371
1792.7527	0.37049
1791.78834	0.38496
1790.82397	0.40405
1789.85961	0.42262
1788.89525	0.43904
1787.93088	0.45485
1786.96652	0.47036
1786.00215	0.48482
1785.03779	0.50167
1784.07343	0.52118
1783.10906	0.53719
1782.1447	0.54734
1781.18033	0.55342
1780.21597	0.55775
1779.25161	0.55836
1778.28724	0.55221
1777.32288	0.53858
1776.35851	0.51797
1775.39415	0.49591
1774.42979	0.48038
1773.46542	0.46662
1772.50106	0.44829
1771.53669	0.43672
1770.57233	0.43234
1769.60797	0.42339
1768.6436	0.40512
1767.67924	0.38465
1766.71487	0.37332
1765.75051	0.36538
1764.78615	0.35722
1763.82178	0.34964
1762.85742	0.34144
1761.89305	0.33536
1760.92869	0.33855
1759.96432	0.34451
1758.99996	0.34821
1758.0356	0.35113
1757.07123	0.35874
1756.10687	0.3747
1755.1425	0.39179
1754.17814	0.40691
1753.21378	0.41964
1752.24941	0.42999
1751.28505	0.44373
1750.32068	0.45661
1749.35632	0.45729
1748.39196	0.44789
1747.42759	0.43472
1746.46323	0.42073
1745.49886	0.40636
1744.5345	0.39086
1743.57014	0.37579
1742.60577	0.36739
1741.64141	0.36201
1740.67704	0.35204
1739.71268	0.34066
1738.74832	0.33884
1737.78395	0.34049
1736.81959	0.34004
1735.85522	0.33584
1734.89086	0.32484
1733.9265	0.31671
1732.96213	0.32853
1731.99777	0.3375
1731.0334	0.34016
1730.06904	0.344
1729.10468	0.35454
1728.14031	0.36554
1727.17595	0.3749
1726.21158	0.38436
1725.24722	0.39283
1724.28286	0.39954
1723.31849	0.40762
1722.35413	0.41847
1721.38976	0.42971
1720.4254	0.43861
1719.46104	0.44286
1718.49667	0.44644
1717.53231	0.46794
1716.56794	0.49154
1715.60358	0.50485
1714.63922	0.5204
1713.67485	0.53817
1712.71049	0.55008
1711.74612	0.55402
1710.78176	0.549
1709.8174	0.53687
1708.85303	0.52074
1707.88867	0.49899
1706.9243	0.46641
1705.95994	0.42963
1704.99558	0.40078
1704.03121	0.37725
1703.06685	0.35917
1702.10248	0.34415
1701.13812	0.32241
1700.17376	0.28134
1699.20939	0.26682
1698.24503	0.26382
1697.28066	0.25586
1696.3163	0.24412
1695.35194	0.24275
1694.38757	0.24881
1693.42321	0.25213
1692.45884	0.25274
1691.49448	0.25099
1690.53012	0.24756
1689.56575	0.24514
1688.60139	0.24628
1687.63702	0.24991
1686.67266	0.25115
1685.7083	0.24521
1684.74393	0.22874
1683.77957	0.23213
1682.8152	0.2518
1681.85084	0.25889
1680.88648	0.25866
1679.92211	0.26036
1678.95775	0.26683
1677.99338	0.27082
1677.02902	0.26955
1676.06466	0.26443
1675.10029	0.26408
1674.13593	0.27178
1673.17156	0.27589
1672.2072	0.27597
1671.24284	0.27634
1670.27847	0.27835
1669.31411	0.28629
1668.34974	0.30642
1667.38538	0.32578
1666.42102	0.34131
1665.45665	0.35539
1664.49229	0.36704
1663.52792	0.37786
1662.56356	0.39623
1661.5992	0.41745
1660.63483	0.43244
1659.67047	0.44277
1658.7061	0.44897
1657.74174	0.45154
1656.77738	0.45095
1655.81301	0.44684
1654.84865	0.43642
1653.88428	0.41243
1652.91992	0.38404
1651.95556	0.38521
1650.99119	0.38296
1650.02683	0.37316
1649.06246	0.35513
1648.0981	0.32719
1647.13374	0.29887
1646.16937	0.28814
1645.20501	0.28952
1644.24064	0.28941
1643.27628	0.28417
1642.31192	0.27554
1641.34755	0.26622
1640.38319	0.25698
1639.41882	0.24738
1638.45446	0.23523
1637.4901	0.22028
1636.52573	0.20632
1635.56137	0.19917
1634.597	0.20533
1633.63264	0.21069
1632.66828	0.21178
1631.70391	0.21112
1630.73955	0.21046
1629.77518	0.20919
1628.81082	0.2066
1627.84646	0.20647
1626.88209	0.21087
1625.91773	0.2123
1624.95336	0.20646
1623.989	0.19247
1623.02464	0.17952
1622.06027	0.17782
1621.09591	0.17803
1620.13154	0.17664
1619.16718	0.17434
1618.20281	0.17033
1617.23845	0.1675
1616.27409	0.17905
1615.30972	0.19351
1614.34536	0.20061
1613.38099	0.20358
1612.41663	0.20372
1611.45227	0.20057
1610.4879	0.19283
1609.52354	0.18132
1608.55917	0.1697
1607.59481	0.15834
1606.63045	0.14743
1605.66608	0.13822
1604.70172	0.12874
1603.73735	0.11887
1602.77299	0.11156
1601.80863	0.10745
1600.84426	0.10448
1599.8799	0.10181
1598.91553	0.09932
1597.95117	0.09656
1596.98681	0.09318
1596.02244	0.08895
1595.05808	0.08477
1594.09371	0.08218
1593.12935	0.08081
1592.16499	0.07842
1591.20062	0.07436
1590.23626	0.06991
1589.27189	0.06621
1588.30753	0.06341
1587.34317	0.06026
1586.3788	0.05635
1585.41444	0.05207
1584.45007	0.04777
1583.48571	0.04354
1582.52135	0.03912
1581.55698	0.03429
1580.59262	0.02917
1579.62825	0.02402
1578.66389	0.01838
1577.69953	0.01019
1576.73516	0
1575.7708	8.9124E-4
1574.80643	0.01053
1573.84207	0.01655
1572.87771	0.01954
1571.91334	0.0198
1570.94898	0.01616
1569.98461	0.01125
1569.02025	0.01901
1568.05589	0.03243
1567.09152	0.03963
1566.12716	0.04228
1565.16279	0.04606
1564.19843	0.05563
1563.23407	0.06425
1562.2697	0.06681
1561.30534	0.06302
1560.34097	0.05016
1559.37661	0.02368
1558.41225	0.0351
1557.44788	0.06403
1556.48352	0.07437
1555.51915	0.07581
1554.55479	0.07536
1553.59043	0.08034
1552.62606	0.08499
1551.6617	0.08434
1550.69733	0.08022
1549.73297	0.08273
1548.76861	0.09367
1547.80424	0.1014
1546.83988	0.10337
1545.87551	0.10133
1544.91115	0.10145
1543.94679	0.10631
1542.98242	0.11005
1542.01806	0.11371
1541.05369	0.11653
1540.08933	0.11891
1539.12497	0.14826
1538.1606	0.17898
1537.19624	0.19389
1536.23187	0.20189
1535.26751	0.2048
1534.30315	0.20355
1533.33878	0.20666
1532.37442	0.21714
1531.41005	0.22651
1530.44569	0.2315
1529.48133	0.22966
1528.51696	0.22152
1527.5526	0.21323
1526.58823	0.20716
1525.62387	0.19842
1524.65951	0.19039
1523.69514	0.18321
1522.73078	0.16907
1521.76641	0.14657
1520.80205	0.13642
1519.83769	0.14052
1518.87332	0.13975
1517.90896	0.12818
1516.94459	0.11036
1515.98023	0.10677
1515.01587	0.10925
1514.0515	0.10807
1513.08714	0.10204
1512.12277	0.09335
1511.15841	0.08556
1510.19405	0.07566
1509.22968	0.06065
1508.26532	0.0427
1507.30095	0.02297
1506.33659	0.02355
1505.37223	0.04465
1504.40786	0.05518
1503.4435	0.05805
1502.47913	0.05641
1501.51477	0.05347
1500.55041	0.05046
1499.58604	0.0455
1498.62168	0.04106
1497.65731	0.03976
1496.69295	0.03897
1495.72859	0.04328
1494.76422	0.0513
1493.79986	0.05704
1492.83549	0.05976
1491.87113	0.05826
1490.90677	0.0527
1489.9424	0.05535
1488.97804	0.07176
1488.01367	0.0886
1487.04931	0.10751
1486.08495	0.12801
1485.12058	0.14504
1484.15622	0.15728
1483.19185	0.16251
1482.22749	0.15923
1481.26312	0.15119
1480.29876	0.14526
1479.3344	0.14165
1478.37003	0.13702
1477.40567	0.12982
1476.4413	0.12162
1475.47694	0.11849
1474.51258	0.11717
1473.54821	0.11254
1472.58385	0.11466
1471.61948	0.13422
1470.65512	0.15282
1469.69076	0.16545
1468.72639	0.17458
1467.76203	0.18084
1466.79766	0.18376
1465.8333	0.18376
1464.86894	0.1867
1463.90457	0.19522
1462.94021	0.20048
1461.97584	0.20091
1461.01148	0.1977
1460.04712	0.19053
1459.08275	0.17821
1458.11839	0.16463
1457.15402	0.16241
1456.18966	0.17617
1455.2253	0.19226
1454.26093	0.20573
1453.29657	0.21536
1452.3322	0.22305
1451.36784	0.23112
1450.40348	0.23587
1449.43911	0.23348
1448.47475	0.22485
1447.51038	0.21811
1446.54602	0.21825
1445.58166	0.21946
1444.61729	0.21931
1443.65293	0.21859
1442.68856	0.21813
1441.7242	0.21849
1440.75984	0.219
1439.79547	0.21818
1438.83111	0.21481
1437.86674	0.20828
1436.90238	0.20112
1435.93802	0.20445
1434.97365	0.21134
1434.00929	0.21478
1433.04492	0.21772
1432.08056	0.22235
1431.1162	0.22659
1430.15183	0.23145
1429.18747	0.24099
1428.2231	0.25316
1427.25874	0.26605
1426.29438	0.27853
1425.33001	0.288
1424.36565	0.29833
1423.40128	0.31758
1422.43692	0.3383
1421.47256	0.351
1420.50819	0.35509
1419.54383	0.35372
1418.57946	0.35637
1417.6151	0.36169
1416.65074	0.36509
1415.68637	0.36711
1414.72201	0.36829
1413.75764	0.36947
1412.79328	0.37123
1411.82892	0.374
1410.86455	0.37745
1409.90019	0.38053
1408.93582	0.38328
1407.97146	0.38557
1407.0071	0.38581
1406.04273	0.38198
1405.07837	0.37607
1404.114	0.37405
1403.14964	0.37391
1402.18528	0.37113
1401.22091	0.36521
1400.25655	0.35706
1399.29218	0.34948
1398.32782	0.34849
1397.36346	0.35017
1396.39909	0.34738
1395.43473	0.34133
1394.47036	0.34186
1393.506	0.35082
1392.54164	0.35935
1391.57727	0.36624
1390.61291	0.37359
1389.64854	0.3805
1388.68418	0.38311
1387.71982	0.37913
1386.75545	0.37275
1385.79109	0.36713
1384.82672	0.35897
1383.86236	0.34781
1382.898	0.33603
1381.93363	0.32552
1380.96927	0.31731
1380.0049	0.3121
1379.04054	0.31023
1378.07618	0.31162
1377.11181	0.31487
1376.14745	0.3175
1375.18308	0.31981
1374.21872	0.32497
1373.25436	0.33102
1372.28999	0.33111
1371.32563	0.32441
1370.36126	0.31391
1369.3969	0.30254
1368.43254	0.29355
1367.46817	0.28905
1366.50381	0.2863
1365.53944	0.28244
1364.57508	0.27478
1363.61072	0.26033
1362.64635	0.24423
1361.68199	0.23544
1360.71762	0.23108
1359.75326	0.22795
1358.7889	0.22508
1357.82453	0.22342
1356.86017	0.22455
1355.8958	0.22804
1354.93144	0.23397
1353.96708	0.24257
1353.00271	0.25245
1352.03835	0.26346
1351.07398	0.27565
1350.10962	0.2882
1349.14526	0.30118
1348.18089	0.31504
1347.21653	0.33012
1346.25216	0.34662
1345.2878	0.36414
1344.32344	0.38197
1343.35907	0.40001
1342.39471	0.41712
1341.43034	0.43119
1340.46598	0.44345
1339.50161	0.4579
1338.53725	0.474
1337.57289	0.48701
1336.60852	0.49563
1335.64416	0.50019
1334.67979	0.49985
1333.71543	0.49496
1332.75107	0.48703
1331.7867	0.47703
1330.82234	0.46506
1329.85797	0.45159
1328.89361	0.43795
1327.92925	0.42465
1326.96488	0.41099
1326.00052	0.39606
1325.03615	0.37999
1324.07179	0.36389
1323.10743	0.34896
1322.14306	0.33464
1321.1787	0.31942
1320.21433	0.3033
1319.24997	0.28923
1318.28561	0.28015
1317.32124	0.27501
1316.35688	0.27157
1315.39251	0.26906
1314.42815	0.26808
1313.46379	0.27036
1312.49942	0.27723
1311.53506	0.2873
1310.57069	0.29817
1309.60633	0.30901
1308.64197	0.31999
1307.6776	0.33079
1306.71324	0.34011
1305.74887	0.34693
1304.78451	0.35093
1303.82015	0.35126
1302.85578	0.34674
1301.89142	0.33765
1300.92705	0.32614
1299.96269	0.31455
1298.99833	0.30371
1298.03396	0.2927
1297.0696	0.28048
1296.10523	0.26771
1295.14087	0.25579
1294.17651	0.24526
1293.21214	0.23591
1292.24778	0.22757
1291.28341	0.22054
1290.31905	0.21548
1289.35469	0.21169
1288.39032	0.20755
1287.42596	0.20266
1286.46159	0.19791
1285.49723	0.19394
1284.53287	0.1911
1283.5685	0.18943
1282.60414	0.18888
1281.63977	0.18975
1280.67541	0.19242
1279.71105	0.19644
1278.74668	0.20102
1277.78232	0.20598
1276.81795	0.21229
1275.85359	0.2209
1274.88923	0.23138
1273.92486	0.24234
1272.9605	0.25291
1271.99613	0.26383
1271.03177	0.27575
1270.06741	0.28749
1269.10304	0.29748
1268.13868	0.30558
1267.17431	0.31257
1266.20995	0.31941
1265.24559	0.32574
1264.28122	0.33032
1263.31686	0.33263
1262.35249	0.33302
1261.38813	0.33138
1260.42377	0.32769
1259.4594	0.32266
1258.49504	0.31719
1257.53067	0.3128
1256.56631	0.31088
1255.60195	0.31138
1254.63758	0.31321
1253.67322	0.31589
1252.70885	0.31941
1251.74449	0.32336
1250.78013	0.32656
1249.81576	0.3281
1248.8514	0.32825
1247.88703	0.32858
1246.92267	0.32998
1245.95831	0.33167
1244.99394	0.33265
1244.02958	0.33277
1243.06521	0.332
1242.10085	0.32974
1241.13649	0.32552
1240.17212	0.31996
1239.20776	0.31483
1238.24339	0.31172
1237.27903	0.31095
1236.31467	0.3114
1235.3503	0.31229
1234.38594	0.31425
1233.42157	0.31853
1232.45721	0.3254
1231.49285	0.33374
1230.52848	0.34229
1229.56412	0.35084
1228.59975	0.36048
1227.63539	0.37207
1226.67103	0.38529
1225.70666	0.39948
1224.7423	0.41423
1223.77793	0.42815
1222.81357	0.43873
1221.84921	0.44333
1220.88484	0.44111
1219.92048	0.43384
1218.95611	0.42437
1217.99175	0.41483
1217.02739	0.40608
1216.06302	0.39837
1215.09866	0.39194
1214.13429	0.38695
1213.16993	0.38281
1212.20557	0.37862
1211.2412	0.3743
1210.27684	0.37057
1209.31247	0.36804
1208.34811	0.36676
1207.38375	0.36614
1206.41938	0.36575
1205.45502	0.36558
1204.49065	0.36508
1203.52629	0.36303
1202.56193	0.35823
1201.59756	0.35047
1200.6332	0.34122
1199.66883	0.33277
1198.70447	0.32667
1197.7401	0.32339
1196.77574	0.32262
1195.81138	0.32371
1194.84701	0.32588
1193.88265	0.32816
1192.91828	0.32963
1191.95392	0.33002
1190.98956	0.32978
1190.02519	0.32913
1189.06083	0.3279
1188.09646	0.32609
1187.1321	0.32438
1186.16774	0.32354
1185.20337	0.32383
1184.23901	0.32508
1183.27464	0.32737
1182.31028	0.33103
1181.34592	0.33664
1180.38155	0.34459
1179.41719	0.35495
1178.45282	0.36767
1177.48846	0.38268
1176.5241	0.39938
1175.55973	0.41636
1174.59537	0.43197
1173.631	0.44489
1172.66664	0.4544
1171.70228	0.4606
1170.73791	0.46419
1169.77355	0.46628
1168.80918	0.46862
1167.84482	0.47315
1166.88046	0.48119
1165.91609	0.49319
1164.95173	0.509
1163.98736	0.528
1163.023	0.54959
1162.05864	0.57289
1161.09427	0.59614
1160.12991	0.61715
1159.16554	0.63415
1158.20118	0.64548
1157.23682	0.64953
1156.27245	0.64533
1155.30809	0.63324
1154.34372	0.6151
1153.37936	0.59329
1152.415	0.56874
1151.45063	0.54166
1150.48627	0.51292
1149.5219	0.48408
1148.55754	0.45633
1147.59318	0.42999
1146.62881	0.40523
1145.66445	0.38248
1144.70008	0.3621
1143.73572	0.3443
1142.77136	0.32938
1141.80699	0.31775
1140.84263	0.30965
1139.87826	0.30483
1138.9139	0.30182
1137.94954	0.29924
1136.98517	0.29703
1136.02081	0.2958
1135.05644	0.29628
1134.09208	0.29881
1133.12772	0.30334
1132.16335	0.30989
1131.19899	0.31854
1130.23462	0.32907
1129.27026	0.34042
1128.3059	0.35135
1127.34153	0.36152
1126.37717	0.37176
1125.4128	0.3833
1124.44844	0.39662
1123.48408	0.41115
1122.51971	0.42611
1121.55535	0.44117
1120.59098	0.45627
1119.62662	0.4715
1118.66226	0.48711
1117.69789	0.50328
1116.73353	0.52029
1115.76916	0.53855
1114.8048	0.55782
1113.84044	0.57729
1112.87607	0.59618
1111.91171	0.6141
1110.94734	0.63121
1109.98298	0.64757
1109.01862	0.66216
1108.05425	0.67387
1107.08989	0.68286
1106.12552	0.69033
1105.16116	0.69691
1104.1968	0.70223
1103.23243	0.70524
1102.26807	0.70505
1101.3037	0.70105
1100.33934	0.69358
1099.37498	0.68414
1098.41061	0.67433
1097.44625	0.66517
1096.48188	0.65679
1095.51752	0.64853
1094.55316	0.63939
1093.58879	0.62964
1092.62443	0.6212
1091.66006	0.61665
1090.6957	0.61778
1089.73134	0.62494
1088.76697	0.63727
1087.80261	0.65342
1086.83824	0.67211
1085.87388	0.69223
1084.90952	0.71355
1083.94515	0.73677
1082.98079	0.76219
1082.01642	0.78877
1081.05206	0.81433
1080.0877	0.83688
1079.12333	0.85497
1078.15897	0.86666
1077.1946	0.86892
1076.23024	0.8601
1075.26588	0.84177
1074.30151	0.81777
1073.33715	0.79206
1072.37278	0.76749
1071.40842	0.74612
1070.44406	0.73027
1069.47969	0.72285
1068.51533	0.72583
1067.55096	0.7393
1066.5866	0.7619
1065.62224	0.79192
1064.65787	0.82697
1063.69351	0.86318
1062.72914	0.89571
1061.76478	0.92081
1060.80042	0.93739
1059.83605	0.94625
1058.87169	0.94792
1057.90732	0.94201
1056.94296	0.92842
1055.97859	0.90845
1055.01423	0.88494
1054.04987	0.86215
1053.0855	0.84415
1052.12114	0.83355
1051.15677	0.83249
1050.19241	0.84246
1049.22805	0.86255
1048.26368	0.8898
1047.29932	0.92105
1046.33495	0.95261
1045.37059	0.97914
1044.40623	0.99576
1043.44186	1
1042.4775	0.99294
1041.51313	0.97875
1040.54877	0.96189
1039.58441	0.94449
1038.62004	0.92652
1037.65568	0.90823
1036.69131	0.89093
1035.72695	0.87619
1034.76259	0.86383
1033.79822	0.85241
1032.83386	0.84164
1031.86949	0.83253
1030.90513	0.82569
1029.94077	0.82032
1028.9764	0.81526
1028.01204	0.81022
1027.04767	0.8061
1026.08331	0.80263
1025.11895	0.79762
1024.15458	0.78924
1023.19022	0.77813
1022.22585	0.76741
1021.26149	0.76023
1020.29713	0.75712
1019.33276	0.75649
1018.3684	0.75726
1017.40403	0.75982
1016.43967	0.76473
1015.47531	0.77109
1014.51094	0.77666
1013.54658	0.7803
1012.58221	0.78234
1011.61785	0.78227
1010.65349	0.77818
1009.68912	0.76851
1008.72476	0.75396
1007.76039	0.73676
1006.79603	0.71874
1005.83167	0.7006
1004.8673	0.68308
1003.90294	0.66798
1002.93857	0.65769
1001.97421	0.65285
1001.00985	0.65104
1000.04548	0.64882
999.08112	0.64405
998.11675	0.63644
997.15239	0.62639
996.18803	0.61345
995.22366	0.59738
994.2593	0.58018
993.29493	0.56452
992.33057	0.55156
991.36621	0.54048
990.40184	0.52985
989.43748	0.5192
988.47311	0.50901
987.50875	0.4986
986.54439	0.48632
985.58002	0.47152
984.61566	0.45579
983.65129	0.44088
982.68693	0.42652
981.72257	0.41117
980.7582	0.39455
979.79384	0.37824
978.82947	0.36364
977.86511	0.35019
976.90075	0.3361
975.93638	0.3207
974.97202	0.30569
974.00765	0.29309
973.04329	0.2822
972.07893	0.27076
971.11456	0.25854
970.1502	0.24775
969.18583	0.23973
968.22147	0.23322
967.25711	0.22665
966.29274	0.22033
965.32838	0.21638
964.36401	0.21626
963.39965	0.21925
962.43529	0.22368
961.47092	0.22963
960.50656	0.23857
959.54219	0.25059
958.57783	0.26329
957.61347	0.27483
956.6491	0.28685
955.68474	0.30275
954.72037	0.32296
953.75601	0.34327
952.79165	0.35785
951.82728	0.36356
950.86292	0.36129
949.89855	0.35371
948.93419	0.34286
947.96983	0.33055
947.00546	0.31993
946.0411	0.31434
945.07673	0.31431
944.11237	0.31745
943.14801	0.32123
942.18364	0.32515
941.21928	0.32932
940.25491	0.33204
939.29055	0.33009
938.32619	0.32207
937.36182	0.31005
936.39746	0.29721
935.43309	0.28441
934.46873	0.2702
933.50437	0.2543
932.54	0.23881
931.57564	0.22584
930.61127	0.215
929.64691	0.20404
928.68255	0.19262
927.71818	0.18315
926.75382	0.17747
925.78945	0.17421
924.82509	0.17101
923.86073	0.16735
922.89636	0.16482
921.932	0.16392
920.96763	0.16202
920.00327	0.1559
919.03891	0.14578
918.07454	0.13487
917.11018	0.12569
916.14581	0.11791
915.18145	0.10974
914.21708	0.10123
913.25272	0.09439
912.28836	0.08986
911.32399	0.08531
910.35963	0.07847
909.39526	0.07056
908.4309	0.06522
907.46654	0.06372
906.50217	0.06375
905.53781	0.06271
904.57344	0.06069
903.60908	0.05938
902.64472	0.05864
901.68035	0.05587
900.71599	0.04943
899.75162	0.04122
898.78726	0.03479
897.8229	0.03132
896.85853	0.02883
895.89417	0.0257
894.9298	0.02349
893.96544	0.02516
893.00108	0.03109
892.03671	0.03916
891.07235	0.04928
890.10798	0.06549
889.14362	0.09197
888.17926	0.12464
887.21489	0.14887
886.25053	0.15251
885.28616	0.13988
884.3218	0.12441
883.35744	0.1128
882.39307	0.1036
881.42871	0.09483
880.46434	0.0876
879.49998	0.08384
878.53562	0.08268
877.57125	0.08138
876.60689	0.07928
875.64252	0.07906
874.67816	0.0832
873.7138	0.09067
872.74943	0.09898
871.78507	0.1085
870.8207	0.12276
869.85634	0.14328
868.89198	0.16634
867.92761	0.1859
866.96325	0.19876
865.99888	0.20587
865.03452	0.2091
864.07016	0.20833
863.10579	0.20271
862.14143	0.19396
861.17706	0.18527
860.2127	0.17801
859.24834	0.17069
858.28397	0.16182
857.31961	0.15271
856.35524	0.1464
855.39088	0.14336
854.42652	0.1402
853.46215	0.13387
852.49779	0.12558
851.53342	0.11912
850.56906	0.11606
849.6047	0.11504
848.64033	0.11492
847.67597	0.1169
846.7116	0.12268
845.74724	0.13084
844.78288	0.13689
843.81851	0.138
842.85415	0.13573
841.88978	0.13306
840.92542	0.13033
839.96106	0.12558
838.99669	0.11814
838.03233	0.11019
837.06796	0.10414
836.1036	0.09949
835.13924	0.09341
834.17487	0.08517
833.21051	0.07741
832.24614	0.07291
831.28178	0.07081
830.31742	0.06828
829.35305	0.06454
828.38869	0.06209
827.42432	0.06329
826.45996	0.06712
825.4956	0.0708
824.53123	0.0741
823.56687	0.07933
822.6025	0.08738
821.63814	0.09554
820.67378	0.10019
819.70941	0.1006
818.74505	0.0993
817.78068	0.09826
816.81632	0.09686
815.85196	0.0939
814.88759	0.09023
813.92323	0.08801
812.95886	0.08768
811.9945	0.0871
811.03014	0.08444
810.06577	0.08112
809.10141	0.07986
808.13704	0.08095
807.17268	0.08167
806.20832	0.08029
805.24395	0.07834
804.27959	0.07851
803.31522	0.0808
802.35086	0.08227
801.3865	0.08091
800.42213	0.07807
799.45777	0.07605
798.4934	0.07465
797.52904	0.07192
796.56468	0.06744
795.60031	0.06325
794.63595	0.06113
793.67158	0.06052
792.70722	0.05917
791.74286	0.05635
790.77849	0.05459
789.81413	0.05628
788.84976	0.06035
787.8854	0.06406
786.92104	0.06658
785.95667	0.06991
784.99231	0.07535
784.02794	0.0812
783.06358	0.08499
782.09922	0.08761
781.13485	0.09301
780.17049	0.10305
779.20612	0.11454
778.24176	0.12208
777.2774	0.12391
776.31303	0.12283
775.34867	0.12136
774.3843	0.11921
773.41994	0.11579
772.45557	0.11321
771.49121	0.11456
770.52685	0.12014
769.56248	0.12711
768.59812	0.13301
767.63375	0.13879
766.66939	0.14691
765.70503	0.15758
764.74066	0.16854
763.7763	0.17793
762.81193	0.18629
761.84757	0.19472
760.88321	0.20183
759.91884	0.20416
758.95448	0.20065
757.99011	0.19424
757.02575	0.18918
756.06139	0.18732
755.09702	0.18763
754.13266	0.18948
753.16829	0.19423
752.20393	0.20242
751.23957	0.21148
750.2752	0.21733
749.31084	0.21829
748.34647	0.2161
747.38211	0.21275
746.41775	0.20807
745.45338	0.20065
744.48902	0.19113
743.52465	0.18229
742.56029	0.17574
741.59593	0.17024
740.63156	0.16378
739.6672	0.15656
738.70283	0.15051
737.73847	0.14639
736.77411	0.14265
735.80974	0.13766
734.84538	0.13212
733.88101	0.12831
732.91665	0.1272
731.95229	0.1271
730.98792	0.12583
730.02356	0.12378
729.05919	0.1231
728.09483	0.12423
727.13047	0.12529
726.1661	0.1251
725.20174	0.12471
724.23737	0.12589
723.27301	0.12897
722.30865	0.13244
721.34428	0.13506
720.37992	0.13776
719.41555	0.14222
718.45119	0.14838
717.48683	0.15441
716.52246	0.15922
715.5581	0.16392
714.59373	0.1696
713.62937	0.17526
712.66501	0.17861
711.70064	0.17883
710.73628	0.1775
709.77191	0.17555
708.80755	0.17203
707.84319	0.16625
706.87882	0.15902
705.91446	0.15222
704.95009	0.14721
703.98573	0.14357
703.02137	0.13976
702.057	0.13567
701.09264	0.1327
700.12827	0.13166
699.16391	0.1313
698.19955	0.13007
697.23518	0.12843
696.27082	0.12785
695.30645	0.12845
694.34209	0.12879
693.37773	0.12799
692.41336	0.12712
691.449	0.12722
690.48463	0.12804
689.52027	0.12845
688.55591	0.12811
687.59154	0.12803
686.62718	0.12916
685.66281	0.13092
684.69845	0.13172
683.73409	0.13118
682.76972	0.13106
681.80536	0.13263
680.84099	0.13499
679.87663	0.13653
678.91227	0.13735
677.9479	0.13886
676.98354	0.14149
676.01917	0.14368
675.05481	0.14389
674.09045	0.1424
673.12608	0.14049
672.16172	0.13885
671.19735	0.13762
670.23299	0.1376
669.26863	0.13957
668.30426	0.13868
667.3399	0.12883
666.37553	0.12321
665.41117	0.12027
664.44681	0.1182
663.48244	0.1174
662.51808	0.11793
661.55371	0.11865
660.58935	0.11836
659.62499	0.11744
658.66062	0.11737
657.69626	0.11867
656.73189	0.12026
655.76753	0.12115
654.80317	0.12163
653.8388	0.12279
652.87444	0.12447
651.91007	0.12546
650.94571	0.1255
649.98135	0.1255
649.01698	0.12579
648.05262	0.12596
647.08825	0.12545
646.12389	0.12369
645.15953	0.12123
644.19516	0.11947
643.2308	0.1186
642.26643	0.11759
641.30207	0.11605
640.33771	0.11494
639.37334	0.11491
638.40898	0.11532
637.44461	0.1152
636.48025	0.11431
635.51589	0.11375
634.55152	0.11481
633.58716	0.11649
632.62279	0.11712
631.65843	0.11654
630.69406	0.11572
629.7297	0.11553
628.76534	0.11538
627.80097	0.11427
626.83661	0.1122
625.87224	0.11051
624.90788	0.11128
623.94352	0.11434
622.97915	0.11728
622.01479	0.11956
621.05042	0.12277
620.08606	0.1278
619.1217	0.13385
618.15733	0.13987
617.19297	0.14481
616.2286	0.149
615.26424	0.15413
614.29988	0.15998
613.33551	0.1654
612.37115	0.17055
611.40678	0.17624
610.44242	0.1831
609.47806	0.191
608.51369	0.19847
607.54933	0.20432
606.58496	0.20878
605.6206	0.21201
604.65624	0.21352
603.69187	0.21287
602.72751	0.21056
601.76314	0.20733
600.79878	0.204
599.83442	0.20181
598.87005	0.20116
597.90569	0.20113
596.94132	0.20135
595.97696	0.20262
595.0126	0.20645
594.04823	0.21221
593.08387	0.21587
592.1195	0.21597
591.15514	0.21563
590.19078	0.21555
589.22641	0.21348
588.26205	0.20905
587.29768	0.20399
586.33332	0.20095
585.36896	0.20201
584.40459	0.20815
583.44023	0.21815
582.47586	0.2287
581.5115	0.23802
580.54714	0.24633
579.58277	0.25223
578.61841	0.25394
577.65404	0.25286
576.68968	0.25314
575.72532	0.25868
574.76095	0.2681
573.79659	0.27716
572.83222	0.28448
571.86786	0.29036
570.9035	0.29414
569.93913	0.294
568.97477	0.28949
568.0104	0.28207
567.04604	0.27334
566.08168	0.26404
565.11731	0.25298
564.15295	0.23925
563.18858	0.22544
562.22422	0.21441
561.25986	0.20537
560.29549	0.19593
559.33113	0.18619
558.36676	0.17826
557.4024	0.17344
556.43804	0.17062
555.47367	0.16701
554.50931	0.16282
553.54494	0.16021
552.58058	0.15833
551.61622	0.1551
550.65185	0.15033
549.68749	0.14614
548.72312	0.14421
547.75876	0.14377
546.7944	0.14293
545.83003	0.14112
544.86567	0.13967
543.9013	0.13982
542.93694	0.14049
541.97258	0.13991
541.00821	0.13883
540.04385	0.14025
539.07948	0.1461
538.11512	0.15494
537.15076	0.16368
536.18639	0.17079
535.22203	0.17681
534.25766	0.18199
533.2933	0.18445
532.32894	0.18218
531.36457	0.17731
530.40021	0.17507
529.43584	0.17779
528.47148	0.18213
527.50712	0.18345
526.54275	0.18222
525.57839	0.18393
524.61402	0.18856
523.64966	0.18961
522.6853	0.18475
521.72093	0.17679
520.75657	0.16923
519.7922	0.16323
518.82784	0.15711
517.86348	0.14834
516.89911	0.14106
515.93475	0.14055
514.97038	0.14161
514.00602	0.13927
513.04166	0.13474
512.07729	0.13024
511.11293	0.12713
510.14856	0.12621
509.1842	0.1252
508.21984	0.12117
507.25547	0.11669
506.29111	0.11666
505.32674	0.1189
504.36238	0.11813
503.39802	0.11338
502.43365	0.10953
501.46929	0.11247
500.50492	0.11748
499.54056	0.11856
498.5762	0.11824
497.61183	0.12116
496.64747	0.12711
495.6831	0.13219
494.71874	0.13395
493.75437	0.13368
492.79001	0.13512
491.82565	0.14134
490.86128	0.1489
489.89692	0.15254
488.93255	0.15444
487.96819	0.15858
487.00383	0.16261
486.03946	0.16239
485.0751	0.15841
484.11073	0.1553
483.14637	0.1567
482.18201	0.15797
481.21764	0.15443
480.25328	0.14858
479.28891	0.14474
478.32455	0.14303
477.36019	0.14031
476.39582	0.1351
475.43146	0.12896
474.46709	0.12195
473.50273	0.11125
472.53837	0.09828
471.574	0.09303
470.60964	0.09322
469.64527	0.09187
468.68091	0.09004
467.71655	0.09033
466.75218	0.09165
465.78782	0.09259
464.82345	0.09456
463.85909	0.0969
462.89473	0.09521
461.93036	0.08924
460.966	0.08577
460.00163	0.08663
459.03727	0.08434
458.07291	0.07656
457.10854	0.07723
456.14418	0.08947
455.17981	0.10144
454.21545	0.10814
453.25109	0.11057
452.28672	0.11594
451.32236	0.12555
450.35799	0.13167
449.39363	0.13027
448.42927	0.12283
447.4649	0.11367
446.50054	0.10859
445.53617	0.10649
444.57181	0.0994
443.60745	0.08668
442.64308	0.07774
441.67872	0.07926
440.71435	0.08417
439.74999	0.08316
438.78563	0.07865
437.82126	0.07764
436.8569	0.07949
435.89253	0.08055
434.92817	0.08019
433.96381	0.0785
432.99944	0.07633
432.03508	0.07455
431.07071	0.07243
430.10635	0.07088
429.14199	0.07409
428.17762	0.08218
427.21326	0.08787
426.24889	0.08406
425.28453	0.07266
424.32017	0.063
423.3558	0.06112
422.39144	0.06468
421.42707	0.06297
420.46271	0.05059
419.49835	0.0335
418.53398	0.04666
417.56962	0.07848
416.60525	0.09248
415.64089	0.09452
414.67653	0.09431
413.71216	0.09457
412.7478	0.08956
411.78343	0.07761
410.81907	0.06529
409.85471	0.05621
408.89034	0.04994
407.92598	0.04668
406.96161	0.04827
405.99725	0.0557
405.03289	0.06319
404.06852	0.05986
403.10416	0.04433
402.13979	0.02874
401.17543	0.0229
400.21107	0.02299