3996.41167	0.01457
3994.4829	0.01445
3992.55413	0.01433
3990.62536	0.01422
3988.69659	0.01412
3986.76782	0.01403
3984.83905	0.01395
3982.91028	0.01388
3980.98151	0.01382
3979.05274	0.01376
3977.12397	0.01371
3975.1952	0.01368
3973.26643	0.01365
3971.33766	0.01357
3969.40889	0.01354
3967.48012	0.01355
3965.55135	0.01358
3963.62258	0.01362
3961.69381	0.01369
3959.76504	0.01374
3957.83627	0.01373
3955.9075	0.01371
3953.97873	0.01375
3952.04996	0.01388
3950.12119	0.01407
3948.19242	0.01424
3946.26365	0.01438
3944.33488	0.01445
3942.40611	0.01444
3940.47734	0.01437
3938.54857	0.01435
3936.6198	0.0144
3934.69103	0.01446
3932.76226	0.01452
3930.83349	0.01455
3928.90472	0.01449
3926.97595	0.01426
3925.04718	0.01398
3923.11841	0.01385
3921.18964	0.0139
3919.26087	0.01407
3917.3321	0.01423
3915.40333	0.01429
3913.47456	0.0143
3911.54579	0.01439
3909.61702	0.01457
3907.68825	0.01478
3905.75948	0.015
3903.83071	0.01521
3901.90194	0.0154
3899.97317	0.0156
3898.0444	0.01578
3896.11563	0.0159
3894.18686	0.01599
3892.25809	0.0161
3890.32932	0.01625
3888.40055	0.01636
3886.47178	0.01635
3884.54301	0.01628
3882.61424	0.01622
3880.68547	0.01621
3878.7567	0.01627
3876.82792	0.01637
3874.89915	0.01654
3872.97038	0.0168
3871.04161	0.0171
3869.11284	0.0174
3867.18407	0.01771
3865.2553	0.01798
3863.32653	0.01814
3861.39776	0.01821
3859.46899	0.0183
3857.54022	0.01841
3855.61145	0.01852
3853.68268	0.01857
3851.75391	0.0185
3849.82514	0.01836
3847.89637	0.01823
3845.9676	0.01809
3844.03883	0.01789
3842.11006	0.0176
3840.18129	0.01731
3838.25252	0.0171
3836.32375	0.01698
3834.39498	0.01686
3832.46621	0.01664
3830.53744	0.01637
3828.60867	0.01623
3826.6799	0.01624
3824.75113	0.01621
3822.82236	0.01609
3820.89359	0.01592
3818.96482	0.01575
3817.03605	0.01563
3815.10728	0.01555
3813.17851	0.01551
3811.24974	0.01546
3809.32097	0.01536
3807.3922	0.01519
3805.46343	0.01499
3803.53466	0.01476
3801.60589	0.01447
3799.67712	0.0141
3797.74835	0.01371
3795.81958	0.01338
3793.89081	0.01308
3791.96204	0.01279
3790.03327	0.01252
3788.1045	0.01228
3786.17573	0.01204
3784.24696	0.01181
3782.31819	0.01162
3780.38942	0.01146
3778.46065	0.0114
3776.53188	0.01147
3774.60311	0.01151
3772.67434	0.01145
3770.74557	0.01151
3768.8168	0.0117
3766.88803	0.012
3764.95926	0.01252
3763.03049	0.0132
3761.10172	0.01391
3759.17295	0.01462
3757.24418	0.01517
3755.31541	0.01574
3753.38664	0.01645
3751.45787	0.01712
3749.5291	0.01754
3747.60033	0.01751
3745.67156	0.01722
3743.74279	0.01671
3741.81402	0.0161
3739.88525	0.0153
3737.95648	0.01433
3736.02771	0.01361
3734.09894	0.013
3732.17017	0.01257
3730.2414	0.01201
3728.31263	0.0113
3726.38386	0.01058
3724.45509	0.00997
3722.52632	0.00952
3720.59755	0.00933
3718.66878	0.00939
3716.74001	0.00968
3714.81124	0.00992
3712.88247	0.01018
3710.9537	0.01065
3709.02493	0.01176
3707.09616	0.01326
3705.16739	0.01482
3703.23861	0.01628
3701.30984	0.01757
3699.38107	0.01878
3697.4523	0.02002
3695.52353	0.02158
3693.59476	0.02339
3691.66599	0.02551
3689.73722	0.02804
3687.80845	0.03046
3685.87968	0.03279
3683.95091	0.03478
3682.02214	0.03652
3680.09337	0.03798
3678.1646	0.03927
3676.23583	0.04058
3674.30706	0.04174
3672.37829	0.04264
3670.44952	0.04341
3668.52075	0.0441
3666.59198	0.04497
3664.66321	0.04605
3662.73444	0.0473
3660.80567	0.04841
3658.8769	0.0493
3656.94813	0.04997
3655.01936	0.05037
3653.09059	0.05049
3651.16182	0.0507
3649.23305	0.0512
3647.30428	0.05168
3645.37551	0.05218
3643.44674	0.05281
3641.51797	0.05337
3639.5892	0.05399
3637.66043	0.05468
3635.73166	0.05549
3633.80289	0.05679
3631.87412	0.05848
3629.94535	0.06033
3628.01658	0.06235
3626.08781	0.06453
3624.15904	0.06691
3622.23027	0.06946
3620.3015	0.07223
3618.37273	0.07502
3616.44396	0.07795
3614.51519	0.08083
3612.58642	0.08374
3610.65765	0.08654
3608.72888	0.08927
3606.80011	0.09212
3604.87134	0.09526
3602.94257	0.09858
3601.0138	0.10179
3599.08503	0.10498
3597.15626	0.10816
3595.22749	0.11135
3593.29872	0.11482
3591.36995	0.11839
3589.44118	0.12208
3587.51241	0.12605
3585.58364	0.13003
3583.65487	0.13401
3581.7261	0.13809
3579.79733	0.14214
3577.86856	0.14609
3575.93979	0.15006
3574.01102	0.15415
3572.08225	0.15818
3570.15348	0.16219
3568.22471	0.16609
3566.29594	0.17015
3564.36717	0.17436
3562.4384	0.17887
3560.50963	0.18356
3558.58086	0.18827
3556.65209	0.19291
3554.72332	0.19748
3552.79455	0.20199
3550.86578	0.20646
3548.93701	0.21091
3547.00824	0.21537
3545.07947	0.21982
3543.1507	0.22437
3541.22193	0.22907
3539.29316	0.23389
3537.36439	0.23875
3535.43562	0.24364
3533.50685	0.24848
3531.57807	0.25322
3529.6493	0.25789
3527.72053	0.26256
3525.79176	0.26727
3523.86299	0.27213
3521.93422	0.2772
3520.00545	0.28251
3518.07668	0.28794
3516.14791	0.29343
3514.21914	0.29891
3512.29037	0.30434
3510.3616	0.30971
3508.43283	0.31503
3506.50406	0.32031
3504.57529	0.32555
3502.64652	0.3308
3500.71775	0.33612
3498.78898	0.34148
3496.86021	0.34684
3494.93144	0.35218
3493.00267	0.35754
3491.0739	0.36289
3489.14513	0.36821
3487.21636	0.37342
3485.28759	0.37854
3483.35882	0.38363
3481.43005	0.38878
3479.50128	0.39406
3477.57251	0.39944
3475.64374	0.40481
3473.71497	0.41012
3471.7862	0.41535
3469.85743	0.42053
3467.92866	0.42568
3465.99989	0.43083
3464.07112	0.43605
3462.14235	0.44135
3460.21358	0.44667
3458.28481	0.45196
3456.35604	0.45722
3454.42727	0.46245
3452.4985	0.46768
3450.56973	0.47295
3448.64096	0.47824
3446.71219	0.48349
3444.78342	0.48864
3442.85465	0.49371
3440.92588	0.49872
3438.99711	0.50372
3437.06834	0.5087
3435.13957	0.51363
3433.2108	0.51845
3431.28203	0.52312
3429.35326	0.52766
3427.42449	0.5321
3425.49572	0.53647
3423.56695	0.54083
3421.63818	0.54516
3419.70941	0.54945
3417.78064	0.55369
3415.85187	0.55789
3413.9231	0.56204
3411.99433	0.56609
3410.06556	0.57003
3408.13679	0.57389
3406.20802	0.57771
3404.27925	0.58144
3402.35048	0.58503
3400.42171	0.58849
3398.49294	0.59182
3396.56417	0.59505
3394.6354	0.59818
3392.70663	0.60119
3390.77786	0.60408
3388.84909	0.60688
3386.92032	0.60961
3384.99155	0.61227
3383.06278	0.61479
3381.13401	0.61717
3379.20524	0.6194
3377.27647	0.62149
3375.3477	0.62343
3373.41893	0.62528
3371.49016	0.62705
3369.56139	0.62874
3367.63262	0.63035
3365.70385	0.63185
3363.77508	0.63323
3361.84631	0.63449
3359.91753	0.63561
3357.98876	0.63658
3356.05999	0.63741
3354.13122	0.63813
3352.20245	0.63875
3350.27368	0.63924
3348.34491	0.63959
3346.41614	0.63983
3344.48737	0.64
3342.5586	0.64011
3340.62983	0.64015
3338.70106	0.64004
3336.77229	0.6398
3334.84352	0.63943
3332.91475	0.63895
3330.98598	0.63837
3329.05721	0.63771
3327.12844	0.637
3325.19967	0.63626
3323.2709	0.63548
3321.34213	0.63464
3319.41336	0.6337
3317.48459	0.63263
3315.55582	0.63147
3313.62705	0.63025
3311.69828	0.62894
3309.76951	0.62756
3307.84074	0.62611
3305.91197	0.62459
3303.9832	0.62295
3302.05443	0.62122
3300.12566	0.61942
3298.19689	0.61759
3296.26812	0.61571
3294.33935	0.61376
3292.41058	0.61172
3290.48181	0.6096
3288.55304	0.60735
3286.62427	0.605
3284.6955	0.60263
3282.76673	0.60027
3280.83796	0.59791
3278.90919	0.5955
3276.98042	0.59303
3275.05165	0.5905
3273.12288	0.58792
3271.19411	0.5853
3269.26534	0.58265
3267.33657	0.57996
3265.4078	0.57725
3263.47903	0.57456
3261.55026	0.57189
3259.62149	0.5692
3257.69272	0.56647
3255.76395	0.5637
3253.83518	0.56093
3251.90641	0.55817
3249.97764	0.55542
3248.04887	0.55265
3246.1201	0.54983
3244.19133	0.54694
3242.26256	0.54399
3240.33379	0.541
3238.40502	0.53799
3236.47625	0.53494
3234.54748	0.53183
3232.61871	0.52867
3230.68994	0.52546
3228.76117	0.52219
3226.8324	0.51887
3224.90363	0.51548
3222.97486	0.512
3221.04609	0.50843
3219.11732	0.50476
3217.18855	0.50097
3215.25978	0.49707
3213.33101	0.49307
3211.40224	0.48898
3209.47347	0.48481
3207.5447	0.48058
3205.61593	0.47632
3203.68716	0.47201
3201.75839	0.46761
3199.82962	0.46313
3197.90085	0.45858
3195.97208	0.45396
3194.04331	0.4493
3192.11454	0.44463
3190.18577	0.43996
3188.257	0.43529
3186.32822	0.4306
3184.39945	0.42591
3182.47068	0.42122
3180.54191	0.41655
3178.61314	0.41185
3176.68437	0.4071
3174.7556	0.40233
3172.82683	0.3976
3170.89806	0.39293
3168.96929	0.3883
3167.04052	0.38368
3165.11175	0.37905
3163.18298	0.37443
3161.25421	0.36986
3159.32544	0.36532
3157.39667	0.36077
3155.4679	0.35621
3153.53913	0.35167
3151.61036	0.34719
3149.68159	0.34275
3147.75282	0.33836
3145.82405	0.33401
3143.89528	0.3297
3141.96651	0.32544
3140.03774	0.32126
3138.10897	0.3172
3136.1802	0.31327
3134.25143	0.30946
3132.32266	0.30573
3130.39389	0.30209
3128.46512	0.29857
3126.53635	0.29514
3124.60758	0.29177
3122.67881	0.28843
3120.75004	0.28516
3118.82127	0.282
3116.8925	0.27891
3114.96373	0.27588
3113.03496	0.27287
3111.10619	0.2699
3109.17742	0.26702
3107.24865	0.26426
3105.31988	0.26163
3103.39111	0.2591
3101.46234	0.25667
3099.53357	0.25438
3097.6048	0.25224
3095.67603	0.25025
3093.74726	0.24839
3091.81849	0.24669
3089.88972	0.24511
3087.96095	0.24368
3086.03218	0.24239
3084.10341	0.24123
3082.17464	0.24014
3080.24587	0.23909
3078.3171	0.23808
3076.38833	0.23713
3074.45956	0.23626
3072.53079	0.23539
3070.60202	0.23448
3068.67325	0.23351
3066.74448	0.23251
3064.81571	0.23154
3062.88694	0.23061
3060.95817	0.2297
3059.0294	0.22875
3057.10063	0.22776
3055.17186	0.22679
3053.24309	0.22589
3051.31432	0.22504
3049.38555	0.22419
3047.45678	0.22334
3045.52801	0.22252
3043.59924	0.22177
3041.67047	0.22108
3039.7417	0.22045
3037.81293	0.21988
3035.88416	0.21939
3033.95539	0.21905
3032.02662	0.21895
3030.09785	0.21911
3028.16908	0.2195
3026.24031	0.22009
3024.31154	0.22093
3022.38277	0.22205
3020.454	0.22351
3018.52523	0.22534
3016.59646	0.22755
3014.66768	0.23003
3012.73891	0.23285
3010.81014	0.23635
3008.88137	0.24081
3006.9526	0.24619
3005.02383	0.25232
3003.09506	0.25909
3001.16629	0.26651
2999.23752	0.27456
2997.30875	0.28324
2995.37998	0.29254
2993.45121	0.3025
2991.52244	0.31306
2989.59367	0.32405
2987.6649	0.33514
2985.73613	0.34593
2983.80736	0.35603
2981.87859	0.36511
2979.94982	0.37292
2978.02105	0.3792
2976.09228	0.38378
2974.16351	0.38655
2972.23474	0.38756
2970.30597	0.3869
2968.3772	0.38482
2966.44843	0.38189
2964.51966	0.37863
2962.59089	0.37531
2960.66212	0.37211
2958.73335	0.36937
2956.80458	0.3675
2954.87581	0.36686
2952.94704	0.36766
2951.01827	0.37001
2949.0895	0.37396
2947.16073	0.37939
2945.23196	0.38597
2943.30319	0.39326
2941.37442	0.40079
2939.44565	0.40816
2937.51688	0.41501
2935.58811	0.4211
2933.65934	0.42621
2931.73057	0.4302
2929.8018	0.43293
2927.87303	0.43431
2925.94426	0.43435
2924.01549	0.43324
2922.08672	0.43136
2920.15795	0.42886
2918.22918	0.42574
2916.30041	0.42214
2914.37164	0.41825
2912.44287	0.41425
2910.5141	0.41017
2908.58533	0.40607
2906.65656	0.40205
2904.72779	0.39818
2902.79902	0.39447
2900.87025	0.39086
2898.94148	0.38729
2897.01271	0.38372
2895.08394	0.38016
2893.15517	0.37661
2891.2264	0.37306
2889.29763	0.36952
2887.36886	0.366
2885.44009	0.36235
2883.51132	0.35835
2881.58255	0.35394
2879.65378	0.34913
2877.72501	0.34397
2875.79624	0.33836
2873.86747	0.33205
2871.9387	0.32498
2870.00993	0.3173
2868.08116	0.30912
2866.15239	0.30051
2864.22362	0.2916
2862.29485	0.28261
2860.36608	0.27376
2858.43731	0.26519
2856.50854	0.25695
2854.57977	0.24912
2852.651	0.24178
2850.72223	0.23499
2848.79346	0.2288
2846.86469	0.22321
2844.93592	0.21821
2843.00714	0.21378
2841.07837	0.20981
2839.1496	0.20617
2837.22083	0.20279
2835.29206	0.19964
2833.36329	0.1967
2831.43452	0.19388
2829.50575	0.19114
2827.57698	0.18845
2825.64821	0.18583
2823.71944	0.18324
2821.79067	0.18071
2819.8619	0.17828
2817.93313	0.17597
2816.00436	0.17376
2814.07559	0.17162
2812.14682	0.16956
2810.21805	0.16761
2808.28928	0.16569
2806.36051	0.16377
2804.43174	0.16186
2802.50297	0.15997
2800.5742	0.15811
2798.64543	0.1563
2796.71666	0.15458
2794.78789	0.15293
2792.85912	0.15134
2790.93035	0.1498
2789.00158	0.14832
2787.07281	0.14693
2785.14404	0.14559
2783.21527	0.14425
2781.2865	0.14294
2779.35773	0.14168
2777.42896	0.14046
2775.50019	0.13932
2773.57142	0.13825
2771.64265	0.13723
2769.71388	0.13626
2767.78511	0.13537
2765.85634	0.13457
2763.92757	0.13378
2761.9988	0.13294
2760.07003	0.13207
2758.14126	0.13122
2756.21249	0.1304
2754.28372	0.12957
2752.35495	0.12875
2750.42618	0.12796
2748.49741	0.1272
2746.56864	0.12646
2744.63987	0.12574
2742.7111	0.12504
2740.78233	0.12431
2738.85356	0.12355
2736.92479	0.12275
2734.99602	0.12193
2733.06725	0.12111
2731.13848	0.12028
2729.20971	0.11944
2727.28094	0.11861
2725.35217	0.11781
2723.4234	0.11704
2721.49463	0.11627
2719.56586	0.11547
2717.63709	0.11464
2715.70832	0.11382
2713.77955	0.11304
2711.85078	0.11228
2709.92201	0.11155
2707.99324	0.11082
2706.06447	0.11013
2704.1357	0.1095
2702.20693	0.10899
2700.27816	0.10857
2698.34939	0.10822
2696.42062	0.10792
2694.49185	0.10767
2692.56308	0.10744
2690.63431	0.10721
2688.70554	0.10698
2686.77677	0.10678
2684.848	0.10662
2682.91923	0.10646
2680.99046	0.10632
2679.06169	0.10616
2677.13292	0.106
2675.20415	0.10581
2673.27538	0.10559
2671.34661	0.10535
2669.41783	0.10507
2667.48906	0.10476
2665.56029	0.1044
2663.63152	0.104
2661.70275	0.10355
2659.77398	0.10308
2657.84521	0.10261
2655.91644	0.10211
2653.98767	0.10159
2652.0589	0.101
2650.13013	0.10035
2648.20136	0.09967
2646.27259	0.09894
2644.34382	0.09812
2642.41505	0.09725
2640.48628	0.09634
2638.55751	0.09543
2636.62874	0.09451
2634.69997	0.09357
2632.7712	0.09259
2630.84243	0.09157
2628.91366	0.09051
2626.98489	0.08944
2625.05612	0.08836
2623.12735	0.08727
2621.19858	0.08619
2619.26981	0.08509
2617.34104	0.08397
2615.41227	0.08284
2613.4835	0.08173
2611.55473	0.08059
2609.62596	0.07943
2607.69719	0.07826
2605.76842	0.07712
2603.83965	0.07602
2601.91088	0.07496
2599.98211	0.07389
2598.05334	0.07282
2596.12457	0.07177
2594.1958	0.07076
2592.26703	0.06981
2590.33826	0.06891
2588.40949	0.06802
2586.48072	0.06713
2584.55195	0.06626
2582.62318	0.06541
2580.69441	0.06459
2578.76564	0.06378
2576.83687	0.06298
2574.9081	0.06219
2572.97933	0.06139
2571.05056	0.0606
2569.12179	0.05986
2567.19302	0.05913
2565.26425	0.0584
2563.33548	0.0577
2561.40671	0.05705
2559.47794	0.05644
2557.54917	0.05588
2555.6204	0.05537
2553.69163	0.0549
2551.76286	0.05443
2549.83409	0.05396
2547.90532	0.05351
2545.97655	0.05309
2544.04778	0.05269
2542.11901	0.05229
2540.19024	0.0519
2538.26147	0.05154
2536.3327	0.05119
2534.40393	0.05081
2532.47516	0.05042
2530.54639	0.05003
2528.61762	0.04962
2526.68885	0.04921
2524.76008	0.04881
2522.83131	0.04839
2520.90254	0.04794
2518.97377	0.04746
2517.045	0.04697
2515.11623	0.04647
2513.18746	0.04598
2511.25869	0.0455
2509.32992	0.04501
2507.40115	0.0445
2505.47238	0.04398
2503.54361	0.04348
2501.61484	0.043
2499.68607	0.04254
2497.75729	0.04207
2495.82852	0.04161
2493.89975	0.04119
2491.97098	0.04084
2490.04221	0.04052
2488.11344	0.0402
2486.18467	0.03991
2484.2559	0.03964
2482.32713	0.0394
2480.39836	0.03919
2478.46959	0.039
2476.54082	0.03881
2474.61205	0.03861
2472.68328	0.0384
2470.75451	0.03819
2468.82574	0.03798
2466.89697	0.03777
2464.9682	0.03754
2463.03943	0.03729
2461.11066	0.03705
2459.18189	0.03681
2457.25312	0.03657
2455.32435	0.0363
2453.39558	0.03599
2451.46681	0.03566
2449.53804	0.03535
2447.60927	0.03508
2445.6805	0.03483
2443.75173	0.03456
2441.82296	0.03427
2439.89419	0.03398
2437.96542	0.03372
2436.03665	0.03348
2434.10788	0.03328
2432.17911	0.03309
2430.25034	0.0329
2428.32157	0.0327
2426.3928	0.0325
2424.46403	0.03227
2422.53526	0.03201
2420.60649	0.0317
2418.67772	0.03135
2416.74895	0.03098
2414.82018	0.03058
2412.89141	0.03015
2410.96264	0.02969
2409.03387	0.02917
2407.1051	0.02859
2405.17633	0.02799
2403.24756	0.02734
2401.31879	0.02666
2399.39002	0.02594
2397.46125	0.02519
2395.53248	0.02443
2393.60371	0.02367
2391.67494	0.02294
2389.74617	0.02222
2387.8174	0.02151
2385.88863	0.0208
2383.95986	0.02008
2382.03109	0.01937
2380.10232	0.01866
2378.17355	0.01796
2376.24478	0.01725
2374.31601	0.01655
2372.38724	0.01585
2370.45847	0.01515
2368.5297	0.01445
2366.60093	0.01376
2364.67216	0.01307
2362.74339	0.01238
2360.81462	0.01169
2358.88585	0.01101
2356.95708	0.01029
2355.02831	0.00956
2353.09954	0.00882
2351.17077	0.00809
2349.242	0.00738
2347.31323	0.00671
2345.38446	0.00608
2343.45569	0.00549
2341.52692	0.00497
2339.59815	0.00451
2337.66938	0.00411
2335.74061	0.00378
2333.81184	0.00352
2331.88307	0.00333
2329.9543	0.00321
2328.02553	0.00315
2326.09675	0.00315
2324.16798	0.00319
2322.23921	0.00329
2320.31044	0.00341
2318.38167	0.00355
2316.4529	0.00351
2314.52413	0.00357
2312.59536	0.0036
2310.66659	0.0035
2308.73782	0.00347
2306.80905	0.00361
2304.88028	0.00402
2302.95151	0.0047
2301.02274	0.00548
2299.09397	0.0064
2297.1652	0.00735
2295.23643	0.00834
2293.30766	0.00934
2291.37889	0.01034
2289.45012	0.01129
2287.52135	0.01213
2285.59258	0.01282
2283.66381	0.01346
2281.73504	0.01393
2279.80627	0.01426
2277.8775	0.01451
2275.94873	0.01459
2274.01996	0.01448
2272.09119	0.01416
2270.16242	0.01363
2268.23365	0.01321
2266.30488	0.01269
2264.37611	0.01216
2262.44734	0.01182
2260.51857	0.01163
2258.5898	0.01162
2256.66103	0.01167
2254.73226	0.0117
2252.80349	0.01179
2250.87472	0.01182
2248.94595	0.01184
2247.01718	0.01182
2245.08841	0.01175
2243.15964	0.01166
2241.23087	0.01156
2239.3021	0.01147
2237.37333	0.01138
2235.44456	0.01121
2233.51579	0.01112
2231.58702	0.01107
2229.65825	0.01095
2227.72948	0.01082
2225.80071	0.0107
2223.87194	0.01062
2221.94317	0.01055
2220.0144	0.01044
2218.08563	0.01032
2216.15686	0.01029
2214.22809	0.01038
2212.29932	0.01053
2210.37055	0.01068
2208.44178	0.01081
2206.51301	0.01097
2204.58424	0.01111
2202.65547	0.01122
2200.7267	0.0113
2198.79793	0.01139
2196.86916	0.01147
2194.94039	0.01154
2193.01162	0.01159
2191.08285	0.01162
2189.15408	0.01161
2187.22531	0.01157
2185.29654	0.01158
2183.36777	0.01166
2181.439	0.01173
2179.51023	0.01165
2177.58146	0.01139
2175.65269	0.01101
2173.72392	0.01054
2171.79515	0.01009
2169.86638	0.00971
2167.93761	0.00942
2166.00884	0.00924
2164.08007	0.00918
2162.1513	0.00921
2160.22253	0.00934
2158.29376	0.00954
2156.36499	0.00982
2154.43622	0.01017
2152.50744	0.0106
2150.57867	0.01111
2148.6499	0.01172
2146.72113	0.01236
2144.79236	0.013
2142.86359	0.01365
2140.93482	0.01441
2139.00605	0.01528
2137.07728	0.01612
2135.14851	0.01677
2133.21974	0.01723
2131.29097	0.01755
2129.3622	0.01779
2127.43343	0.01798
2125.50466	0.01817
2123.57589	0.01842
2121.64712	0.01871
2119.71835	0.01897
2117.78958	0.01913
2115.86081	0.0192
2113.93204	0.01927
2112.00327	0.01934
2110.0745	0.0194
2108.14573	0.01942
2106.21696	0.01942
2104.28819	0.01942
2102.35942	0.01939
2100.43065	0.01931
2098.50188	0.01921
2096.57311	0.01913
2094.64434	0.01905
2092.71557	0.01896
2090.7868	0.01886
2088.85803	0.01874
2086.92926	0.01854
2085.00049	0.01824
2083.07172	0.01786
2081.14295	0.01748
2079.21418	0.01713
2077.28541	0.01679
2075.35664	0.01642
2073.42787	0.01606
2071.4991	0.01575
2069.57033	0.0155
2067.64156	0.01523
2065.71279	0.01488
2063.78402	0.01449
2061.85525	0.01411
2059.92648	0.01378
2057.99771	0.01348
2056.06894	0.01319
2054.14017	0.01285
2052.2114	0.01238
2050.28263	0.01177
2048.35386	0.01108
2046.42509	0.01039
2044.49632	0.00974
2042.56755	0.00909
2040.63878	0.00842
2038.71001	0.00774
2036.78124	0.00712
2034.85247	0.00657
2032.9237	0.00604
2030.99493	0.00552
2029.06616	0.005
2027.13739	0.00449
2025.20862	0.00396
2023.27985	0.00343
2021.35108	0.00296
2019.42231	0.00262
2017.49354	0.00243
2015.56477	0.00237
2013.636	0.00239
2011.70723	0.0025
2009.77846	0.00265
2007.84969	0.00278
2005.92092	0.00289
2003.99215	0.00306
2002.06338	0.00337
2000.13461	0.00375
1998.20584	0.00408
1996.27707	0.00431
1994.3483	0.00438
1992.41953	0.00428
1990.49076	0.004
1988.56199	0.00354
1986.63322	0.00301
1984.70445	0.00248
1982.77568	0.00192
1980.8469	0.00131
1978.91813	7.22465E-4
1976.98936	2.89968E-4
1975.06059	6.27186E-5
1973.13182	0
1971.20305	4.40351E-5
1969.27428	2.0644E-4
1967.34551	5.48861E-4
1965.41674	0.00108
1963.48797	0.00172
1961.5592	0.00245
1959.63043	0.00324
1957.70166	0.00411
1955.77289	0.00498
1953.84412	0.00577
1951.91535	0.00647
1949.98658	0.00708
1948.05781	0.0076
1946.12904	0.00805
1944.20027	0.00845
1942.2715	0.00886
1940.34273	0.00929
1938.41396	0.00971
1936.48519	0.01007
1934.55642	0.01041
1932.62765	0.01079
1930.69888	0.01119
1928.77011	0.0116
1926.84134	0.01202
1924.91257	0.01245
1922.9838	0.01286
1921.05503	0.01322
1919.12626	0.01348
1917.19749	0.01364
1915.26872	0.01373
1913.33995	0.01381
1911.41118	0.0139
1909.48241	0.01397
1907.55364	0.014
1905.62487	0.01396
1903.6961	0.01387
1901.76733	0.01377
1899.83856	0.01363
1897.90979	0.01347
1895.98102	0.01331
1894.05225	0.01315
1892.12348	0.01299
1890.19471	0.01282
1888.26594	0.01264
1886.33717	0.01245
1884.4084	0.01229
1882.47963	0.01215
1880.55086	0.01203
1878.62209	0.01189
1876.69332	0.01172
1874.76455	0.0115
1872.83578	0.01127
1870.90701	0.01105
1868.97824	0.01087
1867.04947	0.01072
1865.1207	0.01059
1863.19193	0.01046
1861.26316	0.01035
1859.33439	0.01026
1857.40562	0.01019
1855.47685	0.01015
1853.54808	0.01015
1851.61931	0.01015
1849.69054	0.01019
1847.76177	0.01025
1845.833	0.01032
1843.90423	0.01041
1841.97546	0.01054
1840.04669	0.01072
1838.11792	0.01094
1836.18915	0.01118
1834.26038	0.01142
1832.33161	0.01166
1830.40284	0.01197
1828.47407	0.01244
1826.5453	0.0131
1824.61653	0.01395
1822.68776	0.01507
1820.75899	0.01669
1818.83022	0.01908
1816.90145	0.02232
1814.97268	0.02644
1813.04391	0.03163
1811.11514	0.03806
1809.18636	0.04568
1807.25759	0.05432
1805.32882	0.06383
1803.40005	0.07403
1801.47128	0.08477
1799.54251	0.09595
1797.61374	0.10737
1795.68497	0.1188
1793.7562	0.13006
1791.82743	0.14103
1789.89866	0.15159
1787.96989	0.16172
1786.04112	0.17137
1784.11235	0.18058
1782.18358	0.18951
1780.25481	0.19828
1778.32604	0.20701
1776.39727	0.21586
1774.4685	0.225
1772.53973	0.23434
1770.61096	0.24346
1768.68219	0.25192
1766.75342	0.25946
1764.82465	0.26574
1762.89588	0.27035
1760.96711	0.27297
1759.03834	0.2735
1757.10957	0.27205
1755.1808	0.26861
1753.25203	0.26303
1751.32326	0.25528
1749.39449	0.24543
1747.46572	0.23375
1745.53695	0.22054
1743.60818	0.20613
1741.67941	0.19093
1739.75064	0.17529
1737.82187	0.1597
1735.8931	0.14475
1733.96433	0.13086
1732.03556	0.11831
1730.10679	0.10727
1728.17802	0.09789
1726.24925	0.09023
1724.32048	0.08407
1722.39171	0.07926
1720.46294	0.07598
1718.53417	0.07448
1716.6054	0.07491
1714.67663	0.07726
1712.74786	0.08149
1710.81909	0.08741
1708.89032	0.09463
1706.96155	0.10273
1705.03278	0.11134
1703.10401	0.12008
1701.17524	0.12858
1699.24647	0.13654
1697.3177	0.14362
1695.38893	0.14951
1693.46016	0.15398
1691.53139	0.15698
1689.60262	0.15846
1687.67385	0.15845
1685.74508	0.15697
1683.81631	0.15416
1681.88754	0.15028
1679.95877	0.14559
1678.03	0.14015
1676.10123	0.13409
1674.17246	0.12788
1672.24369	0.12198
1670.31492	0.1166
1668.38615	0.11184
1666.45738	0.10783
1664.52861	0.10465
1662.59984	0.10232
1660.67107	0.10073
1658.7423	0.09972
1656.81353	0.09926
1654.88476	0.09935
1652.95599	0.09989
1651.02722	0.10072
1649.09845	0.10172
1647.16968	0.10279
1645.24091	0.10384
1643.31214	0.10473
1641.38337	0.10543
1639.4546	0.10589
1637.52583	0.106
1635.59705	0.10564
1633.66828	0.10475
1631.73951	0.10324
1629.81074	0.10115
1627.88197	0.09869
1625.9532	0.09602
1624.02443	0.09318
1622.09566	0.0902
1620.16689	0.08715
1618.23812	0.08401
1616.30935	0.08079
1614.38058	0.07751
1612.45181	0.07427
1610.52304	0.07114
1608.59427	0.06821
1606.6655	0.06549
1604.73673	0.06299
1602.80796	0.06073
1600.87919	0.05871
1598.95042	0.05689
1597.02165	0.05532
1595.09288	0.05409
1593.16411	0.05316
1591.23534	0.05247
1589.30657	0.05209
1587.3778	0.05211
1585.44903	0.05259
1583.52026	0.05347
1581.59149	0.05459
1579.66272	0.05598
1577.73395	0.05774
1575.80518	0.05987
1573.87641	0.06228
1571.94764	0.06494
1570.01887	0.0678
1568.0901	0.07083
1566.16133	0.07398
1564.23256	0.0772
1562.30379	0.08041
1560.37502	0.08352
1558.44625	0.08652
1556.51748	0.08938
1554.58871	0.09203
1552.65994	0.09444
1550.73117	0.09666
1548.8024	0.09863
1546.87363	0.10032
1544.94486	0.10176
1543.01609	0.10302
1541.08732	0.10409
1539.15855	0.10494
1537.22978	0.10545
1535.30101	0.10563
1533.37224	0.10569
1531.44347	0.10573
1529.5147	0.10562
1527.58593	0.10522
1525.65716	0.1045
1523.72839	0.10355
1521.79962	0.10246
1519.87085	0.10125
1517.94208	0.09994
1516.01331	0.0985
1514.08454	0.09689
1512.15577	0.09501
1510.227	0.09274
1508.29823	0.09013
1506.36946	0.08741
1504.44069	0.08496
1502.51192	0.08308
1500.58315	0.08185
1498.65438	0.08112
1496.72561	0.08058
1494.79684	0.08006
1492.86807	0.07962
1490.9393	0.0794
1489.01053	0.07941
1487.08176	0.07971
1485.15299	0.08055
1483.22422	0.08213
1481.29545	0.08463
1479.36668	0.0883
1477.43791	0.09314
1475.50914	0.09883
1473.58037	0.105
1471.6516	0.11131
1469.72283	0.11738
1467.79406	0.12284
1465.86529	0.12743
1463.93651	0.13108
1462.00774	0.13391
1460.07897	0.13606
1458.1502	0.13754
1456.22143	0.13821
1454.29266	0.13779
1452.36389	0.13605
1450.43512	0.13302
1448.50635	0.12902
1446.57758	0.1245
1444.64881	0.1197
1442.72004	0.11486
1440.79127	0.1104
1438.8625	0.10687
1436.93373	0.10456
1435.00496	0.10353
1433.07619	0.10372
1431.14742	0.10492
1429.21865	0.10692
1427.28988	0.10961
1425.36111	0.11277
1423.43234	0.11613
1421.50357	0.11944
1419.5748	0.12261
1417.64603	0.1257
1415.71726	0.12881
1413.78849	0.13188
1411.85972	0.13472
1409.93095	0.13712
1408.00218	0.13891
1406.07341	0.14008
1404.14464	0.14068
1402.21587	0.14078
1400.2871	0.14046
1398.35833	0.13984
1396.42956	0.1391
1394.50079	0.1386
1392.57202	0.13863
1390.64325	0.13926
1388.71448	0.14045
1386.78571	0.1422
1384.85694	0.1445
1382.92817	0.14721
1380.9994	0.15014
1379.07063	0.15307
1377.14186	0.15582
1375.21309	0.15835
1373.28432	0.16065
1371.35555	0.16275
1369.42678	0.16447
1367.49801	0.16552
1365.56924	0.16563
1363.64047	0.16477
1361.7117	0.16305
1359.78293	0.16072
1357.85416	0.15802
1355.92539	0.15518
1353.99662	0.15243
1352.06785	0.15004
1350.13908	0.14828
1348.21031	0.14736
1346.28154	0.14729
1344.35277	0.14795
1342.424	0.1492
1340.49523	0.15091
1338.56646	0.1529
1336.63769	0.15501
1334.70892	0.15705
1332.78015	0.15893
1330.85138	0.16052
1328.92261	0.16168
1326.99384	0.16229
1325.06507	0.16229
1323.1363	0.16165
1321.20753	0.16043
1319.27876	0.1588
1317.34999	0.15697
1315.42122	0.15516
1313.49245	0.15358
1311.56368	0.15231
1309.63491	0.15142
1307.70614	0.15094
1305.77737	0.1509
1303.8486	0.15129
1301.91983	0.15204
1299.99106	0.15301
1298.06229	0.15396
1296.13352	0.15466
1294.20475	0.15494
1292.27597	0.15469
1290.3472	0.15388
1288.41843	0.15248
1286.48966	0.15049
1284.56089	0.14787
1282.63212	0.14459
1280.70335	0.14069
1278.77458	0.13638
1276.84581	0.13193
1274.91704	0.12765
1272.98827	0.12382
1271.0595	0.12064
1269.13073	0.1182
1267.20196	0.11653
1265.27319	0.11567
1263.34442	0.1157
1261.41565	0.11655
1259.48688	0.11806
1257.55811	0.11998
1255.62934	0.12205
1253.70057	0.12397
1251.7718	0.12549
1249.84303	0.12642
1247.91426	0.12662
1245.98549	0.12598
1244.05672	0.12446
1242.12795	0.12203
1240.19918	0.11869
1238.27041	0.11452
1236.34164	0.10965
1234.41287	0.10435
1232.4841	0.0989
1230.55533	0.09363
1228.62656	0.08879
1226.69779	0.08463
1224.76902	0.0813
1222.84025	0.0789
1220.91148	0.07743
1218.98271	0.07683
1217.05394	0.07693
1215.12517	0.07746
1213.1964	0.07815
1211.26763	0.07886
1209.33886	0.07949
1207.41009	0.07996
1205.48132	0.08016
1203.55255	0.07993
1201.62378	0.07914
1199.69501	0.07767
1197.76624	0.07548
1195.83747	0.07265
1193.9087	0.06935
1191.97993	0.06583
1190.05116	0.06242
1188.12239	0.0595
1186.19362	0.05748
1184.26485	0.05686
1182.33608	0.05819
1180.40731	0.06208
1178.47854	0.06914
1176.54977	0.07996
1174.621	0.09498
1172.69223	0.1143
1170.76346	0.1376
1168.83469	0.16421
1166.90592	0.19313
1164.97715	0.22319
1163.04838	0.25309
1161.11961	0.28161
1159.19084	0.30771
1157.26207	0.3306
1155.3333	0.34981
1153.40453	0.3651
1151.47576	0.37643
1149.54699	0.38391
1147.61822	0.38772
1145.68945	0.38813
1143.76068	0.3855
1141.83191	0.38036
1139.90314	0.3734
1137.97437	0.36548
1136.0456	0.35766
1134.11683	0.35105
1132.18806	0.34669
1130.25929	0.34535
1128.33052	0.34729
1126.40175	0.35222
1124.47298	0.3594
1122.54421	0.36784
1120.61544	0.37649
1118.68666	0.38439
1116.75789	0.39084
1114.82912	0.39541
1112.90035	0.39803
1110.97158	0.39898
1109.04281	0.3987
1107.11404	0.39776
1105.18527	0.39687
1103.2565	0.39693
1101.32773	0.39892
1099.39896	0.40354
1097.47019	0.41091
1095.54142	0.42034
1093.61265	0.43067
1091.68388	0.44081
1089.75511	0.45024
1087.82634	0.45902
1085.89757	0.46732
1083.9688	0.47514
1082.04003	0.48239
1080.11126	0.48904
1078.18249	0.49505
1076.25372	0.50029
1074.32495	0.50461
1072.39618	0.50799
1070.46741	0.51063
1068.53864	0.51295
1066.60987	0.51566
1064.6811	0.51961
1062.75233	0.52575
1060.82356	0.5351
1058.89479	0.54871
1056.96602	0.56735
1055.03725	0.59126
1053.10848	0.61994
1051.17971	0.65239
1049.25094	0.68746
1047.32217	0.72415
1045.3934	0.76177
1043.46463	0.79985
1041.53586	0.83775
1039.60709	0.8743
1037.67832	0.90808
1035.74955	0.93784
1033.82078	0.96256
1031.89201	0.98142
1029.96324	0.99393
1028.03447	1
1026.1057	0.99983
1024.17693	0.99381
1022.24816	0.98241
1020.31939	0.96614
1018.39062	0.94547
1016.46185	0.92087
1014.53308	0.89285
1012.60431	0.86205
1010.67554	0.82929
1008.74677	0.79563
1006.818	0.76232
1004.88923	0.73059
1002.96046	0.70137
1001.03169	0.67496
999.10292	0.65121
997.17415	0.62972
995.24538	0.60982
993.31661	0.59071
991.38784	0.57163
989.45907	0.55197
987.5303	0.53139
985.60153	0.50981
983.67276	0.48727
981.74399	0.46388
979.81522	0.43981
977.88645	0.41537
975.95768	0.39102
974.02891	0.3673
972.10014	0.3446
970.17137	0.32305
968.2426	0.30264
966.31383	0.28342
964.38506	0.26572
962.45629	0.24998
960.52752	0.2366
958.59875	0.22579
956.66998	0.21749
954.74121	0.21144
952.81244	0.20724
950.88367	0.20443
948.9549	0.20252
947.02612	0.20099
945.09735	0.19933
943.16858	0.197
941.23981	0.19354
939.31104	0.18863
937.38227	0.18218
935.4535	0.17431
933.52473	0.1654
931.59596	0.15595
929.66719	0.1465
927.73842	0.13742
925.80965	0.1288
923.88088	0.1205
921.95211	0.11238
920.02334	0.1044
918.09457	0.09663
916.1658	0.08912
914.23703	0.08191
912.30826	0.07499
910.37949	0.06835
908.45072	0.06195
906.52195	0.05583
904.59318	0.05012
902.66441	0.04494
900.73564	0.0404
898.80687	0.03648
896.8781	0.03305
894.94933	0.03004
893.02056	0.02745
891.09179	0.02532
889.16302	0.02371
887.23425	0.02268
885.30548	0.02232
883.37671	0.02272
881.44794	0.024
879.51917	0.02625
877.5904	0.02949
875.66163	0.03363
873.73286	0.03849
871.80409	0.04388
869.87532	0.0496
867.94655	0.0555
866.01778	0.06138
864.08901	0.06704
862.16024	0.0723
860.23147	0.07709
858.3027	0.08131
856.37393	0.08478
854.44516	0.0873
852.51639	0.08863
850.58762	0.08864
848.65885	0.08732
846.73008	0.08476
844.80131	0.0811
842.87254	0.07652
840.94377	0.07117
839.015	0.06525
837.08623	0.05899
835.15746	0.05265
833.22869	0.04646
831.29992	0.04059
829.37115	0.03509
827.44238	0.02998
825.51361	0.0253
823.58484	0.02112
821.65607	0.01752
819.7273	0.01457
817.79853	0.01229
815.86976	0.01068
813.94099	0.00966
812.01222	0.00907
810.08345	0.00881
808.15468	0.0088
806.22591	0.00899
804.29714	0.00942
802.36837	0.01009
800.4396	0.01098
798.51083	0.01201
796.58206	0.0131
794.65329	0.01425
792.72452	0.0155
790.79575	0.01694
788.86698	0.01861
786.93821	0.02049
785.00944	0.02259
783.08067	0.02499
781.1519	0.02776
779.22313	0.03095
777.29436	0.03453
775.36558	0.03844
773.43681	0.04266
771.50804	0.04725
769.57927	0.05224
767.6505	0.05748
765.72173	0.06275
763.79296	0.06776
761.86419	0.0723
759.93542	0.07619
758.00665	0.07931
756.07788	0.08157
754.14911	0.08292
752.22034	0.08333
750.29157	0.08289
748.3628	0.08175
746.43403	0.07998
744.50526	0.07779
742.57649	0.07513
740.64772	0.07213
738.71895	0.06911
736.79018	0.06621
734.86141	0.0636
732.93264	0.06142
731.00387	0.05983
729.0751	0.05901
727.14633	0.05924
725.21756	0.06073
723.28879	0.06354
721.36002	0.06756
719.43125	0.07263
717.50248	0.0785
715.57371	0.08485
713.64494	0.09132
711.71617	0.09757
709.7874	0.10335
707.85863	0.10849
705.92986	0.11286
704.00109	0.11638
702.07232	0.11901
700.14355	0.1207
698.21478	0.12141
696.28601	0.12046
694.35724	0.11762
692.42847	0.11597
690.4997	0.11618
688.57093	0.11128
686.64216	0.10648
684.71339	0.10261
682.78462	0.09895
680.85585	0.09564
678.92708	0.09313
676.99831	0.09152
675.06954	0.09093
673.14077	0.09121
671.212	0.09201
669.28323	0.09302
667.35446	0.094
665.42569	0.09482
663.49692	0.0954
661.56815	0.09572
659.63938	0.09578
657.71061	0.09557
655.78184	0.0951
653.85307	0.09437
651.9243	0.09332
649.99553	0.09194
648.06676	0.09103
646.13799	0.09177
644.20922	0.0911
642.28045	0.08645
640.35168	0.0853
638.42291	0.08439
636.49414	0.08299
634.56537	0.08202
632.6366	0.0819
630.70783	0.0827
628.77906	0.08456
626.85029	0.08735
624.92152	0.09088
622.99275	0.09497
621.06398	0.09938
619.13521	0.10389
617.20644	0.10829
615.27767	0.11246
613.3489	0.11631
611.42013	0.11977
609.49136	0.12282
607.56259	0.12542
605.63382	0.12758
603.70505	0.12937
601.77627	0.13098
599.8475	0.13256
597.91873	0.1343
595.98996	0.13635
594.06119	0.13891
592.13242	0.14216
590.20365	0.14613
588.27488	0.15067
586.34611	0.15546
584.41734	0.16014
582.48857	0.16436
580.5598	0.16781
578.63103	0.17025
576.70226	0.17155
574.77349	0.17165
572.84472	0.17054
570.91595	0.16828
568.98718	0.16492
567.05841	0.16061
565.12964	0.15549
563.20087	0.14973
561.2721	0.14358
559.34333	0.13732
557.41456	0.13129
555.48579	0.12579
553.55702	0.12106
551.62825	0.11736
549.69948	0.11482
547.77071	0.11342
545.84194	0.113
543.91317	0.11325
541.9844	0.11382
540.05563	0.11445
538.12686	0.11493
536.19809	0.11516
534.26932	0.11509
532.34055	0.11471
530.41178	0.11405
528.48301	0.11318
526.55424	0.11214
524.62547	0.11095
522.6967	0.10959
520.76793	0.10807
518.83916	0.10637
516.91039	0.10447
514.98162	0.1024
513.05285	0.1002
511.12408	0.09794
509.19531	0.0957
507.26654	0.09357
505.33777	0.09161
503.409	0.08987
501.48023	0.08834
499.55146	0.08699
497.62269	0.08576
495.69392	0.08456
493.76515	0.0833
491.83638	0.08189
489.90761	0.08029
487.97884	0.07854
486.05007	0.07668
484.1213	0.07478
482.19253	0.07289
480.26376	0.07103
478.33499	0.06915
476.40622	0.06724
474.47745	0.06526
472.54868	0.06324
470.61991	0.06119
468.69114	0.05913
466.76237	0.05709
464.8336	0.05506
462.90483	0.0531
460.97606	0.05124
459.04729	0.04952
457.11852	0.04795
455.18975	0.0466
453.26098	0.04548
451.33221	0.04456
449.40344	0.04378
447.47467	0.04307
445.5459	0.04239
443.61713	0.04174
441.68836	0.04109
439.75959	0.04042
437.83082	0.03975
435.90205	0.03906
433.97328	0.03833
432.04451	0.0375
430.11573	0.03655
428.18696	0.03551
426.25819	0.03438
424.32942	0.03316
422.40065	0.03183
420.47188	0.0306
418.54311	0.02934
416.61434	0.02803
414.68557	0.02668
412.7568	0.02529
410.82803	0.02386
408.89926	0.02238
406.97049	0.02087
405.04172	0.01931
403.11295	0.01771
401.18418	0.01607
399.25541	0.01439