401	0
402	0.01387
403	0.0393
404	0.06056
405	0.06488
406	0.0631
407	0.07599
408	0.09288
409	0.09171
410	0.07626
411	0.07339
412	0.08704
413	0.09566
414	0.08589
415	0.07316
416	0.07844
417	0.09548
418	0.09537
419	0.07245
420	0.06604
421	0.08115
422	0.09041
423	0.08501
424	0.07475
425	0.07722
426	0.09063
427	0.09532
428	0.08474
429	0.0737
430	0.07821
431	0.09185
432	0.09513
433	0.08741
434	0.08619
435	0.09561
436	0.09845
437	0.08741
438	0.08163
439	0.09001
440	0.0988
441	0.09444
442	0.08193
443	0.0795
444	0.08911
445	0.09347
446	0.08485
447	0.07376
448	0.07362
449	0.08153
450	0.08359
451	0.0771
452	0.07442
453	0.08142
454	0.08675
455	0.08205
456	0.07194
457	0.06781
458	0.07762
459	0.08533
460	0.08114
461	0.07669
462	0.0827
463	0.09055
464	0.08734
465	0.07786
466	0.07552
467	0.0828
468	0.09184
469	0.09453
470	0.09093
471	0.08905
472	0.09251
473	0.09402
474	0.09012
475	0.08892
476	0.09433
477	0.10049
478	0.10026
479	0.09592
480	0.09623
481	0.10234
482	0.10573
483	0.10167
484	0.09601
485	0.09657
486	0.10171
487	0.10462
488	0.10298
489	0.10227
490	0.10587
491	0.10879
492	0.10616
493	0.10276
494	0.10624
495	0.11353
496	0.11568
497	0.11249
498	0.11158
499	0.11484
500	0.11715
501	0.11491
502	0.11122
503	0.11154
504	0.11461
505	0.11556
506	0.11372
507	0.11252
508	0.1149
509	0.11798
510	0.11671
511	0.11243
512	0.11124
513	0.11499
514	0.11928
515	0.11935
516	0.11682
517	0.11774
518	0.12341
519	0.12578
520	0.12239
521	0.12054
522	0.12357
523	0.1275
524	0.12812
525	0.12553
526	0.12396
527	0.12591
528	0.12852
529	0.12858
530	0.12773
531	0.129
532	0.13132
533	0.13138
534	0.1302
535	0.13186
536	0.13489
537	0.13437
538	0.13036
539	0.12749
540	0.1293
541	0.13373
542	0.13452
543	0.13091
544	0.12843
545	0.13031
546	0.13299
547	0.13202
548	0.12926
549	0.1299
550	0.13414
551	0.1363
552	0.1333
553	0.12997
554	0.13142
555	0.13529
556	0.1354
557	0.13108
558	0.12935
559	0.13468
560	0.14119
561	0.14059
562	0.13537
563	0.13585
564	0.14448
565	0.15209
566	0.15163
567	0.14795
568	0.15063
569	0.16008
570	0.16591
571	0.16381
572	0.16194
573	0.16705
574	0.1748
575	0.17744
576	0.17466
577	0.17344
578	0.17794
579	0.18311
580	0.18214
581	0.17668
582	0.17449
583	0.17777
584	0.18068
585	0.17793
586	0.17231
587	0.1707
588	0.1734
589	0.17391
590	0.16951
591	0.16439
592	0.16414
593	0.1679
594	0.16852
595	0.16417
596	0.16061
597	0.16162
598	0.16448
599	0.16457
600	0.16146
601	0.15915
602	0.16063
603	0.16339
604	0.16396
605	0.16333
606	0.16432
607	0.16653
608	0.1673
609	0.16596
610	0.16425
611	0.16314
612	0.16197
613	0.16037
614	0.15812
615	0.15462
616	0.14899
617	0.14174
618	0.13711
619	0.1372
620	0.13756
621	0.1347
622	0.13044
623	0.12777
624	0.12648
625	0.12434
626	0.1207
627	0.11716
628	0.11591
629	0.11671
630	0.11592
631	0.11212
632	0.10917
633	0.11038
634	0.11336
635	0.11343
636	0.10986
637	0.10722
638	0.10885
639	0.11155
640	0.10995
641	0.10522
642	0.10408
643	0.10808
644	0.11074
645	0.10688
646	0.10058
647	0.0994
648	0.10348
649	0.10602
650	0.10266
651	0.09854
652	0.1009
653	0.1077
654	0.10944
655	0.10399
656	0.10065
657	0.10567
658	0.11251
659	0.1123
660	0.10684
661	0.10524
662	0.11097
663	0.11735
664	0.11725
665	0.11184
666	0.10506
667	0.09101
668	0.06026
669	0.05437
670	0.07455
671	0.09519
672	0.1088
673	0.11138
674	0.10353
675	0.09615
676	0.09857
677	0.10613
678	0.10674
679	0.09953
680	0.09523
681	0.0994
682	0.10515
683	0.1042
684	0.09869
685	0.0977
686	0.10376
687	0.10891
688	0.10701
689	0.10309
690	0.10532
691	0.11246
692	0.11629
693	0.11432
694	0.11324
695	0.11906
696	0.12793
697	0.13201
698	0.13193
699	0.13529
700	0.14442
701	0.153
702	0.15524
703	0.1541
704	0.15684
705	0.16368
706	0.16716
707	0.16334
708	0.15791
709	0.15726
710	0.15894
711	0.15595
712	0.14781
713	0.14085
714	0.13897
715	0.13831
716	0.1332
717	0.12514
718	0.12007
719	0.11838
720	0.1157
721	0.11181
722	0.11007
723	0.11215
724	0.11563
725	0.1152
726	0.11001
727	0.1066
728	0.10906
729	0.11245
730	0.11015
731	0.10453
732	0.10327
733	0.10703
734	0.10904
735	0.10501
736	0.10006
737	0.10095
738	0.10583
739	0.10723
740	0.10339
741	0.10118
742	0.10573
743	0.11259
744	0.11495
745	0.11417
746	0.11725
747	0.12625
748	0.13476
749	0.13724
750	0.13791
751	0.14419
752	0.15453
753	0.16032
754	0.15853
755	0.15634
756	0.16046
757	0.16669
758	0.16578
759	0.15749
760	0.15163
761	0.15317
762	0.15512
763	0.14919
764	0.13886
765	0.13384
766	0.13532
767	0.13479
768	0.12697
769	0.11793
770	0.11617
771	0.11966
772	0.11864
773	0.11031
774	0.10311
775	0.10377
776	0.10677
777	0.10251
778	0.09181
779	0.08547
780	0.0879
781	0.0901
782	0.08305
783	0.0718
784	0.06862
785	0.07494
786	0.07808
787	0.07118
788	0.06348
789	0.06604
790	0.07496
791	0.07745
792	0.07085
793	0.06606
794	0.07122
795	0.07957
796	0.07971
797	0.07295
798	0.07111
799	0.07822
800	0.08454
801	0.08114
802	0.07318
803	0.07278
804	0.08099
805	0.0856
806	0.07943
807	0.07156
808	0.07393
809	0.08336
810	0.08585
811	0.07761
812	0.07116
813	0.07698
814	0.08687
815	0.08715
816	0.07876
817	0.07522
818	0.08238
819	0.09025
820	0.08804
821	0.07988
822	0.07814
823	0.0851
824	0.08989
825	0.08511
826	0.07856
827	0.08149
828	0.0916
829	0.09718
830	0.09474
831	0.094
832	0.10327
833	0.11703
834	0.12375
835	0.12287
836	0.12557
837	0.1376
838	0.14975
839	0.15137
840	0.14679
841	0.14878
842	0.15869
843	0.16606
844	0.16425
845	0.16001
846	0.16288
847	0.17137
848	0.17555
849	0.17221
850	0.16961
851	0.17483
852	0.18306
853	0.18506
854	0.18092
855	0.1791
856	0.183
857	0.18558
858	0.18017
859	0.17079
860	0.16634
861	0.16674
862	0.16278
863	0.15064
864	0.1382
865	0.13338
866	0.13234
867	0.12499
868	0.11145
869	0.10166
870	0.10045
871	0.10037
872	0.09305
873	0.08217
874	0.07753
875	0.08021
876	0.08093
877	0.0743
878	0.06698
879	0.06751
880	0.07321
881	0.07406
882	0.06804
883	0.06451
884	0.06975
885	0.07704
886	0.0764
887	0.06987
888	0.06919
889	0.07798
890	0.08546
891	0.08228
892	0.07534
893	0.07761
894	0.08848
895	0.09398
896	0.0888
897	0.08353
898	0.08924
899	0.1013
900	0.1066
901	0.10273
902	0.10195
903	0.11219
904	0.12499
905	0.12849
906	0.12508
907	0.12736
908	0.13956
909	0.15142
910	0.15288
911	0.14912
912	0.15352
913	0.16748
914	0.17781
915	0.17657
916	0.17362
917	0.18211
918	0.19878
919	0.208
920	0.20506
921	0.20376
922	0.21522
923	0.2311
924	0.23646
925	0.23156
926	0.23082
927	0.24138
928	0.25317
929	0.25455
930	0.24954
931	0.25116
932	0.26222
933	0.27171
934	0.27137
935	0.268
936	0.27316
937	0.2858
938	0.29393
939	0.29224
940	0.28988
941	0.29688
942	0.30881
943	0.31262
944	0.30611
945	0.30132
946	0.30686
947	0.31479
948	0.31206
949	0.30107
950	0.2947
951	0.29659
952	0.29696
953	0.28772
954	0.27458
955	0.26878
956	0.27107
957	0.27145
958	0.26512
959	0.25984
960	0.2642
961	0.27495
962	0.28227
963	0.2843
964	0.2895
965	0.30341
966	0.31984
967	0.32977
968	0.33494
969	0.34479
970	0.36203
971	0.37843
972	0.38687
973	0.3923
974	0.40417
975	0.42201
976	0.43571
977	0.44195
978	0.44794
979	0.46039
980	0.47526
981	0.48422
982	0.48686
983	0.49086
984	0.50013
985	0.50924
986	0.51195
987	0.51082
988	0.51377
989	0.52264
990	0.53107
991	0.53478
992	0.53848
993	0.54914
994	0.56566
995	0.58034
996	0.59033
997	0.60197
998	0.62076
999	0.64213
1000	0.65793
1001	0.66805
1002	0.68046
1003	0.69849
1004	0.71573
1005	0.72599
1006	0.73225
1007	0.74161
1008	0.75511
1009	0.76628
1010	0.77086
1011	0.77393
1012	0.78213
1013	0.79419
1014	0.80345
1015	0.80847
1016	0.8155
1017	0.82948
1018	0.84676
1019	0.86024
1020	0.86998
1021	0.88317
1022	0.90301
1023	0.92315
1024	0.93655
1025	0.9452
1026	0.95629
1027	0.97138
1028	0.98335
1029	0.98698
1030	0.98713
1031	0.99103
1032	0.99774
1033	1
1034	0.99463
1035	0.98723
1036	0.98432
1037	0.98389
1038	0.97877
1039	0.96785
1040	0.95777
1041	0.95318
1042	0.94998
1043	0.94133
1044	0.9279
1045	0.91688
1046	0.91099
1047	0.90458
1048	0.89199
1049	0.87601
1050	0.86448
1051	0.8589
1052	0.85186
1053	0.83735
1054	0.82017
1055	0.80913
1056	0.80366
1057	0.79428
1058	0.77765
1059	0.76076
1060	0.75068
1061	0.74456
1062	0.73412
1063	0.71738
1064	0.70166
1065	0.69259
1066	0.68585
1067	0.67365
1068	0.6566
1069	0.643
1070	0.63711
1071	0.63364
1072	0.62688
1073	0.62034
1074	0.62251
1075	0.63476
1076	0.64945
1077	0.66095
1078	0.67273
1079	0.69051
1080	0.71183
1081	0.72748
1082	0.73305
1083	0.73459
1084	0.73903
1085	0.74301
1086	0.73896
1087	0.72678
1088	0.71413
1089	0.70599
1090	0.69893
1091	0.68749
1092	0.67263
1093	0.66081
1094	0.65499
1095	0.65068
1096	0.64275
1097	0.63329
1098	0.62838
1099	0.62871
1100	0.62842
1101	0.6237
1102	0.6179
1103	0.61613
1104	0.61751
1105	0.61625
1106	0.61003
1107	0.60358
1108	0.60161
1109	0.60152
1110	0.59742
1111	0.58938
1112	0.58329
1113	0.58189
1114	0.58147
1115	0.57777
1116	0.5729
1117	0.57187
1118	0.5751
1119	0.57849
1120	0.57978
1121	0.58157
1122	0.58676
1123	0.59389
1124	0.59898
1125	0.60097
1126	0.60263
1127	0.60551
1128	0.60717
1129	0.60521
1130	0.60163
1131	0.60033
1132	0.60117
1133	0.59968
1134	0.59348
1135	0.58633
1136	0.58297
1137	0.58287
1138	0.58157
1139	0.57753
1140	0.57485
1141	0.57715
1142	0.58214
1143	0.58533
1144	0.58675
1145	0.59083
1146	0.59982
1147	0.61005
1148	0.61726
1149	0.6226
1150	0.63051
1151	0.64138
1152	0.65058
1153	0.65482
1154	0.65659
1155	0.66041
1156	0.66566
1157	0.66724
1158	0.6626
1159	0.65565
1160	0.65081
1161	0.64652
1162	0.63766
1163	0.62332
1164	0.60888
1165	0.59833
1166	0.5881
1167	0.57288
1168	0.5536
1169	0.53637
1170	0.52376
1171	0.51137
1172	0.49474
1173	0.47583
1174	0.4602
1175	0.44906
1176	0.43778
1177	0.42268
1178	0.40668
1179	0.39517
1180	0.38769
1181	0.37847
1182	0.36529
1183	0.35275
1184	0.34541
1185	0.34124
1186	0.33433
1187	0.32318
1188	0.31322
1189	0.30907
1190	0.30734
1191	0.30188
1192	0.29298
1193	0.28684
1194	0.28585
1195	0.28549
1196	0.28093
1197	0.2741
1198	0.2704
1199	0.27094
1200	0.27106
1201	0.2674
1202	0.26253
1203	0.26096
1204	0.26246
1205	0.26244
1206	0.25868
1207	0.25462
1208	0.25431
1209	0.25628
1210	0.25596
1211	0.25269
1212	0.25081
1213	0.25336
1214	0.25754
1215	0.25908
1216	0.25868
1217	0.2606
1218	0.26642
1219	0.27217
1220	0.27422
1221	0.27419
1222	0.27603
1223	0.27966
1224	0.28123
1225	0.27892
1226	0.2756
1227	0.27463
1228	0.27535
1229	0.27429
1230	0.27069
1231	0.2676
1232	0.2672
1233	0.26771
1234	0.26629
1235	0.26333
1236	0.26203
1237	0.26367
1238	0.26553
1239	0.26487
1240	0.26292
1241	0.26261
1242	0.26432
1243	0.26515
1244	0.26325
1245	0.26037
1246	0.2595
1247	0.26
1248	0.25903
1249	0.25563
1250	0.25241
1251	0.25156
1252	0.25164
1253	0.25004
1254	0.24683
1255	0.24462
1256	0.24464
1257	0.245
1258	0.24354
1259	0.24126
1260	0.24085
1261	0.24242
1262	0.24343
1263	0.24247
1264	0.24108
1265	0.24151
1266	0.24334
1267	0.24426
1268	0.24336
1269	0.24286
1270	0.24453
1271	0.24717
1272	0.24841
1273	0.24852
1274	0.24996
1275	0.25388
1276	0.25822
1277	0.26064
1278	0.26185
1279	0.26407
1280	0.26747
1281	0.26997
1282	0.27013
1283	0.2693
1284	0.26961
1285	0.2708
1286	0.27073
1287	0.2689
1288	0.26739
1289	0.26807
1290	0.26981
1291	0.27042
1292	0.26993
1293	0.27057
1294	0.27357
1295	0.27685
1296	0.27801
1297	0.2777
1298	0.27858
1299	0.28126
1300	0.28296
1301	0.28205
1302	0.2802
1303	0.28025
1304	0.28171
1305	0.28214
1306	0.28055
1307	0.27915
1308	0.28008
1309	0.28243
1310	0.28366
1311	0.2833
1312	0.28361
1313	0.28613
1314	0.28951
1315	0.29165
1316	0.29275
1317	0.29492
1318	0.29892
1319	0.30288
1320	0.305
1321	0.30615
1322	0.30854
1323	0.31226
1324	0.31503
1325	0.31521
1326	0.31479
1327	0.31623
1328	0.31871
1329	0.3196
1330	0.31819
1331	0.31656
1332	0.31659
1333	0.31741
1334	0.3165
1335	0.31347
1336	0.31036
1337	0.3087
1338	0.30747
1339	0.30465
1340	0.30061
1341	0.29802
1342	0.29745
1343	0.29673
1344	0.29426
1345	0.2911
1346	0.28955
1347	0.28983
1348	0.29007
1349	0.28883
1350	0.28742
1351	0.28801
1352	0.29045
1353	0.29277
1354	0.29388
1355	0.2957
1356	0.30012
1357	0.30632
1358	0.31205
1359	0.31695
1360	0.3226
1361	0.33004
1362	0.33786
1363	0.34484
1364	0.35135
1365	0.35761
1366	0.36373
1367	0.369
1368	0.3724
1369	0.37459
1370	0.37693
1371	0.37943
1372	0.38067
1373	0.37961
1374	0.37696
1375	0.37518
1376	0.37469
1377	0.37349
1378	0.37055
1379	0.36661
1380	0.36192
1381	0.35425
1382	0.34125
1383	0.32461
1384	0.31231
1385	0.3109
1386	0.31799
1387	0.32655
1388	0.33209
1389	0.33419
1390	0.33406
1391	0.33229
1392	0.32949
1393	0.32649
1394	0.32375
1395	0.32167
1396	0.32063
1397	0.31997
1398	0.31874
1399	0.31694
1400	0.31548
1401	0.31417
1402	0.31247
1403	0.31088
1404	0.30947
1405	0.308
1406	0.30727
1407	0.30747
1408	0.30783
1409	0.30813
1410	0.30802
1411	0.30751
1412	0.30735
1413	0.3077
1414	0.30769
1415	0.30683
1416	0.30549
1417	0.30442
1418	0.30334
1419	0.30101
1420	0.29868
1421	0.29833
1422	0.29856
1423	0.2976
1424	0.29521
1425	0.29301
1426	0.2919
1427	0.29124
1428	0.29022
1429	0.28762
1430	0.28362
1431	0.28092
1432	0.28001
1433	0.27889
1434	0.277
1435	0.27491
1436	0.27247
1437	0.2707
1438	0.2708
1439	0.27045
1440	0.26961
1441	0.26973
1442	0.27097
1443	0.27206
1444	0.27238
1445	0.27301
1446	0.27513
1447	0.27822
1448	0.28115
1449	0.28372
1450	0.28661
1451	0.2905
1452	0.29504
1453	0.29885
1454	0.30117
1455	0.30278
1456	0.30503
1457	0.30888
1458	0.31225
1459	0.31471
1460	0.31767
1461	0.32048
1462	0.32187
1463	0.32105
1464	0.31773
1465	0.31221
1466	0.3082
1467	0.30553
1468	0.3009
1469	0.29464
1470	0.28862
1471	0.28269
1472	0.27465
1473	0.26514
1474	0.25858
1475	0.25515
1476	0.25205
1477	0.24965
1478	0.24904
1479	0.2496
1480	0.25063
1481	0.25143
1482	0.25067
1483	0.24708
1484	0.24072
1485	0.23316
1486	0.22533
1487	0.21603
1488	0.2067
1489	0.19958
1490	0.19218
1491	0.18624
1492	0.18346
1493	0.18108
1494	0.17832
1495	0.17531
1496	0.17159
1497	0.16836
1498	0.16652
1499	0.16459
1500	0.16326
1501	0.16273
1502	0.16213
1503	0.16155
1504	0.16093
1505	0.1594
1506	0.15556
1507	0.15238
1508	0.15322
1509	0.15537
1510	0.1573
1511	0.15884
1512	0.16
1513	0.16114
1514	0.16233
1515	0.16318
1516	0.16346
1517	0.16384
1518	0.1663
1519	0.16903
1520	0.17036
1521	0.17092
1522	0.17305
1523	0.17693
1524	0.17995
1525	0.18219
1526	0.18473
1527	0.18755
1528	0.19008
1529	0.1926
1530	0.19516
1531	0.19741
1532	0.19882
1533	0.19878
1534	0.1987
1535	0.20021
1536	0.20213
1537	0.20331
1538	0.2031
1539	0.19952
1540	0.19496
1541	0.1952
1542	0.19575
1543	0.19565
1544	0.19554
1545	0.19454
1546	0.19412
1547	0.19447
1548	0.19381
1549	0.19154
1550	0.18857
1551	0.18709
1552	0.18666
1553	0.18504
1554	0.1814
1555	0.17815
1556	0.17753
1557	0.17695
1558	0.17177
1559	0.16301
1560	0.16117
1561	0.16407
1562	0.1658
1563	0.16591
1564	0.16512
1565	0.16463
1566	0.16521
1567	0.16583
1568	0.16528
1569	0.16307
1570	0.16122
1571	0.16206
1572	0.16219
1573	0.16079
1574	0.15924
1575	0.15749
1576	0.15344
1577	0.14858
1578	0.14693
1579	0.14594
1580	0.14421
1581	0.14152
1582	0.13799
1583	0.13429
1584	0.13104
1585	0.12787
1586	0.12396
1587	0.11928
1588	0.1146
1589	0.1105
1590	0.10659
1591	0.10235
1592	0.09795
1593	0.09404
1594	0.0906
1595	0.08736
1596	0.08434
1597	0.08162
1598	0.07947
1599	0.0778
1600	0.07619
1601	0.0744
1602	0.07269
1603	0.07146
1604	0.07073
1605	0.07016
1606	0.06925
1607	0.0682
1608	0.06742
1609	0.06673
1610	0.06587
1611	0.06514
1612	0.06459
1613	0.06422
1614	0.06405
1615	0.06374
1616	0.0626
1617	0.06234
1618	0.06514
1619	0.06886
1620	0.07237
1621	0.07604
1622	0.07992
1623	0.08481
1624	0.09232
1625	0.09991
1626	0.10631
1627	0.11242
1628	0.11901
1629	0.12532
1630	0.1306
1631	0.13585
1632	0.14145
1633	0.14666
1634	0.15051
1635	0.15368
1636	0.1583
1637	0.16384
1638	0.16839
1639	0.17182
1640	0.17467
1641	0.17763
1642	0.18057
1643	0.18309
1644	0.18499
1645	0.18616
1646	0.18673
1647	0.1874
1648	0.18937
1649	0.19251
1650	0.19571
1651	0.19815
1652	0.19874
1653	0.19579
1654	0.19723
1655	0.20405
1656	0.20935
1657	0.2133
1658	0.21628
1659	0.21888
1660	0.22167
1661	0.22437
1662	0.22654
1663	0.22899
1664	0.23288
1665	0.23773
1666	0.24253
1667	0.24635
1668	0.24889
1669	0.25188
1670	0.25656
1671	0.26103
1672	0.26463
1673	0.26787
1674	0.27029
1675	0.27184
1676	0.27387
1677	0.27602
1678	0.27731
1679	0.27791
1680	0.27783
1681	0.27733
1682	0.27652
1683	0.27407
1684	0.26848
1685	0.26341
1686	0.2628
1687	0.26127
1688	0.25792
1689	0.25402
1690	0.24977
1691	0.24469
1692	0.23928
1693	0.23447
1694	0.23057
1695	0.2249
1696	0.21417
1697	0.20643
1698	0.20436
1699	0.20286
1700	0.19535
1701	0.18687
1702	0.18619
1703	0.18665
1704	0.18598
1705	0.18421
1706	0.18163
1707	0.18016
1708	0.18133
1709	0.18334
1710	0.18438
1711	0.18502
1712	0.18634
1713	0.1883
1714	0.19054
1715	0.19294
1716	0.19526
1717	0.19708
1718	0.1999
1719	0.20474
1720	0.20941
1721	0.21299
1722	0.21653
1723	0.22071
1724	0.22547
1725	0.2299
1726	0.23363
1727	0.23755
1728	0.24194
1729	0.24593
1730	0.24948
1731	0.25357
1732	0.25765
1733	0.26095
1734	0.26435
1735	0.27036
1736	0.27639
1737	0.28162
1738	0.28656
1739	0.29113
1740	0.29618
1741	0.30208
1742	0.30737
1743	0.3126
1744	0.3189
1745	0.32573
1746	0.33241
1747	0.33935
1748	0.34727
1749	0.35616
1750	0.36466
1751	0.37306
1752	0.38153
1753	0.38814
1754	0.39293
1755	0.39621
1756	0.39736
1757	0.39608
1758	0.39401
1759	0.39199
1760	0.38953
1761	0.3854
1762	0.37885
1763	0.37388
1764	0.37166
1765	0.37009
1766	0.36873
1767	0.3672
1768	0.36554
1769	0.36532
1770	0.36665
1771	0.3676
1772	0.36773
1773	0.36908
1774	0.3722
1775	0.37533
1776	0.37792
1777	0.3802
1778	0.38246
1779	0.38495
1780	0.38757
1781	0.39014
1782	0.3925
1783	0.39468
1784	0.39659
1785	0.39821
1786	0.39896
1787	0.39846
1788	0.39703
1789	0.39526
1790	0.39255
1791	0.38772
1792	0.38002
1793	0.37087
1794	0.36384
1795	0.35716
1796	0.34753
1797	0.33645
1798	0.32641
1799	0.31603
1800	0.3042
1801	0.29225
1802	0.2804
1803	0.26939
1804	0.26034
1805	0.25193
1806	0.24319
1807	0.23444
1808	0.22663
1809	0.22028
1810	0.21398
1811	0.2068
1812	0.2008
1813	0.19672
1814	0.19333
1815	0.18969
1816	0.18552
1817	0.18137
1818	0.17809
1819	0.17563
1820	0.17294
1821	0.16974
1822	0.16685
1823	0.16481
1824	0.16288
1825	0.15988
1826	0.15687
1827	0.15533
1828	0.15435
1829	0.15223
1830	0.149
1831	0.14689
1832	0.14624
1833	0.14568
1834	0.14455
1835	0.14295
1836	0.14122
1837	0.13971
1838	0.13862
1839	0.13765
1840	0.13631
1841	0.13491
1842	0.13404
1843	0.133
1844	0.13072
1845	0.12859
1846	0.12836
1847	0.12834
1848	0.12776
1849	0.12688
1850	0.12599
1851	0.12527
1852	0.12472
1853	0.12412
1854	0.12318
1855	0.1221
1856	0.12135
1857	0.12098
1858	0.12047
1859	0.11958
1860	0.11874
1861	0.11827
1862	0.11799
1863	0.11746
1864	0.11659
1865	0.11576
1866	0.11521
1867	0.11456
1868	0.11341
1869	0.11189
1870	0.11121
1871	0.11173
1872	0.11211
1873	0.11179
1874	0.11104
1875	0.11048
1876	0.11032
1877	0.11005
1878	0.10935
1879	0.1086
1880	0.10821
1881	0.10807
1882	0.10768
1883	0.10691
1884	0.10612
1885	0.10574
1886	0.10564
1887	0.10539
1888	0.10471
1889	0.10365
1890	0.10296
1891	0.10297
1892	0.10291
1893	0.10246
1894	0.10193
1895	0.1014
1896	0.10108
1897	0.10086
1898	0.10043
1899	0.09998
1900	0.09974
1901	0.09947
1902	0.09902
1903	0.09852
1904	0.09813
1905	0.09781
1906	0.09738
1907	0.09674
1908	0.09609
1909	0.09565
1910	0.09531
1911	0.09506
1912	0.09478
1913	0.09454
1914	0.09435
1915	0.09411
1916	0.09372
1917	0.09307
1918	0.09219
1919	0.09194
1920	0.09206
1921	0.09176
1922	0.09106
1923	0.09052
1924	0.09048
1925	0.09046
1926	0.0902
1927	0.09
1928	0.08998
1929	0.0897
1930	0.08905
1931	0.08836
1932	0.08803
1933	0.08798
1934	0.08781
1935	0.08734
1936	0.08693
1937	0.08691
1938	0.08697
1939	0.08658
1940	0.08584
1941	0.0852
1942	0.08461
1943	0.08432
1944	0.0842
1945	0.08378
1946	0.08345
1947	0.08369
1948	0.08388
1949	0.0834
1950	0.08268
1951	0.08246
1952	0.08263
1953	0.08264
1954	0.082
1955	0.08126
1956	0.08107
1957	0.08131
1958	0.08124
1959	0.08069
1960	0.08013
1961	0.08011
1962	0.08042
1963	0.08032
1964	0.07953
1965	0.07879
1966	0.07861
1967	0.07859
1968	0.07825
1969	0.07776
1970	0.07745
1971	0.07764
1972	0.07797
1973	0.07769
1974	0.07683
1975	0.07617
1976	0.07629
1977	0.07655
1978	0.07624
1979	0.07552
1980	0.07518
1981	0.0755
1982	0.07581
1983	0.07549
1984	0.07473
1985	0.07431
1986	0.07443
1987	0.07452
1988	0.07405
1989	0.0734
1990	0.07331
1991	0.07352
1992	0.07322
1993	0.0726
1994	0.07221
1995	0.07226
1996	0.0726
1997	0.07262
1998	0.07209
1999	0.07149
2000	0.07138
2001	0.07159
2002	0.07156
2003	0.07105
2004	0.07053
2005	0.07046
2006	0.07062
2007	0.07053
2008	0.0702
2009	0.06982
2010	0.06962
2011	0.06956
2012	0.06939
2013	0.0691
2014	0.06891
2015	0.06884
2016	0.06872
2017	0.06846
2018	0.0683
2019	0.06832
2020	0.06837
2021	0.06852
2022	0.06863
2023	0.0686
2024	0.06835
2025	0.06823
2026	0.06836
2027	0.06866
2028	0.0689
2029	0.06885
2030	0.06855
2031	0.06853
2032	0.06884
2033	0.06914
2034	0.06902
2035	0.06877
2036	0.06882
2037	0.06915
2038	0.06949
2039	0.06938
2040	0.06898
2041	0.06889
2042	0.06934
2043	0.06973
2044	0.06953
2045	0.06916
2046	0.06936
2047	0.07012
2048	0.07063
2049	0.07036
2050	0.06984
2051	0.06981
2052	0.07038
2053	0.0708
2054	0.07039
2055	0.06982
2056	0.06996
2057	0.07079
2058	0.07121
2059	0.07085
2060	0.07034
2061	0.07047
2062	0.07109
2063	0.07131
2064	0.07079
2065	0.07031
2066	0.07059
2067	0.07126
2068	0.07142
2069	0.071
2070	0.07065
2071	0.07087
2072	0.07124
2073	0.07114
2074	0.07069
2075	0.07045
2076	0.07074
2077	0.07117
2078	0.07103
2079	0.07055
2080	0.0704
2081	0.07089
2082	0.07136
2083	0.07132
2084	0.07086
2085	0.0708
2086	0.07127
2087	0.07171
2088	0.07151
2089	0.07103
2090	0.07087
2091	0.0712
2092	0.07149
2093	0.07141
2094	0.07117
2095	0.07117
2096	0.07136
2097	0.07145
2098	0.07134
2099	0.0712
2100	0.07124
2101	0.07137
2102	0.07133
2103	0.07119
2104	0.07129
2105	0.07156
2106	0.07169
2107	0.07159
2108	0.07141
2109	0.07141
2110	0.07154
2111	0.07168
2112	0.0717
2113	0.07185
2114	0.07207
2115	0.07214
2116	0.07204
2117	0.07195
2118	0.07206
2119	0.07219
2120	0.07213
2121	0.07201
2122	0.07201
2123	0.07226
2124	0.07257
2125	0.07252
2126	0.07218
2127	0.07208
2128	0.07236
2129	0.07266
2130	0.07272
2131	0.07265
2132	0.07269
2133	0.07295
2134	0.07315
2135	0.07297
2136	0.07277
2137	0.07294
2138	0.07324
2139	0.07319
2140	0.0729
2141	0.07281
2142	0.07314
2143	0.07354
2144	0.07358
2145	0.07341
2146	0.07341
2147	0.07341
2148	0.07341
2149	0.07341
2150	0.07341
2151	0.07341
2152	0.07341
2153	0.07341
2154	0.07342
2155	0.07342
2156	0.07342
2157	0.07342
2158	0.07342
2159	0.07342
2160	0.07342
2161	0.07342
2162	0.07342
2163	0.07342
2164	0.07342
2165	0.07342
2166	0.07342
2167	0.07342
2168	0.07342
2169	0.07342
2170	0.07342
2171	0.07342
2172	0.07342
2173	0.07343
2174	0.07343
2175	0.07343
2176	0.07343
2177	0.07343
2178	0.07343
2179	0.07343
2180	0.07343
2181	0.07343
2182	0.07343
2183	0.07343
2184	0.07343
2185	0.07343
2186	0.07343
2187	0.07343
2188	0.07343
2189	0.07343
2190	0.07343
2191	0.07343
2192	0.07344
2193	0.07344
2194	0.07344
2195	0.07344
2196	0.07344
2197	0.07344
2198	0.07344
2199	0.07344
2200	0.07344
2201	0.07344
2202	0.07344
2203	0.07344
2204	0.07344
2205	0.07344
2206	0.07344
2207	0.07344
2208	0.07344
2209	0.07344
2210	0.07344
2211	0.07344
2212	0.07345
2213	0.07345
2214	0.07345
2215	0.07345
2216	0.07345
2217	0.07345
2218	0.07345
2219	0.07345
2220	0.07345
2221	0.07345
2222	0.07345
2223	0.07345
2224	0.07345
2225	0.07345
2226	0.07345
2227	0.07345
2228	0.07345
2229	0.07345
2230	0.07345
2231	0.07346
2232	0.07346
2233	0.07346
2234	0.07346
2235	0.07346
2236	0.07346
2237	0.07346
2238	0.07346
2239	0.07346
2240	0.07346
2241	0.07346
2242	0.07346
2243	0.07346
2244	0.07346
2245	0.07346
2246	0.07346
2247	0.07346
2248	0.07346
2249	0.07346
2250	0.07346
2251	0.07347
2252	0.07347
2253	0.07347
2254	0.07347
2255	0.07347
2256	0.07347
2257	0.07347
2258	0.07347
2259	0.07347
2260	0.07347
2261	0.07347
2262	0.07347
2263	0.07347
2264	0.07347
2265	0.07347
2266	0.07347
2267	0.07347
2268	0.07347
2269	0.07347
2270	0.07348
2271	0.07348
2272	0.07348
2273	0.07348
2274	0.07348
2275	0.07348
2276	0.07348
2277	0.07348
2278	0.07348
2279	0.07348
2280	0.07348
2281	0.07348
2282	0.07348
2283	0.07348
2284	0.07348
2285	0.07348
2286	0.07348
2287	0.07348
2288	0.07348
2289	0.07349
2290	0.07349
2291	0.07349
2292	0.07349
2293	0.07349
2294	0.07349
2295	0.07349
2296	0.07349
2297	0.07349
2298	0.07349
2299	0.07349
2300	0.07349
2301	0.07349
2302	0.07349
2303	0.07349
2304	0.07349
2305	0.07349
2306	0.07349
2307	0.07349
2308	0.07349
2309	0.0735
2310	0.0735
2311	0.0735
2312	0.0735
2313	0.0735
2314	0.0735
2315	0.0735
2316	0.0735
2317	0.0735
2318	0.0735
2319	0.0735
2320	0.0735
2321	0.0735
2322	0.0735
2323	0.0735
2324	0.0735
2325	0.0735
2326	0.0735
2327	0.0735
2328	0.07351
2329	0.07351
2330	0.07351
2331	0.07351
2332	0.07351
2333	0.07351
2334	0.07351
2335	0.07351
2336	0.07351
2337	0.07351
2338	0.07351
2339	0.07351
2340	0.07351
2341	0.07351
2342	0.07351
2343	0.07351
2344	0.07351
2345	0.07351
2346	0.07351
2347	0.07351
2348	0.07352
2349	0.07352
2350	0.07352
2351	0.07352
2352	0.07352
2353	0.07352
2354	0.07352
2355	0.07352
2356	0.07352
2357	0.07352
2358	0.07352
2359	0.07352
2360	0.07352
2361	0.07352
2362	0.07352
2363	0.07352
2364	0.07352
2365	0.07352
2366	0.07352
2367	0.07353
2368	0.07353
2369	0.07353
2370	0.07353
2371	0.07353
2372	0.07353
2373	0.07353
2374	0.07353
2375	0.07353
2376	0.07353
2377	0.07353
2378	0.07353
2379	0.07353
2380	0.07353
2381	0.07353
2382	0.07353
2383	0.07353
2384	0.07353
2385	0.07353
2386	0.07354
2387	0.07354
2388	0.07354
2389	0.07354
2390	0.07354
2391	0.07423
2392	0.07443
2393	0.07426
2394	0.07423
2395	0.0746
2396	0.07493
2397	0.07485
2398	0.07463
2399	0.07471
2401	0.07514
2402	0.07502
2403	0.07503
2404	0.07539
2405	0.07585
2406	0.07598
2407	0.07581
2408	0.07561
2409	0.07585
2410	0.07626
2411	0.07646
2412	0.07628
2413	0.07626
2414	0.07661
2415	0.07705
2416	0.07716
2417	0.07705
2418	0.07709
2419	0.07731
2420	0.07749
2421	0.07744
2422	0.07732
2423	0.07752
2424	0.07794
2425	0.07812
2426	0.07804
2427	0.07805
2428	0.07835
2429	0.07877
2430	0.07888
2431	0.07887
2432	0.07906
2433	0.0797
2434	0.08027
2435	0.08038
2436	0.0802
2437	0.08035
2438	0.0807
2439	0.08089
2440	0.08071
2441	0.08071
2442	0.08114
2443	0.08172
2444	0.08206
2445	0.082
2446	0.08191
2447	0.08215
2448	0.08254
2449	0.08269
2450	0.0826
2451	0.08264
2452	0.083
2453	0.08343
2454	0.08362
2455	0.08359
2456	0.08371
2457	0.08415
2458	0.0845
2459	0.08443
2460	0.0843
2461	0.08454
2462	0.0851
2463	0.08535
2464	0.08516
2465	0.08506
2466	0.08545
2467	0.08599
2468	0.08626
2469	0.08617
2470	0.08621
2471	0.08663
2472	0.08706
2473	0.08707
2474	0.0869
2475	0.087
2476	0.08749
2477	0.08787
2478	0.08782
2479	0.0877
2480	0.08797
2481	0.08852
2482	0.08882
2483	0.0887
2484	0.08857
2485	0.08883
2486	0.08934
2487	0.08952
2488	0.08931
2489	0.08911
2490	0.08934
2491	0.08985
2492	0.08996
2493	0.08968
2494	0.08967
2495	0.09017
2496	0.09072
2497	0.09089
2498	0.09072
2499	0.09069
2500	0.09098
2501	0.09141
2502	0.09159
2503	0.09149
2504	0.09151
2505	0.09187
2506	0.09212
2507	0.09194
2508	0.0917
2509	0.09183
2510	0.09224
2511	0.09247
2512	0.09236
2513	0.09222
2514	0.09224
2515	0.09237
2516	0.09237
2517	0.0923
2518	0.0925
2519	0.09281
2520	0.09293
2521	0.0928
2522	0.09272
2523	0.09283
2524	0.09302
2525	0.0931
2526	0.09303
2527	0.09305
2528	0.09322
2529	0.09339
2530	0.09344
2531	0.09337
2532	0.09342
2533	0.09365
2534	0.09383
2535	0.09382
2536	0.09387
2537	0.09419
2538	0.09465
2539	0.0948
2540	0.09451
2541	0.09431
2542	0.09462
2543	0.09504
2544	0.09498
2545	0.0947
2546	0.09467
2547	0.09511
2548	0.09558
2549	0.09565
2550	0.09539
2551	0.09532
2552	0.09576
2553	0.09629
2554	0.09631
2555	0.09604
2556	0.09608
2557	0.09651
2558	0.09685
2559	0.09679
2560	0.09653
2561	0.09654
2562	0.09695
2563	0.09727
2564	0.09711
2565	0.09695
2566	0.09738
2567	0.0982
2568	0.09859
2569	0.09811
2570	0.09761
2571	0.09779
2572	0.09847
2573	0.09874
2574	0.09857
2575	0.09857
2576	0.09902
2577	0.09956
2578	0.09973
2579	0.09947
2580	0.09933
2581	0.09959
2582	0.10003
2583	0.10021
2584	0.10006
2585	0.10005
2586	0.10043
2587	0.1008
2588	0.10083
2589	0.10066
2590	0.10071
2591	0.10106
2592	0.10148
2593	0.1016
2594	0.1015
2595	0.10165
2596	0.10201
2597	0.10221
2598	0.10216
2599	0.1021
2600	0.10232
2601	0.1026
2602	0.10273
2603	0.1028
2604	0.10301
2605	0.10323
2606	0.10348
2607	0.10371
2608	0.10386
2609	0.10405
2610	0.10437
2611	0.10473
2612	0.10488
2613	0.10493
2614	0.10512
2615	0.10538
2616	0.10557
2617	0.10572
2618	0.10611
2619	0.10666
2620	0.10699
2621	0.10702
2622	0.10701
2623	0.10739
2624	0.10792
2625	0.10812
2626	0.10812
2627	0.10829
2628	0.10882
2629	0.10924
2630	0.10935
2631	0.10927
2632	0.10946
2633	0.10997
2634	0.11049
2635	0.11077
2636	0.11094
2637	0.11122
2638	0.11161
2639	0.11195
2640	0.1121
2641	0.11223
2642	0.11269
2643	0.11341
2644	0.11379
2645	0.11368
2646	0.11361
2647	0.11401
2648	0.11473
2649	0.11516
2650	0.11524
2651	0.11532
2652	0.11584
2653	0.11647
2654	0.11681
2655	0.11686
2656	0.11704
2657	0.11743
2658	0.1179
2659	0.11827
2660	0.11846
2661	0.11867
2662	0.11913
2663	0.11969
2664	0.12
2665	0.12014
2666	0.12043
2667	0.12083
2668	0.1211
2669	0.12123
2670	0.12133
2671	0.12165
2672	0.12218
2673	0.12269
2674	0.12282
2675	0.12277
2676	0.12298
2677	0.12339
2678	0.12371
2679	0.12381
2680	0.12396
2681	0.12417
2682	0.12434
2683	0.12433
2684	0.12433
2685	0.12448
2686	0.1249
2687	0.12544
2688	0.12567
2689	0.12557
2690	0.12559
2691	0.1259
2692	0.12619
2693	0.12632
2694	0.12641
2695	0.12664
2696	0.127
2697	0.12716
2698	0.12723
2699	0.12752
2700	0.12797
2701	0.12828
2702	0.12827
2703	0.12819
2704	0.12846
2705	0.12892
2706	0.12946
2707	0.12961
2708	0.12972
2709	0.13017
2710	0.13086
2711	0.13151
2712	0.13186
2713	0.13213
2714	0.13249
2715	0.13296
2716	0.13337
2717	0.13358
2718	0.13385
2719	0.1344
2720	0.13506
2721	0.13553
2722	0.13581
2723	0.1362
2724	0.13679
2725	0.13739
2726	0.13766
2727	0.13777
2728	0.13803
2729	0.13853
2730	0.13893
2731	0.1391
2732	0.13919
2733	0.13949
2734	0.14009
2735	0.14059
2736	0.14085
2737	0.14106
2738	0.14138
2739	0.14167
2740	0.14185
2741	0.14193
2742	0.14202
2743	0.14228
2744	0.14267
2745	0.14307
2746	0.14341
2747	0.14372
2748	0.14412
2749	0.1446
2750	0.14495
2751	0.14507
2752	0.14507
2753	0.14524
2754	0.14554
2755	0.14586
2756	0.14613
2757	0.14638
2758	0.1466
2759	0.14679
2760	0.1471
2761	0.1473
2762	0.14745
2763	0.14766
2764	0.14788
2765	0.1482
2766	0.14855
2767	0.14879
2768	0.14902
2769	0.14936
2770	0.14968
2771	0.1499
2772	0.15001
2773	0.15012
2774	0.1504
2775	0.15077
2776	0.15111
2777	0.15141
2778	0.15173
2779	0.15201
2780	0.15239
2781	0.15293
2782	0.15339
2783	0.15377
2784	0.15414
2785	0.15474
2786	0.15538
2787	0.15577
2788	0.15609
2789	0.15646
2790	0.15701
2791	0.15776
2792	0.15841
2793	0.15887
2794	0.15931
2795	0.16005
2796	0.16106
2797	0.1619
2798	0.16244
2799	0.16296
2800	0.16368
2801	0.16455
2802	0.16535
2803	0.16607
2804	0.16689
2805	0.16784
2806	0.16882
2807	0.16971
2808	0.17069
2809	0.17193
2810	0.17328
2811	0.1744
2812	0.17538
2813	0.17645
2814	0.17769
2815	0.17909
2816	0.18044
2817	0.18157
2818	0.18268
2819	0.18406
2820	0.18551
2821	0.18683
2822	0.18802
2823	0.18904
2824	0.19001
2825	0.19109
2826	0.19213
2827	0.1929
2828	0.19351
2829	0.19429
2830	0.1953
2831	0.19629
2832	0.19693
2833	0.19744
2834	0.19821
2835	0.19919
2836	0.20029
2837	0.20144
2838	0.20258
2839	0.20367
2840	0.2047
2841	0.20562
2842	0.20642
2843	0.20735
2844	0.20843
2845	0.20942
2846	0.21008
2847	0.21061
2848	0.21123
2849	0.21244
2850	0.21489
2851	0.21873
2852	0.22356
2853	0.22899
2854	0.2348
2855	0.24068
2856	0.24619
2857	0.25115
2858	0.25568
2859	0.26004
2860	0.26421
2861	0.26831
2862	0.27237
2863	0.27649
2864	0.28074
2865	0.285
2866	0.28915
2867	0.29317
2868	0.2973
2869	0.30167
2870	0.3061
2871	0.31028
2872	0.31411
2873	0.31768
2874	0.321
2875	0.32398
2876	0.3266
2877	0.32886
2878	0.33079
2879	0.33248
2880	0.33382
2881	0.33471
2882	0.3353
2883	0.33588
2884	0.33656
2885	0.33718
2886	0.33761
2887	0.33785
2888	0.33825
2889	0.33892
2890	0.33958
2891	0.34013
2892	0.34086
2893	0.34185
2894	0.34313
2895	0.34458
2896	0.34609
2897	0.34745
2898	0.34882
2899	0.35042
2900	0.3522
2901	0.35395
2902	0.35578
2903	0.3577
2904	0.35972
2905	0.36192
2906	0.3641
2907	0.36607
2908	0.36789
2909	0.36974
2910	0.37162
2911	0.37332
2912	0.37466
2913	0.37554
2914	0.37613
2915	0.37697
2916	0.37839
2917	0.38041
2918	0.38325
2919	0.38713
2920	0.39202
2921	0.39769
2922	0.40374
2923	0.40971
2924	0.41544
2925	0.4208
2926	0.42544
2927	0.42908
2928	0.43195
2929	0.43438
2930	0.43647
2931	0.43789
2932	0.4383
2933	0.43779
2934	0.4366
2935	0.43504
2936	0.433
2937	0.43021
2938	0.42665
2939	0.42264
2940	0.41827
2941	0.41358
2942	0.40849
2943	0.40307
2944	0.39748
2945	0.39187
2946	0.38608
2947	0.3801
2948	0.37436
2949	0.3691
2950	0.36421
2951	0.3597
2952	0.35577
2953	0.35221
2954	0.34933
2955	0.34748
2956	0.34667
2957	0.34668
2958	0.34723
2959	0.34845
2960	0.35041
2961	0.35295
2962	0.35588
2963	0.35894
2964	0.36207
2965	0.36541
2966	0.36872
2967	0.37161
2968	0.374
2969	0.37593
2970	0.37724
2971	0.3778
2972	0.37751
2973	0.3766
2974	0.37512
2975	0.37332
2976	0.37098
2977	0.36808
2978	0.36452
2979	0.3606
2980	0.35657
2981	0.35238
2982	0.3478
2983	0.34287
2984	0.33777
2985	0.33255
2986	0.32713
2987	0.32151
2988	0.31586
2989	0.31017
2990	0.30442
2991	0.29888
2992	0.29354
2993	0.28836
2994	0.28341
2995	0.27875
2996	0.2744
2997	0.27028
2998	0.26637
2999	0.26268
3000	0.25933
3001	0.25631
3002	0.25352
3003	0.25092
3004	0.24838
3005	0.24607
3006	0.24397
3007	0.24196
3008	0.24015
3009	0.23858
3010	0.23712
3011	0.23564
3012	0.23422
3013	0.23292
3014	0.2319
3015	0.23109
3016	0.23036
3017	0.22968
3018	0.22894
3019	0.22819
3020	0.22759
3021	0.22728
3022	0.22718
3023	0.22699
3024	0.22664
3025	0.22636
3026	0.22647
3027	0.22672
3028	0.22674
3029	0.22649
3030	0.22614
3031	0.226
3032	0.22623
3033	0.22669
3034	0.22697
3035	0.22696
3036	0.22714
3037	0.22767
3038	0.22815
3039	0.22836
3040	0.22836
3041	0.22852
3042	0.229
3043	0.2295
3044	0.22963
3045	0.22962
3046	0.22989
3047	0.2304
3048	0.23083
3049	0.23113
3050	0.23143
3051	0.23186
3052	0.23237
3053	0.23278
3054	0.23292
3055	0.23296
3056	0.23324
3057	0.23356
3058	0.23393
3059	0.23413
3060	0.23423
3061	0.23452
3062	0.23512
3063	0.23567
3064	0.23604
3065	0.23642
3066	0.23694
3067	0.23754
3068	0.23812
3069	0.23849
3070	0.23876
3071	0.23911
3072	0.23937
3073	0.23957
3074	0.23996
3075	0.24059
3076	0.24122
3077	0.24162
3078	0.24183
3079	0.24213
3080	0.24276
3081	0.24345
3082	0.24397
3083	0.24439
3084	0.24497
3085	0.24555
3086	0.2462
3087	0.247
3088	0.24764
3089	0.24816
3090	0.24864
3091	0.24919
3092	0.24991
3093	0.25083
3094	0.25171
3095	0.25223
3096	0.2526
3097	0.25328
3098	0.25418
3099	0.25488
3100	0.2553
3101	0.25583
3102	0.2565
3103	0.2572
3104	0.25794
3105	0.25872
3106	0.2595
3107	0.26034
3108	0.26128
3109	0.26196
3110	0.26231
3111	0.26278
3112	0.26341
3113	0.26402
3114	0.26471
3115	0.26544
3116	0.26605
3117	0.26672
3118	0.26757
3119	0.26837
3120	0.26912
3121	0.26987
3122	0.27063
3123	0.27144
3124	0.27221
3125	0.27283
3126	0.27352
3127	0.27459
3128	0.27581
3129	0.2767
3130	0.27736
3131	0.27814
3132	0.27921
3133	0.28038
3134	0.28127
3135	0.28185
3136	0.28262
3137	0.28392
3138	0.28523
3139	0.28599
3140	0.28654
3141	0.28743
3142	0.28874
3143	0.29009
3144	0.29107
3145	0.29186
3146	0.2929
3147	0.29427
3148	0.29543
3149	0.29613
3150	0.29673
3151	0.29764
3152	0.2989
3153	0.3002
3154	0.3013
3155	0.30228
3156	0.30348
3157	0.30493
3158	0.30619
3159	0.30706
3160	0.30785
3161	0.30882
3162	0.31017
3163	0.31144
3164	0.3122
3165	0.31279
3166	0.3138
3167	0.31521
3168	0.31665
3169	0.31777
3170	0.31874
3171	0.3197
3172	0.32056
3173	0.32146
3174	0.32253
3175	0.32372
3176	0.32485
3177	0.32577
3178	0.3265
3179	0.32731
3180	0.32838
3181	0.32968
3182	0.33101
3183	0.33211
3184	0.333
3185	0.3338
3186	0.33467
3187	0.33567
3188	0.33643
3189	0.337
3190	0.33781
3191	0.33887
3192	0.3398
3193	0.34066
3194	0.34157
3195	0.34236
3196	0.34302
3197	0.34372
3198	0.34438
3199	0.34491
3200	0.34547
3201	0.34611
3202	0.34677
3203	0.34746
3204	0.3481
3205	0.34862
3206	0.34912
3207	0.34971
3208	0.35044
3209	0.35112
3210	0.3516
3211	0.35213
3212	0.35287
3213	0.35352
3214	0.35386
3215	0.35411
3216	0.35451
3217	0.35503
3218	0.35552
3219	0.35569
3220	0.35583
3221	0.35631
3222	0.35701
3223	0.35764
3224	0.3581
3225	0.35843
3226	0.35856
3227	0.35873
3228	0.35911
3229	0.35944
3230	0.35958
3231	0.35969
3232	0.35993
3233	0.36026
3234	0.36058
3235	0.36098
3236	0.36155
3237	0.36209
3238	0.36257
3239	0.36298
3240	0.36323
3241	0.36352
3242	0.36417
3243	0.36487
3244	0.36511
3245	0.36492
3246	0.36494
3247	0.3654
3248	0.36613
3249	0.36676
3250	0.36715
3251	0.36771
3252	0.36852
3253	0.36923
3254	0.36947
3255	0.36961
3256	0.37009
3257	0.37083
3258	0.37148
3259	0.37204
3260	0.3727
3261	0.37361
3262	0.37458
3263	0.37537
3264	0.37594
3265	0.37646
3266	0.37721
3267	0.37807
3268	0.37857
3269	0.37881
3270	0.37915
3271	0.37974
3272	0.38068
3273	0.38154
3274	0.38224
3275	0.38305
3276	0.38408
3277	0.3849
3278	0.38534
3279	0.38546
3280	0.38559
3281	0.38607
3282	0.38673
3283	0.38718
3284	0.38747
3285	0.38792
3286	0.38844
3287	0.38872
3288	0.38883
3289	0.38901
3290	0.38909
3291	0.38901
3292	0.38899
3293	0.38903
3294	0.38891
3295	0.38881
3296	0.38894
3297	0.38902
3298	0.38892
3299	0.38885
3300	0.38878
3301	0.38839
3302	0.3881
3303	0.38792
3304	0.3876
3305	0.38693
3306	0.38596
3307	0.38517
3308	0.38462
3309	0.38406
3310	0.38335
3311	0.38259
3312	0.38188
3313	0.38116
3314	0.38035
3315	0.37946
3316	0.37846
3317	0.37734
3318	0.37611
3319	0.37468
3320	0.37316
3321	0.37179
3322	0.37056
3323	0.36921
3324	0.36769
3325	0.366
3326	0.36404
3327	0.36206
3328	0.36048
3329	0.35931
3330	0.35783
3331	0.35572
3332	0.3536
3333	0.35171
3334	0.34971
3335	0.34736
3336	0.34471
3337	0.34216
3338	0.33993
3339	0.3377
3340	0.33496
3341	0.33212
3342	0.32987
3343	0.3279
3344	0.32559
3345	0.32291
3346	0.32019
3347	0.31749
3348	0.31471
3349	0.31165
3350	0.30835
3351	0.30517
3352	0.3022
3353	0.29919
3354	0.29561
3355	0.29186
3356	0.28833
3357	0.28491
3358	0.28151
3359	0.27827
3360	0.27506
3361	0.27179
3362	0.26868
3363	0.26562
3364	0.26216
3365	0.2582
3366	0.25439
3367	0.25092
3368	0.24728
3369	0.24323
3370	0.23914
3371	0.23527
3372	0.23151
3373	0.22784
3374	0.22452
3375	0.22139
3376	0.21789
3377	0.21422
3378	0.21087
3379	0.20775
3380	0.20448
3381	0.20102
3382	0.19759
3383	0.19461
3384	0.19172
3385	0.18841
3386	0.18502
3387	0.18203
3388	0.17952
3389	0.17716
3390	0.17453
3391	0.17155
3392	0.16823
3393	0.16488
3394	0.16189
3395	0.15918
3396	0.15646
3397	0.15356
3398	0.15076
3399	0.14831
3400	0.14585
3401	0.14305
3402	0.14028
3403	0.1379
3404	0.13564
3405	0.13324
3406	0.13044
3407	0.12734
3408	0.12455
3409	0.12204
3410	0.11945
3411	0.11687
3412	0.11464
3413	0.11216
3414	0.10927
3415	0.10671
3416	0.10457
3417	0.10246
3418	0.10032
3419	0.09823
3420	0.09613
3421	0.09397
3422	0.09211
3423	0.09056
3424	0.08884
3425	0.08696
3426	0.08526
3427	0.08385
3428	0.08248
3429	0.08091
3430	0.07928
3431	0.0778
3432	0.07654
3433	0.07568
3434	0.07494
3435	0.07396
3436	0.07296
3437	0.07227
3438	0.07171
3439	0.07092
3440	0.07019
3441	0.06986
3442	0.06955
3443	0.0689
3444	0.0683
3445	0.0682
3446	0.06825
3447	0.06797
3448	0.06782
3449	0.06819
3450	0.06843
3451	0.06839
3452	0.06836
3453	0.0684
3454	0.06863
3455	0.06898
3456	0.06929
3457	0.06957
3458	0.07002
3459	0.07057
3460	0.07094
3461	0.07115
3462	0.07152
3463	0.07212
3464	0.07258
3465	0.07309
3466	0.07381
3467	0.07445
3468	0.0753
3469	0.07625
3470	0.07711
3471	0.0775
3472	0.07739
3473	0.07746
3474	0.0781
3475	0.07897
3476	0.07975
3477	0.08044
3478	0.08105
3479	0.08163
3480	0.0821
3481	0.08209
3482	0.08186
3483	0.08222
3484	0.08319
3485	0.08413
3486	0.08477
3487	0.08514
3488	0.08535
3489	0.08572
3490	0.08632
3491	0.08699
3492	0.0876
3493	0.08836
3494	0.08938
3495	0.09001
3496	0.09008
3497	0.09015
3498	0.09053
3499	0.09104
3500	0.09181
3501	0.09272
3502	0.09312
3503	0.09288
3504	0.09269
3505	0.09297
3506	0.09326
3507	0.09339
3508	0.09375
3509	0.09408
3510	0.09424
3511	0.09467
3512	0.09527
3513	0.09585
3514	0.09659
3515	0.09713
3516	0.0972
3517	0.09696
3518	0.09687
3519	0.09714
3520	0.09754
3521	0.0979
3522	0.09842
3523	0.09901
3524	0.09951
3525	0.09994
3526	0.10017
3527	0.10003
3528	0.09984
3529	0.09998
3530	0.10046
3531	0.10126
3532	0.10226
3533	0.10332
3534	0.10421
3535	0.10487
3536	0.10514
3537	0.10504
3538	0.10507
3539	0.10544
3540	0.10614
3541	0.10725
3542	0.1086
3543	0.10949
3544	0.11003
3545	0.11057
3546	0.11108
3547	0.11147
3548	0.11191
3549	0.11276
3550	0.11391
3551	0.11492
3552	0.11523
3553	0.1153
3554	0.11618
3555	0.11769
3556	0.11924
3557	0.12042
3558	0.12135
3559	0.12238
3560	0.12326
3561	0.1239
3562	0.12462
3563	0.12553
3564	0.12674
3565	0.12799
3566	0.12814
3567	0.12751
3568	0.12769
3569	0.12925
3570	0.1315
3571	0.13327
3572	0.13461
3573	0.13615
3574	0.13752
3575	0.13858
3576	0.13971
3577	0.14099
3578	0.14257
3579	0.14389
3580	0.14469
3581	0.14586
3582	0.14774
3583	0.14906
3584	0.14984
3585	0.1512
3586	0.15245
3587	0.15244
3588	0.15223
3589	0.15289
3590	0.15431
3591	0.15614
3592	0.15757
3593	0.15823
3594	0.15889
3595	0.15993
3596	0.16108
3597	0.16263
3598	0.1642
3599	0.16521
3600	0.16583
3601	0.16643
3602	0.16777
3603	0.16968
3604	0.17135
3605	0.17278
3606	0.17416
3607	0.1754
3608	0.17675
3609	0.17809
3610	0.17928
3611	0.18098
3612	0.18229
3613	0.18205
3614	0.18162
3615	0.18191
3616	0.18246
3617	0.18312
3618	0.18353
3619	0.18353
3620	0.18275
3621	0.18172
3622	0.18145
3623	0.18167
3624	0.18225
3625	0.18282
3626	0.18306
3627	0.18391
3628	0.18523
3629	0.18373
3630	0.18035
3631	0.18107
3632	0.18345
3633	0.18503
3634	0.18509
3635	0.18488
3636	0.18557
3637	0.18613
3638	0.18609
3639	0.18598
3640	0.18605
3641	0.18609
3642	0.1858
3643	0.18525
3644	0.1849
3645	0.18507
3646	0.18537
3647	0.1846
3648	0.183
3649	0.18187
3650	0.17959
3651	0.17695
3652	0.17689
3653	0.17815
3654	0.17926
3655	0.17988
3656	0.17856
3657	0.17516
3658	0.17392
3659	0.17424
3660	0.17389
3661	0.17287
3662	0.17204
3663	0.17144
3664	0.17055
3665	0.16939
3666	0.16864
3667	0.16862
3668	0.16822
3669	0.16636
3670	0.16346
3671	0.16077
3672	0.16032
3673	0.16208
3674	0.16406
3675	0.16262
3676	0.15641
3677	0.15452
3678	0.15592
3679	0.15619
3680	0.15426
3681	0.15271
3682	0.15204
3683	0.15113
3684	0.14983
3685	0.14858
3686	0.1481
3687	0.14839
3688	0.14729
3689	0.14341
3690	0.14048
3691	0.13867
3692	0.13666
3693	0.13637
3694	0.13675
3695	0.13631
3696	0.13516
3697	0.13394
3698	0.133
3699	0.13237
3700	0.13253
3701	0.13278
3702	0.13081
3703	0.12854
3704	0.12861
3705	0.12903
3706	0.12853
3707	0.12805
3708	0.12809
3709	0.12729
3710	0.12612
3711	0.12676
3712	0.12649
3713	0.12537
3714	0.1267
3715	0.12803
3716	0.12784
3717	0.12715
3718	0.12599
3719	0.12379
3720	0.12183
3721	0.12097
3722	0.11928
3723	0.11713
3724	0.11634
3725	0.11559
3726	0.11361
3727	0.11183
3728	0.11182
3729	0.11302
3730	0.11445
3731	0.11594
3732	0.11584
3733	0.11398
3734	0.11399
3735	0.11341
3736	0.11067
3737	0.11047
3738	0.11166
3739	0.11302
3740	0.11466
3741	0.11541
3742	0.11604
3743	0.11852
3744	0.1191
3745	0.11356
3746	0.1104
3747	0.11322
3748	0.11588
3749	0.11595
3750	0.11392
3751	0.11353
3752	0.11295
3753	0.11113
3754	0.11169
3755	0.11354
3756	0.11405
3757	0.11323
3758	0.1134
3759	0.1137
3760	0.1114
3761	0.10981
3762	0.11055
3763	0.11121
3764	0.1118
3765	0.11173
3766	0.11002
3767	0.1093
3768	0.11091
3769	0.11187
3770	0.10995
3771	0.1074
3772	0.10728
3773	0.108
3774	0.10823
3775	0.10796
3776	0.10741
3777	0.10715
3778	0.10714
3779	0.10616
3780	0.1043
3781	0.10384
3782	0.10459
3783	0.10529
3784	0.10529
3785	0.10413
3786	0.10325
3787	0.10358
3788	0.10393
3789	0.10379
3790	0.1033
3791	0.10294
3792	0.10261
3793	0.10213
3794	0.10185
3795	0.10246
3796	0.10256
3797	0.10053
3798	0.0989
3799	0.09982
3800	0.10171
3801	0.10131
3802	0.09753
3803	0.0953
3804	0.09656
3805	0.09886
3806	0.1
3807	0.0976
3808	0.09501
3809	0.09555
3810	0.09679
3811	0.09709
3812	0.09683
3813	0.09661
3814	0.09744
3815	0.09896
3816	0.0963
3817	0.09128
3818	0.09212
3819	0.09498
3820	0.09685
3821	0.09497
3822	0.08996
3823	0.08912
3824	0.09079
3825	0.09215
3826	0.09246
3827	0.09154
3828	0.09073
3829	0.0913
3830	0.09258
3831	0.09262
3832	0.0906
3833	0.0895
3834	0.0901
3835	0.0897
3836	0.08961
3837	0.09082
3838	0.08917
3839	0.08677
3840	0.08692
3841	0.08675
3842	0.08751
3843	0.08886
3844	0.08759
3845	0.08601
3846	0.08639
3847	0.08695
3848	0.08716
3849	0.08728
3850	0.08771
3851	0.08899
3852	0.08966
3853	0.08792
3854	0.08323
3855	0.07986
3856	0.08152
3857	0.08352
3858	0.08379
3859	0.08416
3860	0.08517
3861	0.08538
3862	0.08402
3863	0.08356
3864	0.08454
3865	0.08295
3866	0.08029
3867	0.0812
3868	0.08418
3869	0.08592
3870	0.08215
3871	0.07793
3872	0.07965
3873	0.08236
3874	0.0817
3875	0.07869
3876	0.07855
3877	0.07987
3878	0.08102
3879	0.08235
3880	0.08173
3881	0.07854
3882	0.07746
3883	0.07871
3884	0.07995
3885	0.08054
3886	0.07888
3887	0.07731
3888	0.07803
3889	0.07963
3890	0.08113
3891	0.0803
3892	0.07684
3893	0.07573
3894	0.07666
3895	0.07743
3896	0.07794
3897	0.07872
3898	0.07954
3899	0.07851
3900	0.07654
3901	0.07663
3902	0.07666
3903	0.0759
3904	0.07548
3905	0.07427
3906	0.07347
3907	0.0739
3908	0.0749
3909	0.07579
3910	0.07608
3911	0.07582
3912	0.07543
3913	0.0753
3914	0.07557
3915	0.07608
3916	0.07589
3917	0.07413
3918	0.07305
3919	0.0739
3920	0.07424
3921	0.07356
3922	0.07412
3923	0.07526
3924	0.07535
3925	0.07384
3926	0.07273
3927	0.07333
3928	0.07418
3929	0.07424
3930	0.07357
3931	0.07309
3932	0.07281
3933	0.07204
3934	0.0716
3935	0.07184
3936	0.07233
3937	0.07293
3938	0.07326
3939	0.07321
3940	0.07306
3941	0.07326
3942	0.07296
3943	0.07144
3944	0.07055
3945	0.07127
3946	0.07237
3947	0.07272
3948	0.07214
3949	0.07163
3950	0.07105
3951	0.07051
3952	0.07092
3953	0.07122
3954	0.07115
3955	0.07131
3956	0.07162
3957	0.07152
3958	0.07117
3959	0.07096
3960	0.07089
3961	0.07092
3962	0.07095
3963	0.07082
3964	0.07052
3965	0.07013
3966	0.06977
3967	0.06982
3968	0.07021
3969	0.07024
3970	0.07002
3971	0.07021
3972	0.07048
3973	0.07027
3974	0.06995
3975	0.06992
3976	0.06988
3977	0.0698
3978	0.06985
3979	0.07002
3980	0.06995
3981	0.06938
3982	0.0687
3983	0.06848
3984	0.06879
3985	0.06915
3986	0.06932
3987	0.0693
3988	0.06932
3989	0.06964
3990	0.06988
3991	0.06959
3992	0.06912
3993	0.06922
3994	0.06961
3995	0.06948
3996	0.06882
3997	0.06838
3997	0.13071