4000.18193	0.03161
3999.21756	0.03155
3998.2532	0.03167
3997.28884	0.03185
3996.32447	0.03227
3995.36011	0.03283
3994.39574	0.03278
3993.43138	0.03231
3992.46702	0.03222
3991.50265	0.03277
3990.53829	0.03328
3989.57392	0.03304
3988.60956	0.03247
3987.6452	0.03215
3986.68083	0.03208
3985.71647	0.03194
3984.7521	0.03178
3983.78774	0.03201
3982.82338	0.03252
3981.85901	0.03283
3980.89465	0.03274
3979.93028	0.03252
3978.96592	0.03217
3978.00156	0.03216
3977.03719	0.03289
3976.07283	0.03393
3975.10846	0.03442
3974.1441	0.03433
3973.17974	0.03424
3972.21537	0.03396
3971.25101	0.03342
3970.28664	0.03332
3969.32228	0.03345
3968.35792	0.03294
3967.39355	0.03218
3966.42919	0.03204
3965.46482	0.03237
3964.50046	0.03281
3963.5361	0.03374
3962.57173	0.03513
3961.60737	0.03547
3960.643	0.03456
3959.67864	0.03378
3958.71428	0.03367
3957.74991	0.03398
3956.78555	0.03415
3955.82118	0.03382
3954.85682	0.03356
3953.89246	0.03386
3952.92809	0.03415
3951.96373	0.03467
3950.99936	0.03646
3950.035	0.03839
3949.07064	0.03902
3948.10627	0.0388
3947.14191	0.03736
3946.17754	0.0355
3945.21318	0.03538
3944.24882	0.0375
3943.28445	0.0401
3942.32009	0.03967
3941.35572	0.03674
3940.39136	0.03468
3939.427	0.03426
3938.46263	0.03427
3937.49827	0.03377
3936.5339	0.03336
3935.56954	0.03402
3934.60518	0.03584
3933.64081	0.03856
3932.67645	0.04139
3931.71208	0.04226
3930.74772	0.04138
3929.78336	0.03984
3928.81899	0.03762
3927.85463	0.03569
3926.89026	0.03589
3925.9259	0.03916
3924.96154	0.04319
3923.99717	0.04287
3923.03281	0.03909
3922.06844	0.03681
3921.10408	0.03771
3920.13972	0.03931
3919.17535	0.03945
3918.21099	0.04056
3917.24662	0.04293
3916.28226	0.04194
3915.3179	0.03827
3914.35353	0.0356
3913.38917	0.03454
3912.4248	0.03419
3911.46044	0.03408
3910.49608	0.03404
3909.53171	0.0341
3908.56735	0.03465
3907.60298	0.03689
3906.63862	0.04159
3905.67426	0.04748
3904.70989	0.05152
3903.74553	0.05276
3902.78116	0.05282
3901.8168	0.0511
3900.85244	0.04886
3899.88807	0.04891
3898.92371	0.04871
3897.95934	0.04476
3896.99498	0.04012
3896.03062	0.03793
3895.06625	0.03862
3894.10189	0.04074
3893.13752	0.04359
3892.17316	0.04754
3891.2088	0.04826
3890.24443	0.04363
3889.28007	0.03953
3888.3157	0.03841
3887.35134	0.04055
3886.38698	0.04553
3885.42261	0.04881
3884.45825	0.04757
3883.49388	0.04552
3882.52952	0.04507
3881.56516	0.04796
3880.60079	0.0511
3879.63643	0.04728
3878.67206	0.04177
3877.7077	0.03887
3876.74333	0.03868
3875.77897	0.0415
3874.81461	0.04741
3873.85024	0.05041
3872.88588	0.04854
3871.92151	0.04908
3870.95715	0.05478
3869.99279	0.06011
3869.02842	0.05426
3868.06406	0.04721
3867.09969	0.04503
3866.13533	0.04835
3865.17097	0.05476
3864.2066	0.05569
3863.24224	0.05281
3862.27787	0.05019
3861.31351	0.04658
3860.34915	0.04302
3859.38478	0.04193
3858.42042	0.04416
3857.45605	0.04848
3856.49169	0.05151
3855.52733	0.0539
3854.56296	0.06179
3853.5986	0.07546
3852.63423	0.07293
3851.66987	0.0616
3850.70551	0.05379
3849.74114	0.04893
3848.77678	0.04484
3847.81241	0.04204
3846.84805	0.04124
3845.88369	0.04259
3844.91932	0.04616
3843.95496	0.04987
3842.99059	0.05065
3842.02623	0.05196
3841.06187	0.0572
3840.0975	0.06243
3839.13314	0.06385
3838.16877	0.06263
3837.20441	0.05887
3836.24005	0.05604
3835.27568	0.05432
3834.31132	0.05165
3833.34695	0.04966
3832.38259	0.05001
3831.41823	0.05002
3830.45386	0.04759
3829.4895	0.04596
3828.52513	0.04705
3827.56077	0.05002
3826.59641	0.05145
3825.63204	0.05027
3824.66768	0.04947
3823.70331	0.05082
3822.73895	0.05537
3821.77459	0.06485
3820.81022	0.06943
3819.84586	0.06222
3818.88149	0.05599
3817.91713	0.05404
3816.95277	0.05646
3815.9884	0.05856
3815.02404	0.05382
3814.05967	0.04824
3813.09531	0.04483
3812.13095	0.04368
3811.16658	0.04377
3810.20222	0.04447
3809.23785	0.04617
3808.27349	0.0501
3807.30913	0.05578
3806.34476	0.05611
3805.3804	0.0526
3804.41603	0.05175
3803.45167	0.05569
3802.48731	0.06403
3801.52294	0.06968
3800.55858	0.06383
3799.59421	0.05701
3798.62985	0.05435
3797.66549	0.0554
3796.70112	0.05602
3795.73676	0.05246
3794.77239	0.04814
3793.80803	0.04559
3792.84367	0.0447
3791.8793	0.04469
3790.91494	0.04501
3789.95057	0.04536
3788.98621	0.0455
3788.02185	0.04599
3787.05748	0.04764
3786.09312	0.05062
3785.12875	0.0529
3784.16439	0.05171
3783.20003	0.04913
3782.23566	0.0482
3781.2713	0.04957
3780.30693	0.05293
3779.34257	0.05509
3778.37821	0.053
3777.41384	0.04977
3776.44948	0.04769
3775.48511	0.04691
3774.52075	0.04685
3773.55639	0.04747
3772.59202	0.04927
3771.62766	0.05268
3770.66329	0.05743
3769.69893	0.05911
3768.73457	0.05598
3767.7702	0.0539
3766.80584	0.05531
3765.84147	0.05755
3764.87711	0.05615
3763.91275	0.05332
3762.94838	0.05196
3761.98402	0.05257
3761.01965	0.05598
3760.05529	0.06195
3759.09093	0.06396
3758.12656	0.06181
3757.1622	0.06063
3756.19783	0.05993
3755.23347	0.05949
3754.26911	0.06146
3753.30474	0.06762
3752.34038	0.07847
3751.37601	0.08486
3750.41165	0.08428
3749.44729	0.08034
3748.48292	0.0751
3747.51856	0.0717
3746.55419	0.07085
3745.58983	0.07298
3744.62547	0.07567
3743.6611	0.0713
3742.69674	0.06756
3741.73237	0.06618
3740.76801	0.06481
3739.80365	0.06342
3738.83928	0.06461
3737.87492	0.06866
3736.91055	0.07518
3735.94619	0.08372
3734.98182	0.08439
3734.01746	0.07713
3733.0531	0.07228
3732.08873	0.06847
3731.12437	0.06288
3730.16	0.05805
3729.19564	0.05596
3728.23128	0.05735
3727.26691	0.0614
3726.30255	0.06484
3725.33818	0.06485
3724.37382	0.06402
3723.40946	0.06546
3722.44509	0.06664
3721.48073	0.06381
3720.51636	0.06155
3719.552	0.06179
3718.58764	0.06151
3717.62327	0.06002
3716.65891	0.0598
3715.69454	0.06151
3714.73018	0.06418
3713.76582	0.06797
3712.80145	0.07495
3711.83709	0.0815
3710.87272	0.08022
3709.90836	0.07542
3708.944	0.06944
3707.97963	0.06454
3707.01527	0.06195
3706.0509	0.06099
3705.08654	0.06054
3704.12218	0.06107
3703.15781	0.06409
3702.19345	0.06827
3701.22908	0.06792
3700.26472	0.06441
3699.30036	0.06232
3698.33599	0.06223
3697.37163	0.06331
3696.40726	0.06427
3695.4429	0.06472
3694.47854	0.06563
3693.51417	0.06767
3692.54981	0.07178
3691.58544	0.0795
3690.62108	0.08632
3689.65672	0.0882
3688.69235	0.08719
3687.72799	0.08158
3686.76362	0.07565
3685.79926	0.07254
3684.8349	0.07166
3683.87053	0.07124
3682.90617	0.0709
3681.9418	0.07187
3680.97744	0.07505
3680.01308	0.07961
3679.04871	0.08295
3678.08435	0.08559
3677.11998	0.09111
3676.15562	0.10296
3675.19126	0.1073
3674.22689	0.09561
3673.26253	0.08832
3672.29816	0.08779
3671.3338	0.09414
3670.36944	0.10293
3669.40507	0.10208
3668.44071	0.09433
3667.47634	0.08782
3666.51198	0.08465
3665.54762	0.08372
3664.58325	0.08375
3663.61889	0.08407
3662.65452	0.08469
3661.69016	0.08575
3660.7258	0.08722
3659.76143	0.08851
3658.79707	0.0899
3657.8327	0.09308
3656.86834	0.09875
3655.90398	0.10109
3654.93961	0.09829
3653.97525	0.09655
3653.01088	0.09842
3652.04652	0.1052
3651.08216	0.11825
3650.11779	0.12966
3649.15343	0.13069
3648.18906	0.12889
3647.2247	0.12402
3646.26034	0.11489
3645.29597	0.10739
3644.33161	0.10415
3643.36724	0.10471
3642.40288	0.1062
3641.43852	0.10588
3640.47415	0.10497
3639.50979	0.10534
3638.54542	0.10664
3637.58106	0.10721
3636.6167	0.1071
3635.65233	0.10828
3634.68797	0.11154
3633.7236	0.11414
3632.75924	0.11413
3631.79488	0.11527
3630.83051	0.1207
3629.86615	0.13204
3628.90178	0.13943
3627.93742	0.13209
3626.97306	0.125
3626.00869	0.12052
3625.04433	0.1177
3624.07996	0.11694
3623.1156	0.11829
3622.15124	0.12161
3621.18687	0.12717
3620.22251	0.13412
3619.25814	0.13904
3618.29378	0.13857
3617.32942	0.13474
3616.36505	0.13319
3615.40069	0.13581
3614.43632	0.13968
3613.47196	0.14194
3612.5076	0.14111
3611.54323	0.13783
3610.57887	0.13674
3609.6145	0.13936
3608.65014	0.14243
3607.68578	0.14295
3606.72141	0.14031
3605.75705	0.13639
3604.79268	0.13441
3603.82832	0.13519
3602.86396	0.1376
3601.89959	0.14066
3600.93523	0.14342
3599.97086	0.14481
3599.0065	0.1452
3598.04214	0.14521
3597.07777	0.14612
3596.11341	0.14859
3595.14904	0.15027
3594.18468	0.15024
3593.22031	0.14941
3592.25595	0.14771
3591.29159	0.14681
3590.32722	0.14878
3589.36286	0.15482
3588.39849	0.16379
3587.43413	0.16879
3586.46977	0.16532
3585.5054	0.15928
3584.54104	0.15607
3583.57667	0.1553
3582.61231	0.15508
3581.64795	0.15539
3580.68358	0.15684
3579.71922	0.15808
3578.75485	0.15853
3577.79049	0.15933
3576.82613	0.16018
3575.86176	0.1606
3574.8974	0.16127
3573.93303	0.16174
3572.96867	0.16177
3572.00431	0.16245
3571.03994	0.16441
3570.07558	0.16749
3569.11121	0.17276
3568.14685	0.18114
3567.18249	0.18823
3566.21812	0.18722
3565.25376	0.18062
3564.28939	0.17575
3563.32503	0.17395
3562.36067	0.17337
3561.3963	0.17348
3560.43194	0.17376
3559.46757	0.173
3558.50321	0.17214
3557.53885	0.17205
3556.57448	0.17214
3555.61012	0.17263
3554.64575	0.17456
3553.68139	0.17769
3552.71703	0.1805
3551.75266	0.18077
3550.7883	0.17897
3549.82393	0.17804
3548.85957	0.17967
3547.89521	0.18343
3546.93084	0.18739
3545.96648	0.1898
3545.00211	0.19002
3544.03775	0.18825
3543.07339	0.1857
3542.10902	0.18344
3541.14466	0.18218
3540.18029	0.18209
3539.21593	0.18277
3538.25157	0.18441
3537.2872	0.18708
3536.32284	0.1887
3535.35847	0.18767
3534.39411	0.18624
3533.42975	0.18611
3532.46538	0.1871
3531.50102	0.18878
3530.53665	0.19065
3529.57229	0.19279
3528.60793	0.19502
3527.64356	0.19618
3526.6792	0.19588
3525.71483	0.19556
3524.75047	0.1967
3523.78611	0.19834
3522.82174	0.1977
3521.85738	0.19486
3520.89301	0.19283
3519.92865	0.19273
3518.96429	0.19332
3517.99992	0.19346
3517.03556	0.19331
3516.07119	0.19341
3515.10683	0.194
3514.14247	0.19497
3513.1781	0.19596
3512.21374	0.19697
3511.24937	0.19859
3510.28501	0.20098
3509.32065	0.2022
3508.35628	0.2008
3507.39192	0.19922
3506.42755	0.19957
3505.46319	0.20166
3504.49883	0.20473
3503.53446	0.20755
3502.5701	0.20812
3501.60573	0.20637
3500.64137	0.20445
3499.67701	0.20359
3498.71264	0.20377
3497.74828	0.20488
3496.78391	0.2064
3495.81955	0.20718
3494.85519	0.20704
3493.89082	0.20667
3492.92646	0.20679
3491.96209	0.20749
3490.99773	0.20842
3490.03337	0.20954
3489.069	0.21117
3488.10464	0.21273
3487.14027	0.21339
3486.17591	0.21363
3485.21155	0.21397
3484.24718	0.21478
3483.28282	0.2166
3482.31845	0.21888
3481.35409	0.22023
3480.38973	0.22023
3479.42536	0.21953
3478.461	0.21903
3477.49663	0.21938
3476.53227	0.22058
3475.56791	0.22208
3474.60354	0.22298
3473.63918	0.22318
3472.67481	0.2235
3471.71045	0.22437
3470.74609	0.22545
3469.78172	0.22637
3468.81736	0.22732
3467.85299	0.22865
3466.88863	0.22987
3465.92427	0.23036
3464.9599	0.23081
3463.99554	0.23203
3463.03117	0.23371
3462.06681	0.23503
3461.10245	0.23568
3460.13808	0.23595
3459.17372	0.2364
3458.20935	0.23712
3457.24499	0.23797
3456.28062	0.23875
3455.31626	0.23935
3454.3519	0.2399
3453.38753	0.24058
3452.42317	0.24143
3451.4588	0.24229
3450.49444	0.24309
3449.53008	0.24423
3448.56571	0.2466
3447.60135	0.24966
3446.63698	0.25071
3445.67262	0.2497
3444.70826	0.24902
3443.74389	0.24968
3442.77953	0.2509
3441.81516	0.25141
3440.8508	0.25132
3439.88644	0.25149
3438.92207	0.25209
3437.95771	0.25287
3436.99334	0.25356
3436.02898	0.25391
3435.06462	0.25427
3434.10025	0.25495
3433.13589	0.25598
3432.17152	0.25702
3431.20716	0.25762
3430.2428	0.2578
3429.27843	0.2581
3428.31407	0.25867
3427.3497	0.25911
3426.38534	0.25948
3425.42098	0.25993
3424.45661	0.26052
3423.49225	0.26139
3422.52788	0.26242
3421.56352	0.26339
3420.59916	0.2638
3419.63479	0.26335
3418.67043	0.26261
3417.70606	0.26222
3416.7417	0.26207
3415.77734	0.26198
3414.81297	0.26205
3413.84861	0.26229
3412.88424	0.26243
3411.91988	0.26237
3410.95552	0.26233
3409.99115	0.26236
3409.02679	0.26253
3408.06242	0.26282
3407.09806	0.26302
3406.1337	0.26313
3405.16933	0.26334
3404.20497	0.2636
3403.2406	0.26372
3402.27624	0.26362
3401.31188	0.26352
3400.34751	0.26365
3399.38315	0.26413
3398.41878	0.26508
3397.45442	0.26586
3396.49006	0.26567
3395.52569	0.26507
3394.56133	0.26531
3393.59696	0.26641
3392.6326	0.26694
3391.66824	0.26631
3390.70387	0.26559
3389.73951	0.26554
3388.77514	0.26574
3387.81078	0.26587
3386.84642	0.26622
3385.88205	0.26686
3384.91769	0.26733
3383.95332	0.26727
3382.98896	0.26675
3382.0246	0.26613
3381.06023	0.26583
3380.09587	0.26603
3379.1315	0.26627
3378.16714	0.26616
3377.20278	0.26571
3376.23841	0.26539
3375.27405	0.26528
3374.30968	0.26518
3373.34532	0.26494
3372.38096	0.2646
3371.41659	0.26432
3370.45223	0.26419
3369.48786	0.2642
3368.5235	0.26419
3367.55914	0.26405
3366.59477	0.26388
3365.63041	0.26366
3364.66604	0.26331
3363.70168	0.26291
3362.73732	0.2626
3361.77295	0.26235
3360.80859	0.26198
3359.84422	0.2615
3358.87986	0.26096
3357.9155	0.26061
3356.95113	0.26057
3355.98677	0.26052
3355.0224	0.26016
3354.05804	0.25961
3353.09368	0.25916
3352.12931	0.25884
3351.16495	0.25862
3350.20058	0.25853
3349.23622	0.25852
3348.27186	0.25836
3347.30749	0.25816
3346.34313	0.25801
3345.37876	0.25792
3344.4144	0.25776
3343.45004	0.25762
3342.48567	0.25762
3341.52131	0.25775
3340.55694	0.25778
3339.59258	0.25763
3338.62822	0.25758
3337.66385	0.25786
3336.69949	0.25814
3335.73512	0.25809
3334.77076	0.25777
3333.8064	0.25715
3332.84203	0.25659
3331.87767	0.25638
3330.9133	0.25639
3329.94894	0.25637
3328.98458	0.25634
3328.02021	0.25645
3327.05585	0.25663
3326.09148	0.25673
3325.12712	0.25663
3324.16276	0.25631
3323.19839	0.25595
3322.23403	0.25573
3321.26966	0.25561
3320.3053	0.25546
3319.34094	0.25527
3318.37657	0.25511
3317.41221	0.25507
3316.44784	0.25518
3315.48348	0.25533
3314.51911	0.25544
3313.55475	0.25558
3312.59039	0.25578
3311.62602	0.25613
3310.66166	0.25663
3309.69729	0.25723
3308.73293	0.25755
3307.76857	0.25743
3306.8042	0.25718
3305.83984	0.25707
3304.87547	0.25693
3303.91111	0.25684
3302.94675	0.25682
3301.98238	0.25689
3301.01802	0.25705
3300.05365	0.25721
3299.08929	0.25743
3298.12493	0.25779
3297.16056	0.25809
3296.1962	0.25816
3295.23183	0.25819
3294.26747	0.25846
3293.30311	0.25901
3292.33874	0.25958
3291.37438	0.25982
3290.41001	0.25981
3289.44565	0.26
3288.48129	0.26032
3287.51692	0.26054
3286.55256	0.2607
3285.58819	0.26104
3284.62383	0.26174
3283.65947	0.26254
3282.6951	0.26319
3281.73074	0.26378
3280.76637	0.26442
3279.80201	0.26505
3278.83765	0.26587
3277.87328	0.2671
3276.90892	0.26842
3275.94455	0.2694
3274.98019	0.27033
3274.01583	0.27159
3273.05146	0.27266
3272.0871	0.2734
3271.12273	0.27433
3270.15837	0.27557
3269.19401	0.27702
3268.22964	0.27861
3267.26528	0.28023
3266.30091	0.282
3265.33655	0.2839
3264.37219	0.28583
3263.40782	0.28783
3262.44346	0.28992
3261.47909	0.29212
3260.51473	0.29443
3259.55037	0.29679
3258.586	0.29925
3257.62164	0.302
3256.65727	0.3049
3255.69291	0.30781
3254.72855	0.31084
3253.76418	0.31379
3252.79982	0.31645
3251.83545	0.31913
3250.87109	0.32208
3249.90673	0.32528
3248.94236	0.32865
3247.978	0.33198
3247.01363	0.3352
3246.04927	0.33838
3245.08491	0.34114
3244.12054	0.34304
3243.15618	0.34442
3242.19181	0.34574
3241.22745	0.34678
3240.26309	0.34735
3239.29872	0.34734
3238.33436	0.34679
3237.36999	0.34574
3236.40563	0.34408
3235.44127	0.34201
3234.4769	0.33999
3233.51254	0.33813
3232.54817	0.33593
3231.58381	0.33338
3230.61945	0.33092
3229.65508	0.32859
3228.69072	0.32616
3227.72635	0.32357
3226.76199	0.32078
3225.79763	0.318
3224.83326	0.31551
3223.8689	0.31331
3222.90453	0.31117
3221.94017	0.30906
3220.97581	0.30724
3220.01144	0.30567
3219.04708	0.30401
3218.08271	0.30214
3217.11835	0.30047
3216.15399	0.29925
3215.18962	0.2986
3214.22526	0.2981
3213.26089	0.29732
3212.29653	0.29648
3211.33217	0.29607
3210.3678	0.29608
3209.40344	0.29598
3208.43907	0.29546
3207.47471	0.29483
3206.51035	0.29441
3205.54598	0.29414
3204.58162	0.29374
3203.61725	0.29298
3202.65289	0.29193
3201.68853	0.29084
3200.72416	0.28978
3199.7598	0.28867
3198.79543	0.28745
3197.83107	0.28583
3196.86671	0.28363
3195.90234	0.28116
3194.93798	0.27877
3193.97361	0.27637
3193.00925	0.27391
3192.04489	0.2715
3191.08052	0.26924
3190.11616	0.267
3189.15179	0.26465
3188.18743	0.26225
3187.22307	0.26
3186.2587	0.25803
3185.29434	0.25613
3184.32997	0.25395
3183.36561	0.25154
3182.40125	0.24922
3181.43688	0.24712
3180.47252	0.24531
3179.50815	0.24373
3178.54379	0.24215
3177.57943	0.24016
3176.61506	0.23798
3175.6507	0.23612
3174.68633	0.23453
3173.72197	0.23293
3172.7576	0.23128
3171.79324	0.22977
3170.82888	0.22845
3169.86451	0.22708
3168.90015	0.22555
3167.93578	0.22406
3166.97142	0.22282
3166.00706	0.22183
3165.04269	0.22072
3164.07833	0.21933
3163.11396	0.21799
3162.1496	0.2169
3161.18524	0.21597
3160.22087	0.21499
3159.25651	0.21397
3158.29214	0.21307
3157.32778	0.21245
3156.36342	0.21202
3155.39905	0.21152
3154.43469	0.21097
3153.47032	0.21063
3152.50596	0.21064
3151.5416	0.2108
3150.57723	0.21101
3149.61287	0.21131
3148.6485	0.21196
3147.68414	0.2132
3146.71978	0.21503
3145.75541	0.2173
3144.79105	0.22
3143.82668	0.2232
3142.86232	0.22648
3141.89796	0.22902
3140.93359	0.23005
3139.96923	0.22942
3139.00486	0.22753
3138.0405	0.2249
3137.07614	0.22196
3136.11177	0.21906
3135.14741	0.21646
3134.18304	0.2146
3133.21868	0.21336
3132.25432	0.21214
3131.28995	0.21079
3130.32559	0.20965
3129.36122	0.20877
3128.39686	0.2082
3127.4325	0.20787
3126.46813	0.20729
3125.50377	0.20624
3124.5394	0.2052
3123.57504	0.20476
3122.61068	0.20441
3121.64631	0.2034
3120.68195	0.20216
3119.71758	0.20138
3118.75322	0.20085
3117.78886	0.2002
3116.82449	0.19957
3115.86013	0.19893
3114.89576	0.19796
3113.9314	0.19695
3112.96704	0.19623
3112.00267	0.19564
3111.03831	0.19499
3110.07394	0.19442
3109.10958	0.19407
3108.14522	0.19388
3107.18085	0.19357
3106.21649	0.19314
3105.25212	0.19284
3104.28776	0.1929
3103.3234	0.19327
3102.35903	0.19359
3101.39467	0.19366
3100.4303	0.19357
3099.46594	0.1935
3098.50158	0.19353
3097.53721	0.19381
3096.57285	0.1943
3095.60848	0.19479
3094.64412	0.19529
3093.67976	0.19599
3092.71539	0.19672
3091.75103	0.19736
3090.78666	0.19802
3089.8223	0.19887
3088.85794	0.19973
3087.89357	0.20037
3086.92921	0.20069
3085.96484	0.20097
3085.00048	0.20155
3084.03612	0.20237
3083.07175	0.20322
3082.10739	0.204
3081.14302	0.20495
3080.17866	0.20621
3079.2143	0.2076
3078.24993	0.20887
3077.28557	0.21006
3076.3212	0.21157
3075.35684	0.2137
3074.39248	0.21616
3073.42811	0.21866
3072.46375	0.22119
3071.49938	0.22391
3070.53502	0.22693
3069.57066	0.23004
3068.60629	0.23319
3067.64193	0.23634
3066.67756	0.23929
3065.7132	0.24206
3064.74884	0.24472
3063.78447	0.24663
3062.82011	0.24768
3061.85574	0.24854
3060.89138	0.24941
3059.92702	0.24992
3058.96265	0.24968
3057.99829	0.24884
3057.03392	0.24766
3056.06956	0.24598
3055.1052	0.24369
3054.14083	0.24099
3053.17647	0.23799
3052.2121	0.23487
3051.24774	0.23187
3050.28338	0.22902
3049.31901	0.22604
3048.35465	0.22263
3047.39028	0.21907
3046.42592	0.21581
3045.46156	0.2128
3044.49719	0.20981
3043.53283	0.20681
3042.56846	0.20403
3041.6041	0.20152
3040.63974	0.1993
3039.67537	0.19719
3038.71101	0.19497
3037.74664	0.19281
3036.78228	0.19111
3035.81792	0.18974
3034.85355	0.18826
3033.88919	0.18652
3032.92482	0.18507
3031.96046	0.18414
3030.99609	0.18311
3030.03173	0.1815
3029.06737	0.1798
3028.103	0.1786
3027.13864	0.17791
3026.17427	0.17736
3025.20991	0.17651
3024.24555	0.17548
3023.28118	0.17474
3022.31682	0.17427
3021.35245	0.17378
3020.38809	0.17317
3019.42373	0.17262
3018.45936	0.17228
3017.495	0.17221
3016.53063	0.17236
3015.56627	0.17249
3014.60191	0.17257
3013.63754	0.17296
3012.67318	0.17368
3011.70881	0.17444
3010.74445	0.17518
3009.78009	0.17603
3008.81572	0.17708
3007.85136	0.17868
3006.88699	0.18073
3005.92263	0.18295
3004.95827	0.18511
3003.9939	0.18713
3003.02954	0.18906
3002.06517	0.19096
3001.10081	0.19283
3000.13645	0.19484
2999.17208	0.19733
2998.20772	0.20052
2997.24335	0.20419
2996.27899	0.20826
2995.31463	0.21264
2994.35026	0.21738
2993.3859	0.22239
2992.42153	0.22754
2991.45717	0.23263
2990.49281	0.23742
2989.52844	0.24194
2988.56408	0.24612
2987.59971	0.24958
2986.63535	0.25188
2985.67099	0.25335
2984.70662	0.25461
2983.74226	0.25614
2982.77789	0.25801
2981.81353	0.26004
2980.84917	0.2623
2979.8848	0.26502
2978.92044	0.26838
2977.95607	0.27191
2976.99171	0.27496
2976.02735	0.27735
2975.06298	0.27935
2974.09862	0.28102
2973.13425	0.28208
2972.16989	0.28224
2971.20553	0.28164
2970.24116	0.28061
2969.2768	0.27929
2968.31243	0.27753
2967.34807	0.2751
2966.38371	0.2719
2965.41934	0.26812
2964.45498	0.26411
2963.49061	0.26005
2962.52625	0.25608
2961.56189	0.25239
2960.59752	0.24931
2959.63316	0.24692
2958.66879	0.24495
2957.70443	0.24319
2956.74007	0.24183
2955.7757	0.24128
2954.81134	0.2417
2953.84697	0.24306
2952.88261	0.24504
2951.91825	0.24781
2950.95388	0.2517
2949.98952	0.25687
2949.02515	0.26306
2948.06079	0.26989
2947.09643	0.27697
2946.13206	0.28394
2945.1677	0.29031
2944.20333	0.29522
2943.23897	0.29806
2942.27461	0.29873
2941.31024	0.29775
2940.34588	0.29573
2939.38151	0.2931
2938.41715	0.28994
2937.45279	0.28649
2936.48842	0.28318
2935.52406	0.2803
2934.55969	0.27771
2933.59533	0.27509
2932.63097	0.27239
2931.6666	0.26981
2930.70224	0.26754
2929.73787	0.26546
2928.77351	0.26336
2927.80915	0.26117
2926.84478	0.25901
2925.88042	0.25702
2924.91605	0.2552
2923.95169	0.25327
2922.98733	0.25109
2922.02296	0.24889
2921.0586	0.24692
2920.09423	0.24517
2919.12987	0.24338
2918.16551	0.24158
2917.20114	0.2399
2916.23678	0.2385
2915.27241	0.23729
2914.30805	0.23602
2913.34369	0.23459
2912.37932	0.23321
2911.41496	0.23215
2910.45059	0.2313
2909.48623	0.23042
2908.52187	0.22946
2907.5575	0.22859
2906.59314	0.22797
2905.62877	0.22745
2904.66441	0.22669
2903.70005	0.22555
2902.73568	0.22421
2901.77132	0.22287
2900.80695	0.2214
2899.84259	0.21955
2898.87823	0.21737
2897.91386	0.21521
2896.9495	0.21333
2895.98513	0.21163
2895.02077	0.20978
2894.05641	0.20784
2893.09204	0.20602
2892.12768	0.20461
2891.16331	0.20356
2890.19895	0.20251
2889.23458	0.20129
2888.27022	0.2002
2887.30586	0.1995
2886.34149	0.19907
2885.37713	0.19866
2884.41276	0.19816
2883.4484	0.19771
2882.48404	0.19755
2881.51967	0.19763
2880.55531	0.19762
2879.59094	0.1974
2878.62658	0.1971
2877.66222	0.19693
2876.69785	0.19681
2875.73349	0.1964
2874.76912	0.19548
2873.80476	0.19424
2872.8404	0.19285
2871.87603	0.19128
2870.91167	0.18928
2869.9473	0.18682
2868.98294	0.18407
2868.01858	0.18137
2867.05421	0.17873
2866.08985	0.17604
2865.12548	0.17326
2864.16112	0.17052
2863.19676	0.16812
2862.23239	0.16597
2861.26803	0.16389
2860.30366	0.16165
2859.3393	0.15939
2858.37494	0.15735
2857.41057	0.15548
2856.44621	0.15348
2855.48184	0.15119
2854.51748	0.14879
2853.55312	0.14651
2852.58875	0.14433
2851.62439	0.14207
2850.66002	0.13955
2849.69566	0.13698
2848.7313	0.13462
2847.76693	0.13248
2846.80257	0.13038
2845.8382	0.12817
2844.87384	0.12596
2843.90948	0.12405
2842.94511	0.12236
2841.98075	0.12075
2841.01638	0.11914
2840.05202	0.11764
2839.08766	0.11647
2838.12329	0.11554
2837.15893	0.11453
2836.19456	0.11337
2835.2302	0.11226
2834.26584	0.11142
2833.30147	0.11078
2832.33711	0.11021
2831.37274	0.10949
2830.40838	0.10871
2829.44402	0.10814
2828.47965	0.1078
2827.51529	0.1075
2826.55092	0.107
2825.58656	0.10645
2824.6222	0.10607
2823.65783	0.10588
2822.69347	0.10566
2821.7291	0.10527
2820.76474	0.10482
2819.80038	0.10463
2818.83601	0.10474
2817.87165	0.10494
2816.90728	0.10505
2815.94292	0.10524
2814.97856	0.10571
2814.01419	0.10643
2813.04983	0.10691
2812.08546	0.10681
2811.1211	0.10604
2810.15674	0.10497
2809.19237	0.10379
2808.22801	0.10249
2807.26364	0.10105
2806.29928	0.0996
2805.33492	0.09834
2804.37055	0.09731
2803.40619	0.09635
2802.44182	0.09533
2801.47746	0.09425
2800.5131	0.09335
2799.54873	0.09256
2798.58437	0.09178
2797.62	0.09088
2796.65564	0.08991
2795.69128	0.08909
2794.72691	0.08846
2793.76255	0.08782
2792.79818	0.08704
2791.83382	0.08622
2790.86946	0.08549
2789.90509	0.08497
2788.94073	0.08442
2787.97636	0.08366
2787.012	0.08283
2786.04764	0.08218
2785.08327	0.08175
2784.11891	0.08136
2783.15454	0.08084
2782.19018	0.08016
2781.22582	0.07958
2780.26145	0.07921
2779.29709	0.07886
2778.33272	0.07837
2777.36836	0.07778
2776.404	0.07735
2775.43963	0.07717
2774.47527	0.077
2773.5109	0.07658
2772.54654	0.0759
2771.58218	0.07535
2770.61781	0.07504
2769.65345	0.07489
2768.68908	0.07459
2767.72472	0.07414
2766.76036	0.07375
2765.79599	0.07356
2764.83163	0.07347
2763.86726	0.07327
2762.9029	0.07288
2761.93854	0.07248
2760.97417	0.07232
2760.00981	0.07235
2759.04544	0.07231
2758.08108	0.07207
2757.11672	0.07189
2756.15235	0.07186
2755.18799	0.07185
2754.22362	0.0717
2753.25926	0.07137
2752.2949	0.07107
2751.33053	0.07098
2750.36617	0.07106
2749.4018	0.07094
2748.43744	0.07057
2747.47307	0.07018
2746.50871	0.06995
2745.54435	0.06982
2744.57998	0.06964
2743.61562	0.06932
2742.65125	0.06901
2741.68689	0.06892
2740.72253	0.06896
2739.75816	0.06889
2738.7938	0.06867
2737.82943	0.06845
2736.86507	0.06838
2735.90071	0.06839
2734.93634	0.06828
2733.97198	0.06799
2733.00761	0.06774
2732.04325	0.06773
2731.07889	0.06788
2730.11452	0.06796
2729.15016	0.06779
2728.18579	0.06757
2727.22143	0.06756
2726.25707	0.0677
2725.2927	0.06774
2724.32834	0.06754
2723.36397	0.06729
2722.39961	0.06726
2721.43525	0.06742
2720.47088	0.06753
2719.50652	0.0674
2718.54215	0.06713
2717.57779	0.06702
2716.61343	0.06702
2715.64906	0.0669
2714.6847	0.06651
2713.72033	0.06601
2712.75597	0.06558
2711.79161	0.06534
2710.82724	0.06504
2709.86288	0.06449
2708.89851	0.06379
2707.93415	0.06322
2706.96979	0.06285
2706.00542	0.06249
2705.04106	0.06192
2704.07669	0.06114
2703.11233	0.0605
2702.14797	0.06015
2701.1836	0.05992
2700.21924	0.05941
2699.25487	0.05873
2698.29051	0.05818
2697.32615	0.0579
2696.36178	0.05766
2695.39742	0.05719
2694.43305	0.05658
2693.46869	0.05611
2692.50433	0.05595
2691.53996	0.05578
2690.5756	0.05529
2689.61123	0.05463
2688.64687	0.05418
2687.68251	0.05406
2686.71814	0.05397
2685.75378	0.0536
2684.78941	0.05305
2683.82505	0.05262
2682.86069	0.05251
2681.89632	0.05247
2680.93196	0.05223
2679.96759	0.05175
2679.00323	0.05136
2678.03887	0.05125
2677.0745	0.05113
2676.11014	0.0508
2675.14577	0.05033
2674.18141	0.05006
2673.21705	0.05005
2672.25268	0.05003
2671.28832	0.04972
2670.32395	0.04926
2669.35959	0.04889
2668.39523	0.04876
2667.43086	0.04871
2666.4665	0.04839
2665.50213	0.04787
2664.53777	0.04747
2663.57341	0.04733
2662.60904	0.04724
2661.64468	0.0469
2660.68031	0.04639
2659.71595	0.04602
2658.75159	0.04593
2657.78722	0.0459
2656.82286	0.04565
2655.85849	0.04515
2654.89413	0.04473
2653.92977	0.04456
2652.9654	0.0445
2652.00104	0.04418
2651.03667	0.0436
2650.07231	0.0432
2649.10795	0.04311
2648.14358	0.04306
2647.17922	0.0427
2646.21485	0.0421
2645.25049	0.04163
2644.28613	0.04154
2643.32176	0.04155
2642.3574	0.0413
2641.39303	0.04076
2640.42867	0.04035
2639.46431	0.04029
2638.49994	0.0403
2637.53558	0.04003
2636.57121	0.03953
2635.60685	0.03911
2634.64249	0.03901
2633.67812	0.03895
2632.71376	0.03863
2631.74939	0.03804
2630.78503	0.03758
2629.82067	0.03746
2628.8563	0.0374
2627.89194	0.03708
2626.92757	0.0365
2625.96321	0.03605
2624.99885	0.03589
2624.03448	0.0358
2623.07012	0.0355
2622.10575	0.03493
2621.14139	0.03443
2620.17703	0.03426
2619.21266	0.0342
2618.2483	0.03398
2617.28393	0.03355
2616.31957	0.03326
2615.35521	0.03323
2614.39084	0.03328
2613.42648	0.03315
2612.46211	0.03286
2611.49775	0.03265
2610.53339	0.0327
2609.56902	0.03286
2608.60466	0.03283
2607.64029	0.03254
2606.67593	0.03232
2605.71156	0.0324
2604.7472	0.03264
2603.78284	0.03261
2602.81847	0.03232
2601.85411	0.03213
2600.88974	0.03222
2599.92538	0.03241
2598.96102	0.03235
2597.99665	0.03207
2597.03229	0.03195
2596.06792	0.03215
2595.10356	0.03245
2594.1392	0.03242
2593.17483	0.0321
2592.21047	0.03179
2591.2461	0.03178
2590.28174	0.03187
2589.31738	0.03173
2588.35301	0.03137
2587.38865	0.03106
2586.42428	0.031
2585.45992	0.03101
2584.49556	0.03083
2583.53119	0.03036
2582.56683	0.02999
2581.60246	0.02993
2580.6381	0.03
2579.67374	0.02981
2578.70937	0.02931
2577.74501	0.02895
2576.78064	0.02889
2575.81628	0.02891
2574.85192	0.02874
2573.88755	0.02828
2572.92319	0.02791
2571.95882	0.02783
2570.99446	0.02787
2570.0301	0.02766
2569.06573	0.02732
2568.10137	0.02708
2567.137	0.02704
2566.17264	0.02706
2565.20828	0.02687
2564.24391	0.02641
2563.27955	0.02603
2562.31518	0.02597
2561.35082	0.026
2560.38646	0.0258
2559.42209	0.02543
2558.45773	0.02518
2557.49336	0.02519
2556.529	0.02532
2555.56464	0.02527
2554.60027	0.02499
2553.63591	0.02475
2552.67154	0.02471
2551.70718	0.02481
2550.74282	0.02476
2549.77845	0.02452
2548.81409	0.02427
2547.84972	0.02429
2546.88536	0.02429
2545.921	0.02411
2544.95663	0.0238
2543.99227	0.0236
2543.0279	0.02361
2542.06354	0.02368
2541.09918	0.02359
2540.13481	0.02328
2539.17045	0.02306
2538.20608	0.02302
2537.24172	0.02307
2536.27736	0.02295
2535.31299	0.0227
2534.34863	0.02251
2533.38426	0.0225
2532.4199	0.02259
2531.45554	0.02248
2530.49117	0.02214
2529.52681	0.02188
2528.56244	0.02184
2527.59808	0.02196
2526.63372	0.02188
2525.66935	0.02159
2524.70499	0.02137
2523.74062	0.02137
2522.77626	0.02143
2521.8119	0.02129
2520.84753	0.02098
2519.88317	0.02077
2518.9188	0.02079
2517.95444	0.02088
2516.99008	0.0208
2516.02571	0.02058
2515.06135	0.0204
2514.09698	0.02038
2513.13262	0.02043
2512.16826	0.02034
2511.20389	0.02018
2510.23953	0.02005
2509.27516	0.02009
2508.3108	0.02015
2507.34644	0.02007
2506.38207	0.01983
2505.41771	0.01965
2504.45334	0.01961
2503.48898	0.0196
2502.52462	0.01951
2501.56025	0.01933
2500.59589	0.01924
2499.63152	0.01926
2498.66716	0.01933
2497.7028	0.01927
2496.73843	0.01905
2495.77407	0.01883
2494.8097	0.01879
2493.84534	0.01882
2492.88098	0.01872
2491.91661	0.0185
2490.95225	0.01832
2489.98788	0.01828
2489.02352	0.01829
2488.05916	0.0182
2487.09479	0.01797
2486.13043	0.01778
2485.16606	0.0177
2484.2017	0.01766
2483.23734	0.01755
2482.27297	0.01732
2481.30861	0.01715
2480.34424	0.01712
2479.37988	0.01711
2478.41552	0.01698
2477.45115	0.01676
2476.48679	0.01662
2475.52242	0.01667
2474.55806	0.01673
2473.5937	0.01663
2472.62933	0.01639
2471.66497	0.01625
2470.7006	0.01622
2469.73624	0.01623
2468.77187	0.01605
2467.80751	0.01574
2466.84315	0.01556
2465.87878	0.01556
2464.91442	0.0156
2463.95005	0.01547
2462.98569	0.01528
2462.02133	0.01516
2461.05696	0.01521
2460.0926	0.01522
2459.12823	0.01509
2458.16387	0.01487
2457.19951	0.01474
2456.23514	0.01474
2455.27078	0.01479
2454.30641	0.01471
2453.34205	0.01453
2452.37769	0.01447
2451.41332	0.01461
2450.44896	0.01474
2449.48459	0.01467
2448.52023	0.01453
2447.55587	0.01447
2446.5915	0.01456
2445.62714	0.01461
2444.66277	0.01452
2443.69841	0.01436
2442.73405	0.01425
2441.76968	0.01429
2440.80532	0.01429
2439.84095	0.0142
2438.87659	0.01401
2437.91223	0.01392
2436.94786	0.01392
2435.9835	0.01391
2435.01913	0.0138
2434.05477	0.01364
2433.09041	0.01358
2432.12604	0.0136
2431.16168	0.01361
2430.19731	0.0135
2429.23295	0.01334
2428.26859	0.01323
2427.30422	0.01327
2426.33986	0.01329
2425.37549	0.01318
2424.41113	0.01297
2423.44677	0.01285
2422.4824	0.01284
2421.51804	0.01281
2420.55367	0.01265
2419.58931	0.01246
2418.62495	0.0124
2417.66058	0.01237
2416.69622	0.01236
2415.73185	0.01227
2414.76749	0.01214
2413.80313	0.0121
2412.83876	0.01214
2411.8744	0.01219
2410.91003	0.01215
2409.94567	0.01207
2408.98131	0.01209
2408.01694	0.01215
2407.05258	0.0122
2406.08821	0.01217
2405.12385	0.01207
2404.15949	0.01204
2403.19512	0.01211
2402.23076	0.0122
2401.26639	0.01217
2400.30203	0.01205
2399.33767	0.01195
2398.3733	0.01196
2397.40894	0.01206
2396.44457	0.01205
2395.48021	0.01196
2394.51585	0.0119
2393.55148	0.01199
2392.58712	0.01209
2391.62275	0.01207
2390.65839	0.01191
2389.69403	0.01175
2388.72966	0.01163
2387.7653	0.01145
2386.80093	0.01102
2385.83657	0.0103
2384.87221	0.00934
2383.90784	0.00816
2382.94348	0.00816
2381.97911	0.00816
2381.01475	0.00816
2380.05039	0.00816
2379.08602	0.00816
2378.12166	0.00816
2377.15729	0.00816
2376.19293	0.00816
2375.22857	0.00816
2374.2642	0.00816
2373.29984	0.00816
2372.33547	0.00816
2371.37111	0.00816
2370.40675	0.00816
2369.44238	0.00816
2368.47802	0.00816
2367.51365	0.00816
2366.54929	0.00816
2365.58493	0.00816
2364.62056	0.00816
2363.6562	0.00816
2362.69183	0.00816
2361.72747	0.00816
2360.76311	0.00816
2359.79874	0.00816
2358.83438	0.00816
2357.87001	0.00816
2356.90565	0.00816
2355.94129	0.00816
2354.97692	0.00816
2354.01256	0.00816
2353.04819	0.00816
2352.08383	0.00816
2351.11947	0.00816
2350.1551	0.00816
2349.19074	0.00816
2348.22637	0.00816
2347.26201	0.00816
2346.29765	0.00816
2345.33328	0.00816
2344.36892	0.00816
2343.40455	0.00816
2342.44019	0.00816
2341.47583	0.00816
2340.51146	0.00816
2339.5471	0.00816
2338.58273	0.00816
2337.61837	0.00816
2336.65401	0.00816
2335.68964	0.00816
2334.72528	0.00816
2333.76091	0.00816
2332.79655	0.00816
2331.83219	0.00816
2330.86782	0.00816
2329.90346	0.00816
2328.93909	0.00816
2327.97473	0.00816
2327.01036	0.00816
2326.046	0.00816
2325.08164	0.00816
2324.11727	0.00816
2323.15291	0.00816
2322.18854	0.00816
2321.22418	0.00816
2320.25982	0.00816
2319.29545	0.00816
2318.33109	0.00816
2317.36672	0.00816
2316.40236	0.00816
2315.438	0.00816
2314.47363	0.00816
2313.50927	0.00816
2312.5449	0.00816
2311.58054	0.00816
2310.61618	0.00816
2309.65181	0.00816
2308.68745	0.00816
2307.72308	0.00816
2306.75872	0.00816
2305.79436	0.00816
2304.82999	0.00816
2303.86563	0.00816
2302.90126	0.00816
2301.9369	0.00816
2300.97254	0.00816
2300.00817	0.00816
2299.04381	0.00816
2298.07944	0.00816
2297.11508	0.00816
2296.15072	0.00816
2295.18635	0.00816
2294.22199	0.00863
2293.25762	0.00885
2292.29326	0.00919
2291.3289	0.00977
2290.36453	0.01041
2289.40017	0.01083
2288.4358	0.01103
2287.47144	0.01132
2286.50708	0.01188
2285.54271	0.01256
2284.57835	0.01293
2283.61398	0.01295
2282.64962	0.01287
2281.68526	0.01292
2280.72089	0.01303
2279.75653	0.01296
2278.79216	0.01269
2277.8278	0.01244
2276.86344	0.0125
2275.89907	0.01273
2274.93471	0.01284
2273.97034	0.01268
2273.00598	0.01257
2272.04162	0.01272
2271.07725	0.01299
2270.11289	0.01311
2269.14852	0.01292
2268.18416	0.01279
2267.2198	0.01296
2266.25543	0.01337
2265.29107	0.01362
2264.3267	0.01357
2263.36234	0.01349
2262.39798	0.0137
2261.43361	0.0142
2260.46925	0.01453
2259.50488	0.0146
2258.54052	0.01459
2257.57616	0.01481
2256.61179	0.01518
2255.64743	0.0154
2254.68306	0.01535
2253.7187	0.01529
2252.75434	0.01555
2251.78997	0.01598
2250.82561	0.01623
2249.86124	0.01622
2248.89688	0.01616
2247.93252	0.0164
2246.96815	0.01686
2246.00379	0.01718
2245.03942	0.01717
2244.07506	0.01708
2243.1107	0.01725
2242.14633	0.01773
2241.18197	0.01811
2240.2176	0.01812
2239.25324	0.01799
2238.28888	0.01816
2237.32451	0.01863
2236.36015	0.01898
2235.39578	0.019
2234.43142	0.01887
2233.46706	0.01903
2232.50269	0.01949
2231.53833	0.01986
2230.57396	0.01982
2229.6096	0.01968
2228.64524	0.01988
2227.68087	0.02041
2226.71651	0.02079
2225.75214	0.0208
2224.78778	0.02072
2223.82342	0.02091
2222.85905	0.02139
2221.89469	0.02176
2220.93032	0.02175
2219.96596	0.02154
2219.0016	0.02161
2218.03723	0.02201
2217.07287	0.02231
2216.1085	0.02216
2215.14414	0.02178
2214.17978	0.02174
2213.21541	0.02209
2212.25105	0.02239
2211.28668	0.02223
2210.32232	0.02186
2209.35796	0.02183
2208.39359	0.02221
2207.42923	0.02255
2206.46486	0.02246
2205.5005	0.02213
2204.53614	0.02214
2203.57177	0.02259
2202.60741	0.02297
2201.64304	0.02289
2200.67868	0.02259
2199.71432	0.02263
2198.74995	0.02309
2197.78559	0.02351
2196.82122	0.02343
2195.85686	0.0231
2194.8925	0.02315
2193.92813	0.02368
2192.96377	0.02414
2191.9994	0.02407
2191.03504	0.0237
2190.07068	0.02375
2189.10631	0.02427
2188.14195	0.02475
2187.17758	0.02469
2186.21322	0.0243
2185.24885	0.02424
2184.28449	0.02469
2183.32013	0.02515
2182.35576	0.02514
2181.3914	0.02479
2180.42703	0.02473
2179.46267	0.02518
2178.49831	0.02564
2177.53394	0.02553
2176.56958	0.02511
2175.60521	0.02508
2174.64085	0.02553
2173.67649	0.02595
2172.71212	0.02592
2171.74776	0.02559
2170.78339	0.02557
2169.81903	0.02604
2168.85467	0.02652
2167.8903	0.02649
2166.92594	0.0261
2165.96157	0.02607
2164.99721	0.02656
2164.03285	0.02701
2163.06848	0.02693
2162.10412	0.02654
2161.13975	0.02644
2160.17539	0.02687
2159.21103	0.02735
2158.24666	0.02725
2157.2823	0.02678
2156.31793	0.02671
2155.35357	0.02721
2154.38921	0.02772
2153.42484	0.02768
2152.46048	0.02726
2151.49611	0.02718
2150.53175	0.02766
2149.56739	0.02821
2148.60302	0.02822
2147.63866	0.02783
2146.67429	0.0278
2145.70993	0.02837
2144.74557	0.02898
2143.7812	0.02897
2142.81684	0.02851
2141.85247	0.0284
2140.88811	0.0289
2139.92375	0.02953
2138.95938	0.0296
2137.99502	0.02928
2137.03065	0.02932
2136.06629	0.0299
2135.10193	0.03035
2134.13756	0.03016
2133.1732	0.02959
2132.20883	0.02932
2131.24447	0.02966
2130.28011	0.03005
2129.31574	0.02991
2128.35138	0.02937
2127.38701	0.02906
2126.42265	0.02936
2125.45829	0.02975
2124.49392	0.02967
2123.52956	0.02913
2122.56519	0.02885
2121.60083	0.02916
2120.63647	0.02961
2119.6721	0.02955
2118.70774	0.02911
2117.74337	0.02895
2116.77901	0.02942
2115.81465	0.03005
2114.85028	0.03007
2113.88592	0.02945
2112.92155	0.02908
2111.95719	0.02945
2110.99283	0.03
2110.02846	0.03
2109.0641	0.02951
2108.09973	0.02927
2107.13537	0.02967
2106.17101	0.03017
2105.20664	0.03016
2104.24228	0.02969
2103.27791	0.0295
2102.31355	0.02988
2101.34919	0.03043
2100.38482	0.03042
2099.42046	0.02996
2098.45609	0.02971
2097.49173	0.03009
2096.52737	0.03067
2095.563	0.03076
2094.59864	0.03037
2093.63427	0.03008
2092.66991	0.03043
2091.70555	0.03112
2090.74118	0.03154
2089.77682	0.03128
2088.81245	0.03083
2087.84809	0.03102
2086.88373	0.03149
2085.91936	0.03146
2084.955	0.03097
2083.99063	0.03068
2083.02627	0.03101
2082.06191	0.03159
2081.09754	0.0317
2080.13318	0.03136
2079.16881	0.0311
2078.20445	0.03139
2077.24009	0.03187
2076.27572	0.03202
2075.31136	0.03175
2074.34699	0.03154
2073.38263	0.03184
2072.41827	0.03232
2071.4539	0.03244
2070.48954	0.03204
2069.52517	0.0317
2068.56081	0.03194
2067.59645	0.03257
2066.63208	0.03323
2065.66772	0.03363
2064.70335	0.03347
2063.73899	0.03301
2062.77463	0.03287
2061.81026	0.03286
2060.8459	0.03256
2059.88153	0.03218
2058.91717	0.03227
2057.95281	0.03266
2056.98844	0.03276
2056.02408	0.03238
2055.05971	0.0321
2054.09535	0.03231
2053.13099	0.0328
2052.16662	0.03293
2051.20226	0.03254
2050.23789	0.03219
2049.27353	0.03235
2048.30917	0.03277
2047.3448	0.03288
2046.38044	0.03258
2045.41607	0.03232
2044.45171	0.0326
2043.48734	0.0332
2042.52298	0.03378
2041.55862	0.03388
2040.59425	0.03327
2039.62989	0.03276
2038.66552	0.03286
2037.70116	0.03297
2036.7368	0.03263
2035.77243	0.03226
2034.80807	0.03238
2033.8437	0.03279
2032.87934	0.03288
2031.91498	0.03252
2030.95061	0.03219
2029.98625	0.03234
2029.02188	0.03274
2028.05752	0.03284
2027.09316	0.03245
2026.12879	0.03204
2025.16443	0.03209
2024.20006	0.03257
2023.2357	0.03285
2022.27134	0.03248
2021.30697	0.03208
2020.34261	0.03246
2019.37824	0.03362
2018.41388	0.03481
2017.44952	0.03542
2016.48515	0.0349
2015.52079	0.03379
2014.55642	0.03325
2013.59206	0.03326
2012.6277	0.03314
2011.66333	0.03299
2010.69897	0.03324
2009.7346	0.03382
2008.77024	0.03419
2007.80588	0.03401
2006.84151	0.03362
2005.87715	0.03361
2004.91278	0.03398
2003.94842	0.03428
2002.98406	0.03405
2002.01969	0.03374
2001.05533	0.03384
2000.09096	0.03436
1999.1266	0.03476
1998.16224	0.03454
1997.19787	0.03406
1996.23351	0.034
1995.26914	0.03447
1994.30478	0.03544
1993.34042	0.03727
1992.37605	0.03892
1991.41169	0.03825
1990.44732	0.03661
1989.48296	0.03633
1988.5186	0.03651
1987.55423	0.03563
1986.58987	0.03458
1985.6255	0.03436
1984.66114	0.03444
1983.69678	0.0342
1982.73241	0.03382
1981.76805	0.03373
1980.80368	0.03394
1979.83932	0.03405
1978.87496	0.03387
1977.91059	0.03359
1976.94623	0.03364
1975.98186	0.03394
1975.0175	0.03418
1974.05314	0.03405
1973.08877	0.03374
1972.12441	0.03369
1971.16004	0.03402
1970.19568	0.03442
1969.23132	0.03503
1968.26695	0.03656
1967.30259	0.03813
1966.33822	0.03777
1965.37386	0.036
1964.4095	0.03447
1963.44513	0.03369
1962.48077	0.03361
1961.5164	0.03394
1960.55204	0.03396
1959.58768	0.03347
1958.62331	0.03293
1957.65895	0.03279
1956.69458	0.03317
1955.73022	0.03375
1954.76586	0.03367
1953.80149	0.03285
1952.83713	0.03226
1951.87276	0.03231
1950.9084	0.03253
1949.94404	0.03247
1948.97967	0.03221
1948.01531	0.03241
1947.05094	0.0335
1946.08658	0.03455
1945.12222	0.03457
1944.15785	0.03512
1943.19349	0.03759
1942.22912	0.03867
1941.26476	0.03611
1940.3004	0.03345
1939.33603	0.03229
1938.37167	0.03206
1937.4073	0.0323
1936.44294	0.03261
1935.47858	0.03268
1934.51421	0.03264
1933.54985	0.03285
1932.58548	0.03317
1931.62112	0.03334
1930.65676	0.0333
1929.69239	0.03314
1928.72803	0.0331
1927.76366	0.03343
1926.7993	0.0339
1925.83494	0.03418
1924.87057	0.03514
1923.90621	0.03804
1922.94184	0.04091
1921.97748	0.03978
1921.01312	0.03682
1920.04875	0.03581
1919.08439	0.03765
1918.12002	0.03999
1917.15566	0.03902
1916.1913	0.03646
1915.22693	0.03497
1914.26257	0.03456
1913.2982	0.03468
1912.33384	0.03529
1911.36948	0.03666
1910.40511	0.03832
1909.44075	0.03892
1908.47638	0.03852
1907.51202	0.03771
1906.54766	0.03649
1905.58329	0.03561
1904.61893	0.03548
1903.65456	0.03565
1902.6902	0.03588
1901.72583	0.03588
1900.76147	0.03558
1899.79711	0.0354
1898.83274	0.03577
1897.86838	0.03652
1896.90401	0.03763
1895.93965	0.03926
1894.97529	0.04
1894.01092	0.03905
1893.04656	0.03813
1892.08219	0.03824
1891.11783	0.0397
1890.15347	0.0425
1889.1891	0.04344
1888.22474	0.04122
1887.26037	0.03922
1886.29601	0.03868
1885.33165	0.03902
1884.36728	0.0393
1883.40292	0.03902
1882.43855	0.03853
1881.47419	0.03806
1880.50983	0.03789
1879.54546	0.03821
1878.5811	0.03848
1877.61673	0.03838
1876.65237	0.03806
1875.68801	0.03781
1874.72364	0.03802
1873.75928	0.03863
1872.79491	0.03934
1871.83055	0.04064
1870.86619	0.04355
1869.90182	0.0487
1868.93746	0.05353
1867.97309	0.05321
1867.00873	0.04933
1866.04437	0.04529
1865.08	0.04265
1864.11564	0.04173
1863.15127	0.04177
1862.18691	0.04197
1861.22255	0.04206
1860.25818	0.04237
1859.29382	0.04309
1858.32945	0.04338
1857.36509	0.04276
1856.40073	0.04223
1855.43636	0.0425
1854.472	0.04321
1853.50763	0.04376
1852.54327	0.04391
1851.57891	0.04404
1850.61454	0.04485
1849.65018	0.04691
1848.68581	0.04993
1847.72145	0.05188
1846.75709	0.05234
1845.79272	0.05451
1844.82836	0.05948
1843.86399	0.06119
1842.89963	0.05725
1841.93527	0.05356
1840.9709	0.05177
1840.00654	0.05164
1839.04217	0.05262
1838.07781	0.05438
1837.11345	0.05563
1836.14908	0.05542
1835.18472	0.05533
1834.22035	0.05618
1833.25599	0.05715
1832.29163	0.05844
1831.32726	0.06249
1830.3629	0.07028
1829.39853	0.07372
1828.43417	0.06899
1827.46981	0.06568
1826.50544	0.06748
1825.54108	0.07204
1824.57671	0.07313
1823.61235	0.07111
1822.64799	0.07014
1821.68362	0.07041
1820.71926	0.07117
1819.75489	0.0723
1818.79053	0.07385
1817.82617	0.0759
1816.8618	0.07769
1815.89744	0.07906
1814.93307	0.08072
1813.96871	0.08312
1813.00435	0.08699
1812.03998	0.0923
1811.07562	0.09763
1810.11125	0.10007
1809.14689	0.10097
1808.18253	0.10361
1807.21816	0.10741
1806.2538	0.11124
1805.28943	0.11552
1804.32507	0.1206
1803.36071	0.12758
1802.39634	0.13686
1801.43198	0.1455
1800.46761	0.15271
1799.50325	0.15956
1798.53889	0.16484
1797.57452	0.17159
1796.61016	0.18242
1795.64579	0.19338
1794.68143	0.20111
1793.71707	0.21099
1792.7527	0.22898
1791.78834	0.24736
1790.82397	0.25785
1789.85961	0.26671
1788.89525	0.279
1787.93088	0.29668
1786.96652	0.31835
1786.00215	0.34418
1785.03779	0.37732
1784.07343	0.41324
1783.10906	0.44735
1782.1447	0.48591
1781.18033	0.53799
1780.21597	0.60256
1779.25161	0.66581
1778.28724	0.72864
1777.32288	0.79496
1776.35851	0.86604
1775.39415	0.93592
1774.42979	0.98169
1773.46542	1
1772.50106	0.98159
1771.53669	0.90773
1770.57233	0.83069
1769.60797	0.76945
1768.6436	0.70007
1767.67924	0.6185
1766.71487	0.55817
1765.75051	0.51577
1764.78615	0.48027
1763.82178	0.45392
1762.85742	0.4357
1761.89305	0.41504
1760.92869	0.39088
1759.96432	0.37392
1758.99996	0.36322
1758.0356	0.35698
1757.07123	0.35205
1756.10687	0.34607
1755.1425	0.34359
1754.17814	0.34922
1753.21378	0.36373
1752.24941	0.39033
1751.28505	0.43821
1750.32068	0.48145
1749.35632	0.4961
1748.39196	0.48798
1747.42759	0.46604
1746.46323	0.44851
1745.49886	0.44312
1744.5345	0.44453
1743.57014	0.439
1742.60577	0.42184
1741.64141	0.40975
1740.67704	0.41259
1739.71268	0.43339
1738.74832	0.45632
1737.78395	0.47296
1736.81959	0.48705
1735.85522	0.49741
1734.89086	0.50101
1733.9265	0.47181
1732.96213	0.42265
1731.99777	0.39142
1731.0334	0.36573
1730.06904	0.33352
1729.10468	0.29994
1728.14031	0.27557
1727.17595	0.25655
1726.21158	0.2401
1725.24722	0.22769
1724.28286	0.21898
1723.31849	0.21019
1722.35413	0.20007
1721.38976	0.19133
1720.4254	0.18658
1719.46104	0.18762
1718.49667	0.19367
1717.53231	0.19072
1716.56794	0.1799
1715.60358	0.17373
1714.63922	0.16615
1713.67485	0.15481
1712.71049	0.14502
1711.74612	0.13924
1710.78176	0.13696
1709.8174	0.13481
1708.85303	0.13246
1707.88867	0.13301
1706.9243	0.13676
1705.95994	0.13948
1704.99558	0.13882
1704.03121	0.13621
1703.06685	0.13394
1702.10248	0.1346
1701.13812	0.14023
1700.17376	0.15011
1699.20939	0.14808
1698.24503	0.14581
1697.28066	0.14769
1696.3163	0.15159
1695.35194	0.14778
1694.38757	0.14043
1693.42321	0.13618
1692.45884	0.13511
1691.49448	0.13789
1690.53012	0.14426
1689.56575	0.15127
1688.60139	0.15564
1687.63702	0.1577
1686.67266	0.16081
1685.7083	0.16951
1684.74393	0.19285
1683.77957	0.21325
1682.8152	0.20867
1681.85084	0.21117
1680.88648	0.22373
1679.92211	0.23634
1678.95775	0.23533
1677.99338	0.22683
1677.02902	0.22008
1676.06466	0.21683
1675.10029	0.21137
1674.13593	0.20367
1673.17156	0.20139
1672.2072	0.20578
1671.24284	0.21437
1670.27847	0.22367
1669.31411	0.23526
1668.34974	0.24255
1667.38538	0.24653
1666.42102	0.25692
1665.45665	0.27569
1664.49229	0.30014
1663.52792	0.33776
1662.56356	0.40125
1661.5992	0.46576
1660.63483	0.52376
1659.67047	0.59192
1658.7061	0.66674
1657.74174	0.73397
1656.77738	0.77752
1655.81301	0.79366
1654.84865	0.79115
1653.88428	0.75465
1652.91992	0.5721
1651.95556	0.4683
1650.99119	0.4291
1650.02683	0.39735
1649.06246	0.37041
1648.0981	0.34763
1647.13374	0.32357
1646.16937	0.29305
1645.20501	0.26702
1644.24064	0.2528
1643.27628	0.24554
1642.31192	0.24212
1641.34755	0.24106
1640.38319	0.24113
1639.41882	0.243
1638.45446	0.24927
1637.4901	0.26086
1636.52573	0.27497
1635.56137	0.29185
1634.597	0.30218
1633.63264	0.30928
1632.66828	0.32526
1631.70391	0.35287
1630.73955	0.39038
1629.77518	0.43437
1628.81082	0.48739
1627.84646	0.55482
1626.88209	0.60846
1625.91773	0.63122
1624.95336	0.6362
1623.989	0.61653
1623.02464	0.55394
1622.06027	0.48832
1621.09591	0.43461
1620.13154	0.38479
1619.16718	0.34492
1618.20281	0.3188
1617.23845	0.29443
1616.27409	0.25497
1615.30972	0.22589
1614.34536	0.20798
1613.38099	0.19342
1612.41663	0.18139
1611.45227	0.17176
1610.4879	0.16447
1609.52354	0.15788
1608.55917	0.15175
1607.59481	0.14684
1606.63045	0.14145
1605.66608	0.1354
1604.70172	0.13155
1603.73735	0.13041
1602.77299	0.12933
1601.80863	0.12695
1600.84426	0.12393
1599.8799	0.12181
1598.91553	0.12172
1597.95117	0.12361
1596.98681	0.12662
1596.02244	0.13038
1595.05808	0.13566
1594.09371	0.14246
1593.12935	0.15047
1592.16499	0.16004
1591.20062	0.17045
1590.23626	0.17898
1589.27189	0.18262
1588.30753	0.17948
1587.34317	0.17066
1586.3788	0.15919
1585.41444	0.14883
1584.45007	0.14204
1583.48571	0.1387
1582.52135	0.13746
1581.55698	0.13767
1580.59262	0.14012
1579.62825	0.14583
1578.66389	0.15499
1577.69953	0.16724
1576.73516	0.1857
1575.7708	0.2054
1574.80643	0.21316
1573.84207	0.2216
1572.87771	0.23608
1571.91334	0.25395
1570.94898	0.27442
1569.98461	0.30588
1569.02025	0.33856
1568.05589	0.34805
1567.09152	0.35178
1566.12716	0.35761
1565.16279	0.36239
1564.19843	0.36055
1563.23407	0.35482
1562.2697	0.35106
1561.30534	0.35106
1560.34097	0.35713
1559.37661	0.36987
1558.41225	0.3405
1557.44788	0.30431
1556.48352	0.28993
1555.51915	0.28354
1554.55479	0.27566
1553.59043	0.26207
1552.62606	0.25263
1551.6617	0.25122
1550.69733	0.25879
1549.73297	0.26885
1548.76861	0.26872
1547.80424	0.26396
1546.83988	0.26093
1545.87551	0.26025
1544.91115	0.25759
1543.94679	0.25121
1542.98242	0.24556
1542.01806	0.2408
1541.05369	0.23905
1540.08933	0.24022
1539.12497	0.22058
1538.1606	0.19676
1537.19624	0.18529
1536.23187	0.18069
1535.26751	0.18138
1534.30315	0.18553
1533.33878	0.18473
1532.37442	0.17574
1531.41005	0.16731
1530.44569	0.16243
1529.48133	0.16224
1528.51696	0.16523
1527.5526	0.16649
1526.58823	0.16622
1525.62387	0.16674
1524.65951	0.16504
1523.69514	0.16371
1522.73078	0.16785
1521.76641	0.17633
1520.80205	0.1709
1519.83769	0.15683
1518.87332	0.15093
1517.90896	0.15375
1516.94459	0.15896
1515.98023	0.15307
1515.01587	0.14344
1514.0515	0.13719
1513.08714	0.13567
1512.12277	0.13703
1511.15841	0.13911
1510.19405	0.14371
1509.22968	0.15202
1508.26532	0.16294
1507.30095	0.17543
1506.33659	0.16787
1505.37223	0.14424
1504.40786	0.1315
1503.4435	0.12617
1502.47913	0.12556
1501.51477	0.12711
1500.55041	0.12882
1499.58604	0.13179
1498.62168	0.13496
1497.65731	0.13672
1496.69295	0.13935
1495.72859	0.13814
1494.76422	0.13272
1493.79986	0.12973
1492.83549	0.13123
1491.87113	0.13807
1490.90677	0.15151
1489.9424	0.16392
1488.97804	0.16363
1488.01367	0.16297
1487.04931	0.16737
1486.08495	0.17141
1485.12058	0.17505
1484.15622	0.18164
1483.19185	0.19132
1482.22749	0.202
1481.26312	0.20865
1480.29876	0.20665
1479.3344	0.20023
1478.37003	0.1954
1477.40567	0.19443
1476.4413	0.19477
1475.47694	0.19248
1474.51258	0.19236
1473.54821	0.19913
1472.58385	0.20729
1471.61948	0.20328
1470.65512	0.19681
1469.69076	0.19548
1468.72639	0.19912
1467.76203	0.20554
1466.79766	0.21276
1465.8333	0.22118
1464.86894	0.22974
1463.90457	0.23258
1462.94021	0.23395
1461.97584	0.23786
1461.01148	0.24318
1460.04712	0.25017
1459.08275	0.26046
1458.11839	0.27108
1457.15402	0.2697
1456.18966	0.25409
1455.2253	0.23922
1454.26093	0.22864
1453.29657	0.22338
1452.3322	0.22169
1451.36784	0.21921
1450.40348	0.21639
1449.43911	0.21695
1448.47475	0.22108
1447.51038	0.22268
1446.54602	0.21924
1445.58166	0.21599
1444.61729	0.21521
1443.65293	0.21636
1442.68856	0.21814
1441.7242	0.21885
1440.75984	0.21816
1439.79547	0.21754
1438.83111	0.21866
1437.86674	0.22226
1436.90238	0.22493
1435.93802	0.21734
1434.97365	0.20812
1434.00929	0.20298
1433.04492	0.19943
1432.08056	0.19531
1431.1162	0.19223
1430.15183	0.19052
1429.18747	0.18736
1428.2231	0.18298
1427.25874	0.17889
1426.29438	0.17615
1425.33001	0.1772
1424.36565	0.18179
1423.40128	0.1829
1422.43692	0.17928
1421.47256	0.17803
1420.50819	0.18243
1419.54383	0.19369
1418.57946	0.20227
1417.6151	0.20182
1416.65074	0.19847
1415.68637	0.19499
1414.72201	0.19399
1413.75764	0.19593
1412.79328	0.19875
1411.82892	0.20005
1410.86455	0.19888
1409.90019	0.19614
1408.93582	0.19226
1407.97146	0.18776
1407.0071	0.18483
1406.04273	0.18623
1405.07837	0.19136
1404.114	0.19491
1403.14964	0.19738
1402.18528	0.2033
1401.22091	0.21392
1400.25655	0.2292
1399.29218	0.24799
1398.32782	0.2601
1397.36346	0.26355
1396.39909	0.26826
1395.43473	0.27815
1394.47036	0.28709
1393.506	0.28841
1392.54164	0.28734
1391.57727	0.28723
1390.61291	0.28687
1389.64854	0.2856
1388.68418	0.2852
1387.71982	0.28621
1386.75545	0.28555
1385.79109	0.2834
1384.82672	0.28216
1383.86236	0.28043
1382.898	0.27695
1381.93363	0.27393
1380.96927	0.27421
1380.0049	0.27749
1379.04054	0.28032
1378.07618	0.27965
1377.11181	0.27643
1376.14745	0.27423
1375.18308	0.27351
1374.21872	0.26967
1373.25436	0.26226
1372.28999	0.25782
1371.32563	0.25749
1370.36126	0.25718
1369.3969	0.25258
1368.43254	0.24242
1367.46817	0.23146
1366.50381	0.22441
1365.53944	0.22037
1364.57508	0.21799
1363.61072	0.21602
1362.64635	0.21103
1361.68199	0.20337
1360.71762	0.19549
1359.75326	0.18763
1358.7889	0.18073
1357.82453	0.17572
1356.86017	0.17311
1355.8958	0.17218
1354.93144	0.17019
1353.96708	0.166
1353.00271	0.16257
1352.03835	0.16188
1351.07398	0.16249
1350.10962	0.1622
1349.14526	0.16051
1348.18089	0.15927
1347.21653	0.16017
1346.25216	0.162
1345.2878	0.16266
1344.32344	0.16224
1343.35907	0.16293
1342.39471	0.1663
1341.43034	0.17242
1340.46598	0.17915
1339.50161	0.18161
1338.53725	0.1798
1337.57289	0.17876
1336.60852	0.17883
1335.64416	0.17742
1334.67979	0.17534
1333.71543	0.17542
1332.75107	0.17816
1331.7867	0.18158
1330.82234	0.18398
1329.85797	0.18594
1328.89361	0.18977
1327.92925	0.19645
1326.96488	0.20454
1326.00052	0.21245
1325.03615	0.22118
1324.07179	0.2332
1323.10743	0.24883
1322.14306	0.26562
1321.1787	0.28072
1320.21433	0.29286
1319.24997	0.30062
1318.28561	0.30181
1317.32124	0.29522
1316.35688	0.28163
1315.39251	0.26477
1314.42815	0.24912
1313.46379	0.23609
1312.49942	0.22369
1311.53506	0.21052
1310.57069	0.19841
1309.60633	0.18989
1308.64197	0.18512
1307.6776	0.18146
1306.71324	0.17652
1305.74887	0.17121
1304.78451	0.16788
1303.82015	0.16729
1302.85578	0.16732
1301.89142	0.16565
1300.92705	0.16278
1299.96269	0.1613
1298.99833	0.16227
1298.03396	0.16361
1297.0696	0.16289
1296.10523	0.16053
1295.14087	0.15941
1294.17651	0.16076
1293.21214	0.16244
1292.24778	0.16203
1291.28341	0.16024
1290.31905	0.1597
1289.35469	0.16154
1288.39032	0.16384
1287.42596	0.16397
1286.46159	0.16281
1285.49723	0.16408
1284.53287	0.169
1283.5685	0.17524
1282.60414	0.1805
1281.63977	0.18554
1280.67541	0.19258
1279.71105	0.20128
1278.74668	0.20799
1277.78232	0.20957
1276.81795	0.20683
1275.85359	0.20338
1274.88923	0.20115
1273.92486	0.1988
1272.9605	0.19463
1271.99613	0.18945
1271.03177	0.18627
1270.06741	0.18691
1269.10304	0.18956
1268.13868	0.19195
1267.17431	0.19506
1266.20995	0.20131
1265.24559	0.21043
1264.28122	0.21869
1263.31686	0.22278
1262.35249	0.22307
1261.38813	0.22235
1260.42377	0.22125
1259.4594	0.21744
1258.49504	0.20988
1257.53067	0.20087
1256.56631	0.19406
1255.60195	0.19081
1254.63758	0.18869
1253.67322	0.18488
1252.70885	0.17995
1251.74449	0.17685
1250.78013	0.17626
1249.81576	0.17541
1248.8514	0.17172
1247.88703	0.16636
1246.92267	0.16289
1245.95831	0.16255
1244.99394	0.16277
1244.02958	0.1605
1243.06521	0.15678
1242.10085	0.15523
1241.13649	0.15701
1240.17212	0.15925
1239.20776	0.15917
1238.24339	0.15809
1237.27903	0.15964
1236.31467	0.1647
1235.3503	0.17036
1234.38594	0.17393
1233.42157	0.17676
1232.45721	0.18257
1231.49285	0.19252
1230.52848	0.20414
1229.56412	0.21522
1228.59975	0.22742
1227.63539	0.24363
1226.67103	0.26341
1225.70666	0.28175
1224.7423	0.29315
1223.77793	0.296
1222.81357	0.29248
1221.84921	0.28427
1220.88484	0.27107
1219.92048	0.25349
1218.95611	0.23485
1217.99175	0.21963
1217.02739	0.2093
1216.06302	0.2012
1215.09866	0.19234
1214.13429	0.18352
1213.16993	0.17796
1212.20557	0.17642
1211.2412	0.17567
1210.27684	0.17278
1209.31247	0.16902
1208.34811	0.16772
1207.38375	0.16935
1206.41938	0.17059
1205.45502	0.16872
1204.49065	0.1654
1203.52629	0.1646
1202.56193	0.16718
1201.59756	0.17
1200.6332	0.17038
1199.66883	0.16992
1198.70447	0.17239
1197.7401	0.17853
1196.77574	0.18518
1195.81138	0.18996
1194.84701	0.19445
1193.88265	0.20178
1192.91828	0.21186
1191.95392	0.22097
1190.98956	0.22679
1190.02519	0.23181
1189.06083	0.24023
1188.09646	0.25259
1187.1321	0.26491
1186.16774	0.27383
1185.20337	0.28136
1184.23901	0.29196
1183.27464	0.30588
1182.31028	0.31813
1181.34592	0.3241
1180.38155	0.32456
1179.41719	0.32388
1178.45282	0.32398
1177.48846	0.32261
1176.5241	0.31738
1175.55973	0.30992
1174.59537	0.30432
1173.631	0.3023
1172.66664	0.30197
1171.70228	0.30152
1170.73791	0.3028
1169.77355	0.30938
1168.80918	0.32169
1167.84482	0.33572
1166.88046	0.34696
1165.91609	0.35402
1164.95173	0.35749
1163.98736	0.35743
1163.023	0.35314
1162.05864	0.3457
1161.09427	0.33947
1160.12991	0.33921
1159.16554	0.34579
1158.20118	0.35567
1157.23682	0.36508
1156.27245	0.37301
1155.30809	0.38027
1154.34372	0.38682
1153.37936	0.39218
1152.415	0.398
1151.45063	0.40749
1150.48627	0.42017
1149.5219	0.42786
1148.55754	0.42037
1147.59318	0.39636
1146.62881	0.3658
1145.66445	0.34013
1144.70008	0.32365
1143.73572	0.31348
1142.77136	0.30598
1141.80699	0.30148
1140.84263	0.30292
1139.87826	0.31107
1138.9139	0.32332
1137.94954	0.33743
1136.98517	0.3553
1136.02081	0.38101
1135.05644	0.41568
1134.09208	0.45584
1133.12772	0.49674
1132.16335	0.5346
1131.19899	0.56538
1130.23462	0.58334
1129.27026	0.58352
1128.3059	0.56617
1127.34153	0.53708
1126.37717	0.50432
1125.4128	0.47328
1124.44844	0.44489
1123.48408	0.41818
1122.51971	0.39404
1121.55535	0.37534
1120.59098	0.36319
1119.62662	0.35552
1118.66226	0.34999
1117.69789	0.34728
1116.73353	0.35027
1115.76916	0.35959
1114.8048	0.37164
1113.84044	0.38122
1112.87607	0.38572
1111.91171	0.3855
1110.94734	0.38131
1109.98298	0.37245
1109.01862	0.35858
1108.05425	0.34234
1107.08989	0.32825
1106.12552	0.31842
1105.16116	0.31089
1104.1968	0.30281
1103.23243	0.29438
1102.26807	0.28835
1101.3037	0.28595
1100.33934	0.28471
1099.37498	0.28144
1098.41061	0.2764
1097.44625	0.27298
1096.48188	0.27264
1095.51752	0.27307
1094.55316	0.2712
1093.58879	0.26743
1092.62443	0.26504
1091.66006	0.26569
1090.6957	0.26702
1089.73134	0.26609
1088.76697	0.26315
1087.80261	0.2612
1086.83824	0.26191
1085.87388	0.26339
1084.90952	0.26265
1083.94515	0.25973
1082.98079	0.25763
1082.01642	0.25795
1081.05206	0.25869
1080.0877	0.25692
1079.12333	0.25286
1078.15897	0.24964
1077.1946	0.24925
1076.23024	0.25003
1075.26588	0.24937
1074.30151	0.24762
1073.33715	0.24793
1072.37278	0.25193
1071.40842	0.25733
1070.44406	0.26112
1069.47969	0.26328
1068.51533	0.26644
1067.55096	0.27213
1066.5866	0.27828
1065.62224	0.28203
1064.65787	0.28404
1063.69351	0.28766
1062.72914	0.29452
1061.76478	0.30253
1060.80042	0.30884
1059.83605	0.31399
1058.87169	0.32088
1057.90732	0.33114
1056.94296	0.34312
1055.97859	0.35444
1055.01423	0.36555
1054.04987	0.37951
1053.0855	0.39789
1052.12114	0.41895
1051.15677	0.4405
1050.19241	0.46317
1049.22805	0.48964
1048.26368	0.52015
1047.29932	0.54969
1046.33495	0.5706
1045.37059	0.5794
1044.40623	0.58093
1043.44186	0.58445
1042.4775	0.59651
1041.51313	0.61845
1040.54877	0.64841
1039.58441	0.68215
1038.62004	0.71253
1037.65568	0.73137
1036.69131	0.73382
1035.72695	0.7218
1034.76259	0.70224
1033.79822	0.68133
1032.83386	0.6602
1031.86949	0.63531
1030.90513	0.6041
1029.94077	0.56931
1028.9764	0.53644
1028.01204	0.50794
1027.04767	0.48222
1026.08331	0.45786
1025.11895	0.43635
1024.15458	0.41998
1023.19022	0.40802
1022.22585	0.39674
1021.26149	0.38391
1020.29713	0.37167
1019.33276	0.3635
1018.3684	0.35931
1017.40403	0.35595
1016.43967	0.35182
1015.47531	0.34938
1014.51094	0.35137
1013.54658	0.35654
1012.58221	0.3606
1011.61785	0.36083
1010.65349	0.35868
1009.68912	0.35693
1008.72476	0.35548
1007.76039	0.35125
1006.79603	0.34298
1005.83167	0.33366
1004.8673	0.32719
1003.90294	0.32379
1002.93857	0.32018
1001.97421	0.31469
1001.00985	0.31002
1000.04548	0.30995
999.08112	0.31428
998.11675	0.31962
997.15239	0.32472
996.18803	0.33302
995.22366	0.34879
994.2593	0.37215
993.29493	0.39985
992.33057	0.42924
991.36621	0.46008
990.40184	0.49105
989.43748	0.51657
988.47311	0.52903
987.50875	0.52465
986.54439	0.50687
985.58002	0.48298
984.61566	0.45761
983.65129	0.43054
982.68693	0.40104
981.72257	0.37219
980.7582	0.34853
979.79384	0.3304
978.82947	0.31342
977.86511	0.29457
976.90075	0.27618
975.93638	0.26272
974.97202	0.25401
974.00765	0.24534
973.04329	0.23375
972.07893	0.22189
971.11456	0.21448
970.1502	0.21192
969.18583	0.20977
968.22147	0.20553
967.25711	0.20277
966.29274	0.20649
965.32838	0.21519
964.36401	0.22038
963.39965	0.21567
962.43529	0.20402
961.47092	0.19308
960.50656	0.18591
959.54219	0.17962
958.57783	0.17226
957.61347	0.1672
956.6491	0.16875
955.68474	0.17541
954.72037	0.18023
953.75601	0.17908
952.79165	0.17548
951.82728	0.17547
950.86292	0.17957
949.89855	0.18271
948.93419	0.18165
947.96983	0.17988
947.00546	0.18287
946.0411	0.19042
945.07673	0.19653
944.11237	0.19668
943.14801	0.1927
942.18364	0.18908
941.21928	0.18636
940.25491	0.18048
939.29055	0.16953
938.32619	0.15778
937.36182	0.15072
936.39746	0.1482
935.43309	0.14479
934.46873	0.13759
933.50437	0.13045
932.54	0.12864
931.57564	0.13137
930.61127	0.13292
929.64691	0.13041
928.68255	0.12775
927.71818	0.12964
926.75382	0.13415
925.78945	0.13455
924.82509	0.12801
923.86073	0.11948
922.89636	0.11485
921.932	0.11351
920.96763	0.10982
920.00327	0.10157
919.03891	0.0933
918.07454	0.09018
917.11018	0.09089
916.14581	0.0891
915.18145	0.08228
914.21708	0.07518
913.25272	0.07315
912.28836	0.07486
911.32399	0.07386
910.35963	0.06762
909.39526	0.06103
908.4309	0.05946
907.46654	0.06138
906.50217	0.06037
905.53781	0.05422
904.57344	0.04801
903.60908	0.04687
902.64472	0.04887
901.68035	0.04773
900.71599	0.04169
899.75162	0.036
898.78726	0.03574
897.8229	0.03878
896.85853	0.03862
895.89417	0.03348
894.9298	0.02883
893.96544	0.02962
893.00108	0.0333
892.03671	0.03326
891.07235	0.02825
890.10798	0.02378
889.14362	0.02469
888.17926	0.02831
887.21489	0.02838
886.25053	0.02393
885.28616	0.02095
884.3218	0.02439
883.35744	0.03159
882.39307	0.03595
881.42871	0.03575
880.46434	0.03525
879.49998	0.03759
878.53562	0.0397
877.57125	0.03664
876.60689	0.02901
875.64252	0.02345
874.67816	0.02453
873.7138	0.02876
872.74943	0.02963
871.78507	0.02666
870.8207	0.02595
869.85634	0.03139
868.89198	0.03914
867.92761	0.04289
866.96325	0.04299
865.99888	0.04591
865.03452	0.05547
864.07016	0.06843
863.10579	0.07974
862.14143	0.09036
861.17706	0.1057
860.2127	0.12694
859.24834	0.1463
858.28397	0.15364
857.31961	0.147
856.35524	0.13432
855.39088	0.12362
854.42652	0.11492
853.46215	0.10415
852.49779	0.09188
851.53342	0.08381
850.56906	0.08251
849.6047	0.0833
848.64033	0.0805
847.67597	0.07504
846.7116	0.07288
845.74724	0.07678
844.78288	0.0818
843.81851	0.08132
842.85415	0.07573
841.88978	0.07139
840.92542	0.07158
839.96106	0.07243
838.99669	0.06855
838.03233	0.0613
837.06796	0.05689
836.1036	0.05779
835.13924	0.05902
834.17487	0.05497
833.21051	0.04736
832.24614	0.04287
831.28178	0.04388
830.31742	0.0454
829.35305	0.04227
828.38869	0.03645
827.42432	0.03426
826.45996	0.03765
825.4956	0.0413
824.53123	0.04
823.56687	0.03599
822.6025	0.03542
821.63814	0.03969
820.67378	0.04346
819.70941	0.04212
818.74505	0.0386
817.78068	0.03926
816.81632	0.04501
815.85196	0.05003
814.88759	0.04983
813.92323	0.04736
812.95886	0.04874
811.9945	0.05487
811.03014	0.06014
810.06577	0.0605
809.10141	0.05938
808.13704	0.06342
807.17268	0.07336
806.20832	0.08282
805.24395	0.08641
804.27959	0.08584
803.31522	0.08563
802.35086	0.08618
801.3865	0.08368
800.42213	0.07613
799.45777	0.06773
798.4934	0.06416
797.52904	0.06529
796.56468	0.06534
795.60031	0.06083
794.63595	0.05565
793.67158	0.055
792.70722	0.05783
791.74286	0.05794
790.77849	0.05238
789.81413	0.04577
788.84976	0.04416
787.8854	0.04678
786.92104	0.04742
785.95667	0.04311
784.99231	0.03824
784.02794	0.0384
783.06358	0.04262
782.09922	0.04491
781.13485	0.04294
780.17049	0.04175
779.20612	0.04695
778.24176	0.05715
777.2774	0.06661
776.31303	0.07396
775.34867	0.0839
774.3843	0.09896
773.41994	0.11304
772.45557	0.11672
771.49121	0.10815
770.52685	0.09551
769.56248	0.08717
768.59812	0.08291
767.63375	0.07758
766.66939	0.07028
765.70503	0.06596
764.74066	0.06822
763.7763	0.07368
762.81193	0.07627
761.84757	0.07557
760.88321	0.07774
759.91884	0.08719
758.95448	0.10055
757.99011	0.11079
757.02575	0.11646
756.06139	0.12247
755.09702	0.13047
754.13266	0.13402
753.16829	0.12653
752.20393	0.11095
751.23957	0.0974
750.2752	0.0917
749.31084	0.09054
748.34647	0.08781
747.38211	0.08284
746.41775	0.08026
745.45338	0.08213
744.48902	0.08407
743.52465	0.08069
742.56029	0.07297
741.59593	0.06688
740.63156	0.06554
739.6672	0.06528
738.70283	0.06125
737.73847	0.05523
736.77411	0.05406
735.80974	0.06086
734.84538	0.07106
733.88101	0.07803
732.91665	0.08059
731.95229	0.08197
730.98792	0.0833
730.02356	0.08147
729.05919	0.07391
728.09483	0.06378
727.13047	0.05749
726.1661	0.05723
725.20174	0.05785
724.23737	0.05392
723.27301	0.04731
722.30865	0.04397
721.34428	0.04574
720.37992	0.04902
719.41555	0.04989
718.45119	0.04956
717.48683	0.05264
716.52246	0.05991
715.5581	0.06591
714.59373	0.06599
713.62937	0.06301
712.66501	0.06331
711.70064	0.06793
710.73628	0.07138
709.77191	0.06978
708.80755	0.0668
707.84319	0.06815
706.87882	0.07382
705.91446	0.0782
704.95009	0.07756
703.98573	0.07564
703.02137	0.07839
702.057	0.08516
701.09264	0.08928
700.12827	0.08686
699.16391	0.08165
698.19955	0.07923
697.23518	0.07947
696.27082	0.07733
695.30645	0.07049
694.34209	0.06337
693.37773	0.06152
692.41336	0.06387
691.449	0.06425
690.48463	0.05976
689.52027	0.05494
688.55591	0.05493
687.59154	0.05783
686.62718	0.05769
685.66281	0.05303
684.69845	0.04887
683.73409	0.04985
682.76972	0.05381
681.80536	0.0547
680.84099	0.0508
679.87663	0.04725
678.91227	0.04908
677.9479	0.05399
676.98354	0.05568
676.01917	0.05249
675.05481	0.04998
674.09045	0.05319
673.12608	0.05919
672.16172	0.06121
671.19735	0.05736
670.23299	0.05037
669.26863	0.04249
668.30426	0.04683
667.3399	0.07135
666.37553	0.08255
665.41117	0.08828
664.44681	0.09461
663.48244	0.09853
662.51808	0.09489
661.55371	0.08489
660.58935	0.07583
659.62499	0.07195
658.66062	0.06994
657.69626	0.06456
656.73189	0.05647
655.76753	0.0514
654.80317	0.05219
653.8388	0.05429
652.87444	0.05195
651.91007	0.04623
650.94571	0.04298
649.98135	0.04452
649.01698	0.04689
648.05262	0.0454
647.08825	0.0411
646.12389	0.03964
645.15953	0.04327
644.19516	0.04699
643.2308	0.04524
642.26643	0.04025
641.30207	0.03903
640.33771	0.04325
639.37334	0.0471
638.40898	0.04604
637.44461	0.04309
636.48025	0.04482
635.51589	0.05216
634.55152	0.05894
633.58716	0.06073
632.62279	0.06035
631.65843	0.06287
630.69406	0.06841
629.7297	0.07114
628.76534	0.06726
627.80097	0.06123
626.83661	0.06014
625.87224	0.06422
624.90788	0.06657
623.94352	0.06294
622.97915	0.05822
622.01479	0.05895
621.05042	0.06451
620.08606	0.06779
619.1217	0.06461
618.15733	0.06006
617.19297	0.06183
616.2286	0.06878
615.26424	0.07274
614.29988	0.07099
613.33551	0.06888
612.37115	0.0715
611.40678	0.07721
610.44242	0.07971
609.47806	0.07675
608.51369	0.07342
607.54933	0.07505
606.58496	0.07996
605.6206	0.08242
604.65624	0.08061
603.69187	0.0797
602.72751	0.08462
601.76314	0.09232
600.79878	0.09498
599.83442	0.0895
598.87005	0.08286
597.90569	0.0822
596.94132	0.08509
595.97696	0.08426
595.0126	0.07826
594.04823	0.0737
593.08387	0.07628
592.1195	0.08246
591.15514	0.08267
590.19078	0.07655
589.22641	0.07331
588.26205	0.07697
587.29768	0.0828
586.33332	0.0844
585.36896	0.08209
584.40459	0.08187
583.44023	0.08751
582.47586	0.09535
581.5115	0.09873
580.54714	0.09585
579.58277	0.09307
578.61841	0.09545
577.65404	0.09954
576.68968	0.09889
575.72532	0.09281
574.76095	0.08919
573.79659	0.09229
572.83222	0.09642
571.86786	0.09489
570.9035	0.08942
569.93913	0.0874
568.97477	0.09108
568.0104	0.09408
567.04604	0.08995
566.08168	0.08158
565.11731	0.07758
564.15295	0.08
563.18858	0.08212
562.22422	0.07784
561.25986	0.07083
560.29549	0.06937
559.33113	0.07426
558.36676	0.07782
557.4024	0.07463
556.43804	0.06945
555.47367	0.0707
554.50931	0.07832
553.54494	0.08401
552.58058	0.0829
551.61622	0.08048
550.65185	0.0851
549.68749	0.09601
548.72312	0.10355
547.75876	0.1033
546.7944	0.1011
545.83003	0.10372
544.86567	0.1096
543.9013	0.11123
542.93694	0.10644
541.97258	0.10187
541.00821	0.10397
540.04385	0.10952
539.07948	0.10934
538.11512	0.10061
537.15076	0.09036
536.18639	0.08636
535.22203	0.08717
534.25766	0.08444
533.2933	0.07518
532.32894	0.0672
531.36457	0.06801
530.40021	0.07333
529.43584	0.07332
528.47148	0.06714
527.50712	0.06424
526.54275	0.07147
525.57839	0.08235
524.61402	0.08439
523.64966	0.07978
522.6853	0.07813
521.72093	0.08334
520.75657	0.08978
519.7922	0.08789
518.82784	0.07781
517.86348	0.07117
516.89911	0.07287
515.93475	0.07414
514.97038	0.06757
514.00602	0.0571
513.04166	0.05276
512.07729	0.05851
511.11293	0.06519
510.14856	0.06177
509.1842	0.05247
508.21984	0.05093
507.25547	0.06018
506.29111	0.06728
505.32674	0.06309
504.36238	0.05618
503.39802	0.05791
502.43365	0.06753
501.46929	0.06919
500.50492	0.05835
499.54056	0.04834
498.5762	0.04886
497.61183	0.05659
496.64747	0.05878
495.6831	0.05066
494.71874	0.04288
493.75437	0.04633
492.79001	0.0569
491.82565	0.0599
490.86128	0.05104
489.89692	0.04426
488.93255	0.04893
487.96819	0.05816
487.00383	0.05946
486.03946	0.0516
485.0751	0.04685
484.11073	0.05312
483.14637	0.05997
482.18201	0.05615
481.21764	0.04721
480.25328	0.04509
479.28891	0.05373
478.32455	0.06314
477.36019	0.06201
476.39582	0.05252
475.43146	0.04793
474.46709	0.05529
473.50273	0.06691
472.53837	0.06556
471.574	0.05185
470.60964	0.04851
469.64527	0.05689
468.68091	0.06348
467.71655	0.05653
466.75218	0.04456
465.78782	0.04368
464.82345	0.05293
463.85909	0.05795
462.89473	0.05188
461.93036	0.04422
460.966	0.04726
460.00163	0.05771
459.03727	0.06412
458.07291	0.05982
457.10854	0.04927
456.14418	0.04872
455.17981	0.05439
454.21545	0.0544
453.25109	0.04516
452.28672	0.03728
451.32236	0.03983
450.35799	0.04586
449.39363	0.04411
448.42927	0.03591
447.4649	0.03505
446.50054	0.0452
445.53617	0.05128
444.57181	0.0448
443.60745	0.03358
442.64308	0.03193
441.67872	0.04026
440.71435	0.0417
439.74999	0.03079
438.78563	0.01972
437.82126	0.02211
436.8569	0.03636
435.89253	0.04315
434.92817	0.03223
433.96381	0.01997
432.99944	0.02251
432.03508	0.03413
431.07071	0.036
430.10635	0.02464
429.14199	0.01781
428.17762	0.02549
427.21326	0.03835
426.24889	0.04182
425.28453	0.03292
424.32017	0.02703
423.3558	0.03739
422.39144	0.05177
421.42707	0.05375
420.46271	0.0521
419.49835	0.06321
418.53398	0.08174
417.56962	0.0721
416.60525	0.05221
415.64089	0.03844
414.67653	0.0392
413.71216	0.05003
412.7478	0.05244
411.78343	0.04093
410.81907	0.03261
409.85471	0.02496
408.89034	0.01664
407.92598	0.00832
406.96161	0
405.99725	0.04093
405.03289	0.03261
404.06852	0.02496
403.10416	0.01664
402.13979	0.04093
401.17543	0.03261
400.21107	0.02496