3996.41167	0.02173
3994.4829	0.02095
3992.55413	0.02029
3990.62536	0.01995
3988.69659	0.0199
3986.76782	0.02004
3984.83905	0.0202
3982.91028	0.02009
3980.98151	0.01965
3979.05274	0.01915
3977.12397	0.01878
3975.1952	0.01868
3973.26643	0.01891
3971.33766	0.01916
3969.40889	0.01921
3967.48012	0.01909
3965.55135	0.01899
3963.62258	0.01901
3961.69381	0.01912
3959.76504	0.01938
3957.83627	0.01978
3955.9075	0.01982
3953.97873	0.01905
3952.04996	0.01792
3950.12119	0.0174
3948.19242	0.01788
3946.26365	0.01853
3944.33488	0.01909
3942.40611	0.0196
3940.47734	0.01951
3938.54857	0.01901
3936.6198	0.01864
3934.69103	0.01846
3932.76226	0.01843
3930.83349	0.01836
3928.90472	0.01796
3926.97595	0.01734
3925.04718	0.01702
3923.11841	0.01713
3921.18964	0.01739
3919.26087	0.01769
3917.3321	0.01791
3915.40333	0.01766
3913.47456	0.01716
3911.54579	0.01703
3909.61702	0.01697
3907.68825	0.01637
3905.75948	0.01571
3903.83071	0.01616
3901.90194	0.0174
3899.97317	0.01812
3898.0444	0.01807
3896.11563	0.01747
3894.18686	0.0169
3892.25809	0.01731
3890.32932	0.01814
3888.40055	0.01792
3886.47178	0.01743
3884.54301	0.01743
3882.61424	0.01733
3880.68547	0.01724
3878.7567	0.01729
3876.82792	0.01692
3874.89915	0.01634
3872.97038	0.01622
3871.04161	0.01667
3869.11284	0.01721
3867.18407	0.01719
3865.2553	0.0171
3863.32653	0.01773
3861.39776	0.01866
3859.46899	0.01874
3857.54022	0.01756
3855.61145	0.0161
3853.68268	0.01589
3851.75391	0.01719
3849.82514	0.01817
3847.89637	0.01813
3845.9676	0.01744
3844.03883	0.01663
3842.11006	0.01579
3840.18129	0.01487
3838.25252	0.01418
3836.32375	0.01411
3834.39498	0.01451
3832.46621	0.0153
3830.53744	0.01599
3828.60867	0.01589
3826.6799	0.01517
3824.75113	0.01425
3822.82236	0.01381
3820.89359	0.01446
3818.96482	0.01531
3817.03605	0.0154
3815.10728	0.01507
3813.17851	0.01464
3811.24974	0.01414
3809.32097	0.01399
3807.3922	0.01473
3805.46343	0.01546
3803.53466	0.0152
3801.60589	0.0143
3799.67712	0.01336
3797.74835	0.01255
3795.81958	0.01226
3793.89081	0.01231
3791.96204	0.01193
3790.03327	0.01121
3788.1045	0.01086
3786.17573	0.01108
3784.24696	0.01131
3782.31819	0.01081
3780.38942	0.00998
3778.46065	0.00988
3776.53188	0.01054
3774.60311	0.0111
3772.67434	0.01115
3770.74557	0.01097
3768.8168	0.01102
3766.88803	0.01138
3764.95926	0.01181
3763.03049	0.01157
3761.10172	0.01108
3759.17295	0.01173
3757.24418	0.01306
3755.31541	0.01312
3753.38664	0.01225
3751.45787	0.01319
3749.5291	0.01587
3747.60033	0.01678
3745.67156	0.0166
3743.74279	0.01642
3741.81402	0.01479
3739.88525	0.01418
3737.95648	0.013
3736.02771	0.01005
3734.09894	0.01027
3732.17017	0.0096
3730.2414	0.00649
3728.31263	0.00388
3726.38386	0.00162
3724.45509	0.00349
3722.52632	0.00431
3720.59755	0.00754
3718.66878	0.00965
3716.74001	0.01361
3714.81124	0.01695
3712.88247	0.01117
3710.9537	0.00893
3709.02493	0.00564
3707.09616	0.00515
3705.16739	0.00442
3703.23861	0.00525
3701.30984	0.00878
3699.38107	0.01181
3697.4523	0.0134
3695.52353	0.01488
3693.59476	0.01347
3691.66599	0.0171
3689.73722	0.02104
3687.80845	0.02437
3685.87968	0.02324
3683.95091	0.0227
3682.02214	0.02155
3680.09337	0.02065
3678.1646	0.01956
3676.23583	0.0215
3674.30706	0.02433
3672.37829	0.02532
3670.44952	0.02617
3668.52075	0.02867
3666.59198	0.03085
3664.66321	0.03183
3662.73444	0.03185
3660.80567	0.03228
3658.8769	0.03353
3656.94813	0.03584
3655.01936	0.03794
3653.09059	0.03819
3651.16182	0.03824
3649.23305	0.04147
3647.30428	0.04621
3645.37551	0.04825
3643.44674	0.04894
3641.51797	0.0503
3639.5892	0.05195
3637.66043	0.05358
3635.73166	0.05557
3633.80289	0.05559
3631.87412	0.05641
3629.94535	0.0602
3628.01658	0.06531
3626.08781	0.06737
3624.15904	0.07116
3622.23027	0.0733
3620.3015	0.0744
3618.37273	0.08106
3616.44396	0.08694
3614.51519	0.09382
3612.58642	0.10093
3610.65765	0.10132
3608.72888	0.10272
3606.80011	0.10702
3604.87134	0.10882
3602.94257	0.11112
3601.0138	0.1169
3599.08503	0.12452
3597.15626	0.12788
3595.22749	0.13297
3593.29872	0.13533
3591.36995	0.13986
3589.44118	0.1426
3587.51241	0.1512
3585.58364	0.15954
3583.65487	0.16285
3581.7261	0.16392
3579.79733	0.16669
3577.86856	0.17125
3575.93979	0.17653
3574.01102	0.1813
3572.08225	0.18381
3570.15348	0.18489
3568.22471	0.18997
3566.29594	0.20014
3564.36717	0.20842
3562.4384	0.21239
3560.50963	0.21518
3558.58086	0.218
3556.65209	0.2205
3554.72332	0.22405
3552.79455	0.2295
3550.86578	0.23446
3548.93701	0.23766
3547.00824	0.24225
3545.07947	0.24922
3543.1507	0.25464
3541.22193	0.25678
3539.29316	0.25834
3537.36439	0.26194
3535.43562	0.26656
3533.50685	0.26981
3531.57807	0.27212
3529.6493	0.27582
3527.72053	0.28148
3525.79176	0.28771
3523.86299	0.29369
3521.93422	0.2989
3520.00545	0.30303
3518.07668	0.30694
3516.14791	0.31108
3514.21914	0.31499
3512.29037	0.31909
3510.3616	0.32443
3508.43283	0.33011
3506.50406	0.33497
3504.57529	0.34112
3502.64652	0.34924
3500.71775	0.35555
3498.78898	0.35923
3496.86021	0.36319
3494.93144	0.36816
3493.00267	0.37241
3491.0739	0.37587
3489.14513	0.3802
3487.21636	0.38531
3485.28759	0.38961
3483.35882	0.39387
3481.43005	0.39941
3479.50128	0.40437
3477.57251	0.40797
3475.64374	0.41242
3473.71497	0.41809
3471.7862	0.42306
3469.85743	0.42723
3467.92866	0.43183
3465.99989	0.4367
3464.07112	0.44187
3462.14235	0.44821
3460.21358	0.45481
3458.28481	0.45997
3456.35604	0.46459
3454.42727	0.46979
3452.4985	0.47504
3450.56973	0.47995
3448.64096	0.48626
3446.71219	0.49457
3444.78342	0.50191
3442.85465	0.50764
3440.92588	0.51364
3438.99711	0.51921
3437.06834	0.52397
3435.13957	0.52877
3433.2108	0.53419
3431.28203	0.54007
3429.35326	0.54558
3427.42449	0.55043
3425.49572	0.55463
3423.56695	0.5587
3421.63818	0.56422
3419.70941	0.57081
3417.78064	0.57589
3415.85187	0.57937
3413.9231	0.58279
3411.99433	0.58653
3410.06556	0.5907
3408.13679	0.59495
3406.20802	0.59889
3404.27925	0.60305
3402.35048	0.60733
3400.42171	0.61118
3398.49294	0.61555
3396.56417	0.62003
3394.6354	0.62442
3392.70663	0.62936
3390.77786	0.63384
3388.84909	0.63695
3386.92032	0.64029
3384.99155	0.64468
3383.06278	0.6487
3381.13401	0.65158
3379.20524	0.65429
3377.27647	0.65728
3375.3477	0.6604
3373.41893	0.66353
3371.49016	0.6665
3369.56139	0.66935
3367.63262	0.67243
3365.70385	0.67557
3363.77508	0.67802
3361.84631	0.67978
3359.91753	0.68115
3357.98876	0.68251
3356.05999	0.68473
3354.13122	0.68758
3352.20245	0.69003
3350.27368	0.69177
3348.34491	0.69273
3346.41614	0.69328
3344.48737	0.69375
3342.5586	0.69428
3340.62983	0.69494
3338.70106	0.69567
3336.77229	0.69652
3334.84352	0.69706
3332.91475	0.697
3330.98598	0.69677
3329.05721	0.69687
3327.12844	0.69741
3325.19967	0.69788
3323.2709	0.69751
3321.34213	0.69645
3319.41336	0.69561
3317.48459	0.69531
3315.55582	0.69463
3313.62705	0.6937
3311.69828	0.69369
3309.76951	0.69486
3307.84074	0.69591
3305.91197	0.69585
3303.9832	0.69467
3302.05443	0.69291
3300.12566	0.69125
3298.19689	0.6903
3296.26812	0.68984
3294.33935	0.6896
3292.41058	0.6892
3290.48181	0.68793
3288.55304	0.68575
3286.62427	0.6832
3284.6955	0.68069
3282.76673	0.67824
3280.83796	0.67573
3278.90919	0.67354
3276.98042	0.67219
3275.05165	0.67119
3273.12288	0.66946
3271.19411	0.66646
3269.26534	0.66233
3267.33657	0.65838
3265.4078	0.65552
3263.47903	0.65274
3261.55026	0.64934
3259.62149	0.64624
3257.69272	0.64363
3255.76395	0.64062
3253.83518	0.6373
3251.90641	0.63433
3249.97764	0.63157
3248.04887	0.62868
3246.1201	0.62588
3244.19133	0.62298
3242.26256	0.61931
3240.33379	0.61519
3238.40502	0.6113
3236.47625	0.60749
3234.54748	0.60351
3232.61871	0.59982
3230.68994	0.59679
3228.76117	0.59389
3226.8324	0.59043
3224.90363	0.58631
3222.97486	0.58207
3221.04609	0.57829
3219.11732	0.57456
3217.18855	0.57039
3215.25978	0.56632
3213.33101	0.56231
3211.40224	0.55788
3209.47347	0.55333
3207.5447	0.54844
3205.61593	0.54314
3203.68716	0.53816
3201.75839	0.53335
3199.82962	0.52832
3197.90085	0.52342
3195.97208	0.51876
3194.04331	0.51395
3192.11454	0.50894
3190.18577	0.50362
3188.257	0.4983
3186.32822	0.4934
3184.39945	0.48874
3182.47068	0.48338
3180.54191	0.47752
3178.61314	0.47237
3176.68437	0.4681
3174.7556	0.46366
3172.82683	0.45877
3170.89806	0.45368
3168.96929	0.44855
3167.04052	0.44354
3165.11175	0.43882
3163.18298	0.43427
3161.25421	0.42955
3159.32544	0.42457
3157.39667	0.41968
3155.4679	0.41518
3153.53913	0.41092
3151.61036	0.4064
3149.68159	0.40125
3147.75282	0.39561
3145.82405	0.39034
3143.89528	0.38603
3141.96651	0.38253
3140.03774	0.37869
3138.10897	0.37366
3136.1802	0.3681
3134.25143	0.36338
3132.32266	0.35955
3130.39389	0.35548
3128.46512	0.35093
3126.53635	0.34643
3124.60758	0.34248
3122.67881	0.33928
3120.75004	0.3363
3118.82127	0.33318
3116.8925	0.32995
3114.96373	0.32636
3113.03496	0.32227
3111.10619	0.31835
3109.17742	0.3148
3107.24865	0.31105
3105.31988	0.30724
3103.39111	0.30428
3101.46234	0.30214
3099.53357	0.29958
3097.6048	0.29635
3095.67603	0.29334
3093.74726	0.29071
3091.81849	0.28804
3089.88972	0.28546
3087.96095	0.28323
3086.03218	0.2811
3084.10341	0.27884
3082.17464	0.27626
3080.24587	0.27377
3078.3171	0.27156
3076.38833	0.26933
3074.45956	0.26683
3072.53079	0.26431
3070.60202	0.26204
3068.67325	0.26001
3066.74448	0.25812
3064.81571	0.25637
3062.88694	0.25439
3060.95817	0.25198
3059.0294	0.24986
3057.10063	0.24848
3055.17186	0.24725
3053.24309	0.24547
3051.31432	0.2434
3049.38555	0.24191
3047.45678	0.24099
3045.52801	0.23993
3043.59924	0.23823
3041.67047	0.23613
3039.7417	0.23391
3037.81293	0.23186
3035.88416	0.2306
3033.95539	0.22994
3032.02662	0.2291
3030.09785	0.22761
3028.16908	0.22586
3026.24031	0.22459
3024.31154	0.22401
3022.38277	0.22395
3020.454	0.22406
3018.52523	0.22411
3016.59646	0.22419
3014.66768	0.22448
3012.73891	0.22498
3010.81014	0.22569
3008.88137	0.22625
3006.9526	0.22676
3005.02383	0.22801
3003.09506	0.23026
3001.16629	0.233
2999.23752	0.23608
2997.30875	0.23999
2995.37998	0.24478
2993.45121	0.25051
2991.52244	0.25757
2989.59367	0.2668
2987.6649	0.27807
2985.73613	0.29078
2983.80736	0.30464
2981.87859	0.31924
2979.94982	0.33364
2978.02105	0.34597
2976.09228	0.35454
2974.16351	0.35853
2972.23474	0.35742
2970.30597	0.35138
2968.3772	0.34185
2966.44843	0.33088
2964.51966	0.32049
2962.59089	0.31214
2960.66212	0.30596
2958.73335	0.30176
2956.80458	0.29943
2954.87581	0.29931
2952.94704	0.3017
2951.01827	0.30638
2949.0895	0.31304
2947.16073	0.32077
2945.23196	0.32825
2943.30319	0.33471
2941.37442	0.34045
2939.44565	0.34599
2937.51688	0.35143
2935.58811	0.35654
2933.65934	0.36062
2931.73057	0.36273
2929.8018	0.36227
2927.87303	0.35943
2925.94426	0.35519
2924.01549	0.35047
2922.08672	0.34609
2920.15795	0.343
2918.22918	0.34125
2916.30041	0.33999
2914.37164	0.33852
2912.44287	0.3368
2910.5141	0.33463
2908.58533	0.33213
2906.65656	0.32993
2904.72779	0.32834
2902.79902	0.32722
2900.87025	0.32578
2898.94148	0.3234
2897.01271	0.3202
2895.08394	0.31636
2893.15517	0.31224
2891.2264	0.30818
2889.29763	0.30445
2887.36886	0.30145
2885.44009	0.2991
2883.51132	0.29654
2881.58255	0.29328
2879.65378	0.28927
2877.72501	0.28486
2875.79624	0.28026
2873.86747	0.2748
2871.9387	0.26782
2870.00993	0.26003
2868.08116	0.25242
2866.15239	0.24484
2864.22362	0.23732
2862.29485	0.23057
2860.36608	0.22467
2858.43731	0.21924
2856.50854	0.21411
2854.57977	0.20954
2852.651	0.20576
2850.72223	0.20292
2848.79346	0.20063
2846.86469	0.19828
2844.93592	0.19581
2843.00714	0.19366
2841.07837	0.192
2839.1496	0.19039
2837.22083	0.18847
2835.29206	0.1862
2833.36329	0.1836
2831.43452	0.18096
2829.50575	0.17847
2827.57698	0.17597
2825.64821	0.1737
2823.71944	0.17156
2821.79067	0.16912
2819.8619	0.1664
2817.93313	0.1637
2816.00436	0.16093
2814.07559	0.15832
2812.14682	0.15625
2810.21805	0.15425
2808.28928	0.15164
2806.36051	0.14881
2804.43174	0.1464
2802.50297	0.14468
2800.5742	0.14355
2798.64543	0.14241
2796.71666	0.14055
2794.78789	0.13857
2792.85912	0.13741
2790.93035	0.13672
2789.00158	0.13537
2787.07281	0.13339
2785.14404	0.13181
2783.21527	0.13104
2781.2865	0.13034
2779.35773	0.12942
2777.42896	0.12896
2775.50019	0.129
2773.57142	0.12854
2771.64265	0.12733
2769.71388	0.12633
2767.78511	0.12587
2765.85634	0.12563
2763.92757	0.12534
2761.9988	0.12519
2760.07003	0.12532
2758.14126	0.12537
2756.21249	0.12505
2754.28372	0.12456
2752.35495	0.12424
2750.42618	0.12414
2748.49741	0.12385
2746.56864	0.12302
2744.63987	0.12167
2742.7111	0.12046
2740.78233	0.11983
2738.85356	0.11939
2736.92479	0.11847
2734.99602	0.11721
2733.06725	0.11623
2731.13848	0.11565
2729.20971	0.11539
2727.28094	0.1152
2725.35217	0.11452
2723.4234	0.11322
2721.49463	0.11187
2719.56586	0.11084
2717.63709	0.10988
2715.70832	0.10885
2713.77955	0.10787
2711.85078	0.10715
2709.92201	0.10635
2707.99324	0.10531
2706.06447	0.10427
2704.1357	0.10332
2702.20693	0.10246
2700.27816	0.1018
2698.34939	0.10122
2696.42062	0.10058
2694.49185	0.09989
2692.56308	0.09923
2690.63431	0.09855
2688.70554	0.09796
2686.77677	0.09731
2684.848	0.09673
2682.91923	0.09633
2680.99046	0.09604
2679.06169	0.09549
2677.13292	0.09451
2675.20415	0.09339
2673.27538	0.09236
2671.34661	0.09112
2669.41783	0.08997
2667.48906	0.08934
2665.56029	0.08898
2663.63152	0.08835
2661.70275	0.08748
2659.77398	0.08673
2657.84521	0.0859
2655.91644	0.08493
2653.98767	0.08385
2652.0589	0.08282
2650.13013	0.08187
2648.20136	0.08092
2646.27259	0.07995
2644.34382	0.07908
2642.41505	0.07824
2640.48628	0.07736
2638.55751	0.07632
2636.62874	0.07519
2634.69997	0.07415
2632.7712	0.07323
2630.84243	0.07231
2628.91366	0.0716
2626.98489	0.07088
2625.05612	0.06981
2623.12735	0.06868
2621.19858	0.06808
2619.26981	0.06764
2617.34104	0.06686
2615.41227	0.06563
2613.4835	0.06434
2611.55473	0.06353
2609.62596	0.06315
2607.69719	0.06269
2605.76842	0.06197
2603.83965	0.06119
2601.91088	0.06052
2599.98211	0.05981
2598.05334	0.05899
2596.12457	0.0585
2594.1958	0.05827
2592.26703	0.05794
2590.33826	0.05748
2588.40949	0.05722
2586.48072	0.05704
2584.55195	0.05675
2582.62318	0.05625
2580.69441	0.05567
2578.76564	0.05513
2576.83687	0.05484
2574.9081	0.05474
2572.97933	0.05468
2571.05056	0.05461
2569.12179	0.05426
2567.19302	0.0534
2565.26425	0.05262
2563.33548	0.05236
2561.40671	0.05221
2559.47794	0.0518
2557.54917	0.05137
2555.6204	0.05102
2553.69163	0.05084
2551.76286	0.05072
2549.83409	0.05043
2547.90532	0.04994
2545.97655	0.04958
2544.04778	0.04935
2542.11901	0.04928
2540.19024	0.04956
2538.26147	0.04982
2536.3327	0.04964
2534.40393	0.04903
2532.47516	0.04839
2530.54639	0.0481
2528.61762	0.04813
2526.68885	0.04817
2524.76008	0.04791
2522.83131	0.0473
2520.90254	0.04703
2518.97377	0.04712
2517.045	0.04673
2515.11623	0.04607
2513.18746	0.04573
2511.25869	0.04558
2509.32992	0.04554
2507.40115	0.04559
2505.47238	0.04552
2503.54361	0.04524
2501.61484	0.045
2499.68607	0.04488
2497.75729	0.04465
2495.82852	0.04421
2493.89975	0.04372
2491.97098	0.04343
2490.04221	0.04328
2488.11344	0.04304
2486.18467	0.04274
2484.2559	0.04223
2482.32713	0.04148
2480.39836	0.04084
2478.46959	0.04032
2476.54082	0.04002
2474.61205	0.0403
2472.68328	0.04073
2470.75451	0.04051
2468.82574	0.03988
2466.89697	0.03948
2464.9682	0.03946
2463.03943	0.03949
2461.11066	0.0392
2459.18189	0.03879
2457.25312	0.0383
2455.32435	0.03777
2453.39558	0.0376
2451.46681	0.03768
2449.53804	0.03759
2447.60927	0.03724
2445.6805	0.03675
2443.75173	0.03637
2441.82296	0.03631
2439.89419	0.03624
2437.96542	0.03601
2436.03665	0.03579
2434.10788	0.03547
2432.17911	0.03513
2430.25034	0.035
2428.32157	0.03491
2426.3928	0.03479
2424.46403	0.03475
2422.53526	0.03472
2420.60649	0.03491
2418.67772	0.03531
2416.74895	0.0355
2414.82018	0.03532
2412.89141	0.03531
2410.96264	0.03456
2409.03387	0.0345
2407.1051	0.03458
2405.17633	0.03467
2403.24756	0.03475
2401.31879	0.03484
2399.39002	0.03493
2397.46125	0.03501
2395.53248	0.0351
2393.60371	0.03518
2391.67494	0.03527
2389.74617	0.03535
2387.8174	0.03544
2385.88863	0.03552
2383.95986	0.03561
2382.03109	0.0357
2380.10232	0.03578
2378.17355	0.03587
2376.24478	0.03595
2374.31601	0.03604
2372.38724	0.03612
2370.45847	0.03621
2368.5297	0.0363
2366.60093	0.03638
2364.67216	0.03647
2362.74339	0.03655
2360.81462	0.03664
2358.88585	0.03672
2356.95708	0.03681
2355.02831	0.0369
2353.09954	0.03698
2351.17077	0.03707
2349.242	0.03715
2347.31323	0.03724
2345.38446	0.03732
2343.45569	0.03741
2341.52692	0.03749
2339.59815	0.03758
2337.66938	0.03767
2335.74061	0.03775
2333.81184	0.03784
2331.88307	0.03792
2329.9543	0.03801
2328.02553	0.03809
2326.09675	0.05581
2324.16798	0.06215
2322.23921	0.06904
2320.31044	0.04388
2318.38167	0.05722
2316.4529	0.05693
2314.52413	0.04606
2312.59536	0.03893
2310.66659	0.03867
2308.73782	0.03842
2306.80905	0.03816
2304.88028	0.0379
2302.95151	0.03764
2301.02274	0.03739
2299.09397	0.03713
2297.1652	0.03687
2295.23643	0.03662
2293.30766	0.03636
2291.37889	0.0361
2289.45012	0.03585
2287.52135	0.03559
2285.59258	0.03533
2283.66381	0.03507
2281.73504	0.03482
2279.80627	0.03456
2277.8775	0.0343
2275.94873	0.03405
2274.01996	0.03379
2272.09119	0.03353
2270.16242	0.03328
2268.23365	0.03302
2266.30488	0.03276
2264.37611	0.03251
2262.44734	0.03225
2260.51857	0.03199
2258.5898	0.03173
2256.66103	0.03148
2254.73226	0.03122
2252.80349	0.03096
2250.87472	0.03071
2248.94595	0.03045
2247.01718	0.03019
2245.08841	0.02994
2243.15964	0.02968
2241.23087	0.02942
2239.3021	0.02916
2237.37333	0.02891
2235.44456	0.02865
2233.51579	0.02839
2231.58702	0.02814
2229.65825	0.02788
2227.72948	0.02762
2225.80071	0.02737
2223.87194	0.02711
2221.94317	0.02685
2220.0144	0.0266
2218.08563	0.02634
2216.15686	0.02608
2214.22809	0.02582
2212.29932	0.02557
2210.37055	0.02531
2208.44178	0.02505
2206.51301	0.0248
2204.58424	0.02454
2202.65547	0.02428
2200.7267	0.02403
2198.79793	0.02377
2196.86916	0.02351
2194.94039	0.02325
2193.01162	0.023
2191.08285	0.02274
2189.15408	0.02248
2187.22531	0.02223
2185.29654	0.02197
2183.36777	0.02171
2181.439	0.02146
2179.51023	0.0212
2177.58146	0.02094
2175.65269	0.02069
2173.72392	0.02043
2171.79515	0.02017
2169.86638	0.01991
2167.93761	0.01966
2166.00884	0.01951
2164.08007	0.0195
2162.1513	0.01883
2160.22253	0.01673
2158.29376	0.01461
2156.36499	0.01489
2154.43622	0.01686
2152.50744	0.01877
2150.57867	0.0204
2148.6499	0.02176
2146.72113	0.02289
2144.79236	0.02389
2142.86359	0.02428
2140.93482	0.02434
2139.00605	0.02496
2137.07728	0.02563
2135.14851	0.02565
2133.21974	0.02539
2131.29097	0.02527
2129.3622	0.02501
2127.43343	0.0248
2125.50466	0.02502
2123.57589	0.0255
2121.64712	0.02601
2119.71835	0.02617
2117.78958	0.026
2115.86081	0.02579
2113.93204	0.02527
2112.00327	0.02437
2110.0745	0.02382
2108.14573	0.02367
2106.21696	0.02335
2104.28819	0.02277
2102.35942	0.02216
2100.43065	0.02199
2098.50188	0.02236
2096.57311	0.02303
2094.64434	0.02329
2092.71557	0.02288
2090.7868	0.02247
2088.85803	0.02246
2086.92926	0.02252
2085.00049	0.02239
2083.07172	0.02187
2081.14295	0.02104
2079.21418	0.02057
2077.28541	0.02071
2075.35664	0.02067
2073.42787	0.01993
2071.4991	0.01914
2069.57033	0.0186
2067.64156	0.01804
2065.71279	0.01746
2063.78402	0.01717
2061.85525	0.01725
2059.92648	0.01756
2057.99771	0.01792
2056.06894	0.01777
2054.14017	0.01657
2052.2114	0.0149
2050.28263	0.01367
2048.35386	0.01252
2046.42509	0.01134
2044.49632	0.01096
2042.56755	0.01155
2040.63878	0.01207
2038.71001	0.01149
2036.78124	0.01036
2034.85247	0.00967
2032.9237	0.00964
2030.99493	0.01017
2029.06616	0.01031
2027.13739	0.00982
2025.20862	0.00943
2023.27985	0.00883
2021.35108	0.00754
2019.42231	0.00656
2017.49354	0.00655
2015.56477	0.0068
2013.636	0.00691
2011.70723	0.00725
2009.77846	0.00747
2007.84969	0.00712
2005.92092	0.0064
2003.99215	0.00608
2002.06338	0.00704
2000.13461	0.00872
1998.20584	0.00928
1996.27707	0.00857
1994.3483	0.00782
1992.41953	0.00781
1990.49076	0.00803
1988.56199	0.00783
1986.63322	0.00739
1984.70445	0.00658
1982.77568	0.00474
1980.8469	0.00214
1978.91813	3.31906E-4
1976.98936	2.03426E-4
1975.06059	4.49679E-4
1973.13182	6.63812E-4
1971.20305	0.00156
1969.27428	0.00244
1967.34551	0.00288
1965.41674	0.00369
1963.48797	0.00474
1961.5592	0.00513
1959.63043	0.00543
1957.70166	0.00624
1955.77289	0.00706
1953.84412	0.00785
1951.91535	0.0088
1949.98658	0.00953
1948.05781	0.00943
1946.12904	0.00879
1944.20027	0.0084
1942.2715	0.00874
1940.34273	0.00964
1938.41396	0.01043
1936.48519	0.01092
1934.55642	0.01146
1932.62765	0.01187
1930.69888	0.0118
1928.77011	0.01162
1926.84134	0.01175
1924.91257	0.01179
1922.9838	0.01175
1921.05503	0.01191
1919.12626	0.01221
1917.19749	0.01259
1915.26872	0.01263
1913.33995	0.01204
1911.41118	0.0113
1909.48241	0.01113
1907.55364	0.0115
1905.62487	0.01148
1903.6961	0.0109
1901.76733	0.01002
1899.83856	0.00924
1897.90979	0.00872
1895.98102	0.00867
1894.05225	0.00892
1892.12348	0.00896
1890.19471	0.00875
1888.26594	0.00867
1886.33717	0.00892
1884.4084	0.00905
1882.47963	0.00889
1880.55086	0.00853
1878.62209	0.00823
1876.69332	0.00797
1874.76455	0.00758
1872.83578	0.00682
1870.90701	0.00578
1868.97824	0.00519
1867.04947	0.00566
1865.1207	0.0066
1863.19193	0.00701
1861.26316	0.00685
1859.33439	0.00653
1857.40562	0.0064
1855.47685	0.00645
1853.54808	0.00657
1851.61931	0.00665
1849.69054	0.00661
1847.76177	0.00651
1845.833	0.00664
1843.90423	0.00704
1841.97546	0.00758
1840.04669	0.00779
1838.11792	0.00792
1836.18915	0.00817
1834.26038	0.00833
1832.33161	0.00825
1830.40284	0.00842
1828.47407	0.00918
1826.5453	0.01025
1824.61653	0.0114
1822.68776	0.01253
1820.75899	0.01358
1818.83022	0.01487
1816.90145	0.01664
1814.97268	0.01885
1813.04391	0.02184
1811.11514	0.0262
1809.18636	0.03181
1807.25759	0.03829
1805.32882	0.04591
1803.40005	0.05601
1801.47128	0.07051
1799.54251	0.08913
1797.61374	0.10915
1795.68497	0.13046
1793.7562	0.15779
1791.82743	0.19206
1789.89866	0.22148
1787.96989	0.23781
1786.04112	0.24372
1784.11235	0.24246
1782.18358	0.2362
1780.25481	0.22873
1778.32604	0.22394
1776.39727	0.22441
1774.4685	0.23382
1772.53973	0.25422
1770.61096	0.27573
1768.68219	0.28632
1766.75342	0.28701
1764.82465	0.28466
1762.89588	0.28496
1760.96711	0.28866
1759.03834	0.29096
1757.10957	0.28881
1755.1808	0.28237
1753.25203	0.2726
1751.32326	0.26182
1749.39449	0.25334
1747.46572	0.2495
1745.53695	0.25057
1743.60818	0.25622
1741.67941	0.2645
1739.75064	0.27065
1737.82187	0.26861
1735.8931	0.25502
1733.96433	0.23169
1732.03556	0.20715
1730.10679	0.18708
1728.17802	0.1704
1726.24925	0.15593
1724.32048	0.14291
1722.39171	0.13101
1720.46294	0.11987
1718.53417	0.10897
1716.6054	0.09893
1714.67663	0.091
1712.74786	0.0847
1710.81909	0.0792
1708.89032	0.07453
1706.96155	0.0714
1705.03278	0.06972
1703.10401	0.06872
1701.17524	0.06979
1699.24647	0.07478
1697.3177	0.08319
1695.38893	0.0934
1693.46016	0.10269
1691.53139	0.11153
1689.60262	0.12209
1687.67385	0.13353
1685.74508	0.14792
1683.81631	0.16752
1681.88754	0.18154
1679.95877	0.18429
1678.03	0.18185
1676.10123	0.17953
1674.17246	0.1786
1672.24369	0.17907
1670.31492	0.18281
1668.38615	0.18953
1666.45738	0.19478
1664.52861	0.19925
1662.59984	0.20578
1660.67107	0.21171
1658.7423	0.21319
1656.81353	0.21151
1654.88476	0.21333
1652.95599	0.22303
1651.02722	0.23096
1649.09845	0.23429
1647.16968	0.24291
1645.24091	0.25648
1643.31214	0.26566
1641.38337	0.26948
1639.4546	0.26938
1637.52583	0.26534
1635.59705	0.25763
1633.66828	0.24719
1631.73951	0.23509
1629.81074	0.22165
1627.88197	0.20734
1625.9532	0.19278
1624.02443	0.17793
1622.09566	0.1634
1620.16689	0.1507
1618.23812	0.13934
1616.30935	0.12927
1614.38058	0.12163
1612.45181	0.11575
1610.52304	0.11071
1608.59427	0.10661
1606.6655	0.1036
1604.73673	0.10176
1602.80796	0.1012
1600.87919	0.10152
1598.95042	0.1018
1597.02165	0.1013
1595.09288	0.1
1593.16411	0.0983
1591.23534	0.09671
1589.30657	0.09578
1587.3778	0.09582
1585.44903	0.09684
1583.52026	0.09877
1581.59149	0.10122
1579.66272	0.10429
1577.73395	0.11042
1575.80518	0.12035
1573.87641	0.12789
1571.94764	0.12927
1570.01887	0.12683
1568.0901	0.12282
1566.16133	0.11798
1564.23256	0.11249
1562.30379	0.1066
1560.37502	0.10136
1558.44625	0.09872
1556.51748	0.09773
1554.58871	0.09591
1552.65994	0.09345
1550.73117	0.09108
1548.8024	0.0889
1546.87363	0.08649
1544.94486	0.08379
1543.01609	0.08157
1541.08732	0.08079
1539.15855	0.08128
1537.22978	0.08085
1535.30101	0.07921
1533.37224	0.07776
1531.44347	0.07657
1529.5147	0.07499
1527.58593	0.07363
1525.65716	0.07359
1523.72839	0.07535
1521.79962	0.07877
1519.87085	0.08104
1517.94208	0.07882
1516.01331	0.07304
1514.08454	0.06625
1512.15577	0.05915
1510.227	0.05134
1508.29823	0.04289
1506.36946	0.0359
1504.44069	0.03255
1502.51192	0.03067
1500.58315	0.02861
1498.65438	0.02694
1496.72561	0.02664
1494.79684	0.02699
1492.86807	0.02746
1490.9393	0.03011
1489.01053	0.03713
1487.08176	0.04678
1485.15299	0.056
1483.22422	0.06301
1481.29545	0.06603
1479.36668	0.06392
1477.43791	0.05868
1475.50914	0.05469
1473.58037	0.05622
1471.6516	0.06301
1469.72283	0.07
1467.79406	0.07639
1465.86529	0.08535
1463.93651	0.09628
1462.00774	0.10398
1460.07897	0.10786
1458.1502	0.11204
1456.22143	0.11661
1454.29266	0.11722
1452.36389	0.11469
1450.43512	0.11225
1448.50635	0.11149
1446.57758	0.11185
1444.64881	0.1119
1442.72004	0.1112
1440.79127	0.1101
1438.8625	0.10976
1436.93373	0.11155
1435.00496	0.11423
1433.07619	0.11547
1431.14742	0.11635
1429.21865	0.11816
1427.28988	0.12029
1425.36111	0.12233
1423.43234	0.12458
1421.50357	0.12757
1419.5748	0.13304
1417.64603	0.14055
1415.71726	0.14631
1413.78849	0.14998
1411.85972	0.15339
1409.93095	0.15652
1408.00218	0.15817
1406.07341	0.15849
1404.14464	0.15843
1402.21587	0.15873
1400.2871	0.16026
1398.35833	0.16313
1396.42956	0.16649
1394.50079	0.1703
1392.57202	0.17472
1390.64325	0.18019
1388.71448	0.18869
1386.78571	0.19971
1384.85694	0.20807
1382.92817	0.21089
1380.9994	0.21022
1379.07063	0.20873
1377.14186	0.20788
1375.21309	0.20809
1373.28432	0.20831
1371.35555	0.20647
1369.42678	0.20173
1367.49801	0.19452
1365.56924	0.18545
1363.64047	0.17543
1361.7117	0.16581
1359.78293	0.15781
1357.85416	0.15145
1355.92539	0.14623
1353.99662	0.14147
1352.06785	0.1364
1350.13908	0.13085
1348.21031	0.12571
1346.28154	0.12196
1344.35277	0.12026
1342.424	0.12119
1340.49523	0.12569
1338.56646	0.13314
1336.63769	0.14049
1334.70892	0.14582
1332.78015	0.14946
1330.85138	0.15192
1328.92261	0.15307
1326.99384	0.15252
1325.06507	0.14999
1323.1363	0.14594
1321.20753	0.14153
1319.27876	0.13777
1317.34999	0.13482
1315.42122	0.13228
1313.49245	0.13007
1311.56368	0.12825
1309.63491	0.12704
1307.70614	0.1268
1305.77737	0.12756
1303.8486	0.12846
1301.91983	0.12807
1299.99106	0.12546
1298.06229	0.12081
1296.13352	0.11495
1294.20475	0.10873
1292.27597	0.10325
1290.3472	0.09956
1288.41843	0.09829
1286.48966	0.09925
1284.56089	0.10155
1282.63212	0.10379
1280.70335	0.10475
1278.77458	0.10403
1276.84581	0.10201
1274.91704	0.0992
1272.98827	0.09563
1271.0595	0.09125
1269.13073	0.08623
1267.20196	0.08113
1265.27319	0.07655
1263.34442	0.07288
1261.41565	0.07012
1259.48688	0.0679
1257.55811	0.06606
1255.62934	0.06468
1253.70057	0.06418
1251.7718	0.0648
1249.84303	0.06635
1247.91426	0.06854
1245.98549	0.07133
1244.05672	0.0748
1242.12795	0.07816
1240.19918	0.08017
1238.27041	0.0803
1236.34164	0.07912
1234.41287	0.07768
1232.4841	0.07692
1230.55533	0.07745
1228.62656	0.07978
1226.69779	0.08391
1224.76902	0.08904
1222.84025	0.09358
1220.91148	0.09585
1218.98271	0.09498
1217.05394	0.0909
1215.12517	0.08418
1213.1964	0.07621
1211.26763	0.0688
1209.33886	0.0629
1207.41009	0.05848
1205.48132	0.05518
1203.55255	0.05283
1201.62378	0.05133
1199.69501	0.05051
1197.76624	0.05013
1195.83747	0.0498
1193.9087	0.04901
1191.97993	0.04757
1190.05116	0.04556
1188.12239	0.04306
1186.19362	0.04021
1184.26485	0.0374
1182.33608	0.03487
1180.40731	0.03274
1178.47854	0.03119
1176.54977	0.03092
1174.621	0.03297
1172.69223	0.03883
1170.76346	0.05002
1168.83469	0.0677
1166.90592	0.09249
1164.97715	0.12449
1163.04838	0.16283
1161.11961	0.20534
1159.19084	0.24797
1157.26207	0.28468
1155.3333	0.3097
1153.40453	0.32152
1151.47576	0.32314
1149.54699	0.31873
1147.61822	0.31042
1145.68945	0.29815
1143.76068	0.28196
1141.83191	0.26463
1139.90314	0.2502
1137.97437	0.24019
1136.0456	0.23312
1134.11683	0.22793
1132.18806	0.22537
1130.25929	0.22565
1128.33052	0.22707
1126.40175	0.22699
1124.47298	0.22373
1122.54421	0.21751
1120.61544	0.21024
1118.68666	0.20453
1116.75789	0.20263
1114.82912	0.20514
1112.90035	0.21164
1110.97158	0.22192
1109.04281	0.2355
1107.11404	0.25072
1105.18527	0.26468
1103.2565	0.27484
1101.32773	0.28046
1099.39896	0.28288
1097.47019	0.28446
1095.54142	0.28685
1093.61265	0.29066
1091.68388	0.29726
1089.75511	0.30876
1087.82634	0.32729
1085.89757	0.35466
1083.9688	0.38959
1082.04003	0.42405
1080.11126	0.44444
1078.18249	0.4384
1076.25372	0.4032
1074.32495	0.35072
1072.39618	0.30184
1070.46741	0.27222
1068.53864	0.26409
1066.60987	0.27036
1064.6811	0.28352
1062.75233	0.30185
1060.82356	0.32833
1058.89479	0.36588
1056.96602	0.41273
1055.03725	0.4627
1053.10848	0.5099
1051.17971	0.55222
1049.25094	0.59004
1047.32217	0.62303
1045.3934	0.6496
1043.46463	0.66999
1041.53586	0.68778
1039.60709	0.70781
1037.67832	0.73406
1035.74955	0.76836
1033.82078	0.8097
1031.89201	0.85585
1029.96324	0.9043
1028.03447	0.95056
1026.1057	0.98576
1024.17693	1
1022.24816	0.98756
1020.31939	0.94776
1018.39062	0.8861
1016.46185	0.81316
1014.53308	0.73895
1012.60431	0.67172
1010.67554	0.62066
1008.74677	0.59355
1006.818	0.58911
1004.88923	0.59624
1002.96046	0.60263
1001.03169	0.60302
999.10292	0.59933
997.17415	0.59516
995.24538	0.58998
993.31661	0.57805
991.38784	0.55491
989.45907	0.52406
987.5303	0.49395
985.60153	0.46853
983.67276	0.444
981.74399	0.41435
979.81522	0.37782
977.88645	0.33759
975.95768	0.29851
974.02891	0.26423
972.10014	0.23657
970.17137	0.21518
968.2426	0.19779
966.31383	0.18126
964.38506	0.16465
962.45629	0.14978
960.52752	0.13855
958.59875	0.13028
956.66998	0.12287
954.74121	0.11671
952.81244	0.11652
950.88367	0.12728
948.9549	0.14713
947.02612	0.1663
945.09735	0.17606
943.16858	0.1771
941.23981	0.17649
939.31104	0.17893
937.38227	0.18272
935.4535	0.18247
933.52473	0.17352
931.59596	0.15521
929.66719	0.13228
927.73842	0.11066
925.80965	0.0929
923.88088	0.07854
921.95211	0.06684
920.02334	0.05766
918.09457	0.05087
916.1658	0.04608
914.23703	0.04249
912.30826	0.03865
910.37949	0.03346
908.45072	0.02704
906.52195	0.0202
904.59318	0.01374
902.66441	0.00832
900.73564	0.00456
898.80687	0.00294
896.8781	0.00359
894.94933	0.0061
893.02056	0.00991
891.09179	0.0146
889.16302	0.0199
887.23425	0.02571
885.30548	0.03197
883.37671	0.03861
881.44794	0.04461
879.51917	0.04752
877.5904	0.04524
875.66163	0.03873
873.73286	0.03147
871.80409	0.02668
869.87532	0.02574
867.94655	0.02827
866.01778	0.03287
864.08901	0.03797
862.16024	0.04252
860.23147	0.04623
858.3027	0.0491
856.37393	0.05113
854.44516	0.05246
852.51639	0.05289
850.58762	0.05208
848.65885	0.04942
846.73008	0.04522
844.80131	0.04066
842.87254	0.03676
840.94377	0.0333
839.015	0.02913
837.08623	0.02348
835.15746	0.01678
833.22869	0.01032
831.29992	0.00518
829.37115	0.00187
827.44238	2.24839E-4
825.51361	0
823.58484	9.52891E-4
821.65607	0.00302
819.7273	0.0062
817.79853	0.00949
815.86976	0.01155
813.94099	0.01237
812.01222	0.01279
810.08345	0.01327
808.15468	0.01378
806.22591	0.01456
804.29714	0.01588
802.36837	0.01767
800.4396	0.01921
798.51083	0.01979
796.58206	0.01931
794.65329	0.01834
792.72452	0.01729
790.79575	0.01619
788.86698	0.01499
786.93821	0.01423
785.00944	0.01472
783.08067	0.01722
781.1519	0.02191
779.22313	0.02832
777.29436	0.03544
775.36558	0.04228
773.43681	0.04748
771.50804	0.04993
769.57927	0.05039
767.6505	0.05168
765.72173	0.05628
763.79296	0.06493
761.86419	0.07596
759.93542	0.08625
758.00665	0.09361
756.07788	0.09802
754.14911	0.09985
752.22034	0.09803
750.29157	0.0908
748.3628	0.07929
746.43403	0.06739
744.50526	0.05828
742.57649	0.0524
740.64772	0.04825
738.71895	0.04484
736.79018	0.04239
734.86141	0.04119
732.93264	0.04079
731.00387	0.04097
729.0751	0.04193
727.14633	0.04345
725.21756	0.045
723.28879	0.04749
721.36002	0.04761
719.43125	0.04922
717.50248	0.05108
715.57371	0.05169
713.64494	0.05446
711.71617	0.05968
709.7874	0.06668
707.85863	0.07495
705.92986	0.08333
704.00109	0.09002
702.07232	0.09289
700.14355	0.0917
698.21478	0.08751
696.28601	0.08188
694.35724	0.07668
692.42847	0.07275
690.4997	0.0703
688.57093	0.06919
686.64216	0.06882
684.71339	0.06897
682.78462	0.06912
680.85585	0.06944
678.92708	0.06959
676.99831	0.06875
675.06954	0.06827
673.14077	0.07925
671.212	0.10426
669.28323	0.07437
667.35446	0.01331
665.42569	0.08857
663.49692	0.08777
661.56815	0.0718
659.63938	0.07112
657.71061	0.07384
655.78184	0.07391
653.85307	0.07474
651.9243	0.07375
649.99553	0.07218
648.06676	0.07076
646.13799	0.06843
644.20922	0.06566
642.28045	0.06321
640.35168	0.06162
638.42291	0.06033
636.49414	0.05908
634.56537	0.05798
632.6366	0.05684
630.70783	0.05585
628.77906	0.05505
626.85029	0.05586
624.92152	0.05787
622.99275	0.06093
621.06398	0.06466
619.13521	0.06921
617.20644	0.07535
615.27767	0.08348
613.3489	0.09286
611.42013	0.10213
609.49136	0.10925
607.56259	0.11246
605.63382	0.11181
603.70505	0.10884
601.77627	0.10533
599.8475	0.10228
597.91873	0.1002
595.98996	0.0995
594.06119	0.10099
592.13242	0.10536
590.20365	0.11195
588.27488	0.11921
586.34611	0.12679
584.41734	0.13464
582.48857	0.14198
580.5598	0.14782
578.63103	0.15123
576.70226	0.15175
574.77349	0.14987
572.84472	0.14613
570.91595	0.14059
568.98718	0.13317
567.05841	0.1244
565.12964	0.11558
563.20087	0.10749
561.2721	0.10062
559.34333	0.0949
557.41456	0.09009
555.48579	0.08604
553.55702	0.08253
551.62825	0.07916
549.69948	0.07588
547.77071	0.07312
545.84194	0.07126
543.91317	0.07073
541.9844	0.07179
540.05563	0.07443
538.12686	0.07801
536.19809	0.08145
534.26932	0.08411
532.34055	0.0858
530.41178	0.08669
528.48301	0.08693
526.55424	0.08651
524.62547	0.08514
522.6967	0.08281
520.76793	0.07981
518.83916	0.0761
516.91039	0.07165
514.98162	0.06719
513.05285	0.06354
511.12408	0.06078
509.19531	0.0587
507.26654	0.05708
505.33777	0.05572
503.409	0.05475
501.48023	0.05436
499.55146	0.05411
497.62269	0.05346
495.69392	0.05226
493.76515	0.05067
491.83638	0.04893
489.90761	0.04719
487.97884	0.04543
486.05007	0.04355
484.1213	0.04153
482.19253	0.03954
480.26376	0.03783
478.33499	0.03652
476.40622	0.0351
474.47745	0.03297
472.54868	0.03017
470.61991	0.02743
468.69114	0.02495
466.76237	0.02232
464.8336	0.01939
462.90483	0.01628
460.97606	0.01337
459.04729	0.01121
457.11852	0.01011
455.18975	0.00994
453.26098	0.01037
451.33221	0.01141
449.40344	0.01296
447.47467	0.01488
445.5459	0.01709
443.61713	0.01952
441.68836	0.02213
439.75959	0.02457
437.83082	0.02661
435.90205	0.02809
433.97328	0.02855
432.04451	0.02759
430.11573	0.0254
428.18696	0.02275
426.25819	0.0203
424.32942	0.01816
422.40065	0.01608
420.47188	0.01392
418.54311	0.01236
416.61434	0.01158
414.68557	0.01105
412.7568	0.01034
410.82803	0.00907
408.89926	0.00684
406.97049	0.00401
405.04172	0.00183
403.11295	9.20771E-4
401.18418	0.00141
399.25541	0.00297