3996.41167	0.04099
3994.4829	0.04103
3992.55413	0.04115
3990.62536	0.04116
3988.69659	0.04078
3986.76782	0.0404
3984.83905	0.04039
3982.91028	0.04041
3980.98151	0.04008
3979.05274	0.03977
3977.12397	0.03984
3975.1952	0.04008
3973.26643	0.0402
3971.33766	0.04019
3969.40889	0.04003
3967.48012	0.0398
3965.55135	0.04024
3963.62258	0.0417
3961.69381	0.0429
3959.76504	0.0426
3957.83627	0.04127
3955.9075	0.04012
3953.97873	0.03977
3952.04996	0.04073
3950.12119	0.04288
3948.19242	0.04441
3946.26365	0.04411
3944.33488	0.04355
3942.40611	0.04377
3940.47734	0.04319
3938.54857	0.04119
3936.6198	0.0393
3934.69103	0.03926
3932.76226	0.04152
3930.83349	0.04345
3928.90472	0.04289
3926.97595	0.04182
3925.04718	0.0425
3923.11841	0.04329
3921.18964	0.04274
3919.26087	0.04275
3917.3321	0.04391
3915.40333	0.04373
3913.47456	0.04169
3911.54579	0.03949
3909.61702	0.03802
3907.68825	0.03791
3905.75948	0.04091
3903.83071	0.04654
3901.90194	0.0505
3899.97317	0.05089
3898.0444	0.0487
3896.11563	0.04507
3894.18686	0.04233
3892.25809	0.04249
3890.32932	0.04318
3888.40055	0.04205
3886.47178	0.04197
3884.54301	0.04395
3882.61424	0.04511
3880.68547	0.0451
3878.7567	0.0436
3876.82792	0.04046
3874.89915	0.03892
3872.97038	0.04087
3871.04161	0.04459
3869.11284	0.04689
3867.18407	0.04567
3865.2553	0.04407
3863.32653	0.04498
3861.39776	0.04537
3859.46899	0.0425
3857.54022	0.03745
3855.61145	0.03469
3853.68268	0.0396
3851.75391	0.04764
3849.82514	0.04882
3847.89637	0.04477
3845.9676	0.04068
3844.03883	0.03906
3842.11006	0.03955
3840.18129	0.04123
3838.25252	0.04353
3836.32375	0.04429
3834.39498	0.0427
3832.46621	0.041
3830.53744	0.0403
3828.60867	0.03982
3826.6799	0.03886
3824.75113	0.0367
3822.82236	0.03545
3820.89359	0.03847
3818.96482	0.04228
3817.03605	0.04362
3815.10728	0.04418
3813.17851	0.04281
3811.24974	0.03895
3809.32097	0.03549
3807.3922	0.03496
3805.46343	0.03532
3803.53466	0.03487
3801.60589	0.03682
3799.67712	0.04037
3797.74835	0.04172
3795.81958	0.04179
3793.89081	0.04126
3791.96204	0.03989
3790.03327	0.03874
3788.1045	0.03851
3786.17573	0.03912
3784.24696	0.03966
3782.31819	0.03905
3780.38942	0.0384
3778.46065	0.03914
3776.53188	0.0396
3774.60311	0.03837
3772.67434	0.03703
3770.74557	0.03786
3768.8168	0.04049
3766.88803	0.04217
3764.95926	0.04156
3763.03049	0.03922
3761.10172	0.03765
3759.17295	0.03903
3757.24418	0.04041
3755.31541	0.03842
3753.38664	0.03598
3751.45787	0.03865
3749.5291	0.04445
3747.60033	0.04686
3745.67156	0.04901
3743.74279	0.05278
3741.81402	0.05235
3739.88525	0.04829
3737.95648	0.04711
3736.02771	0.05113
3734.09894	0.05512
3732.17017	0.05526
3730.2414	0.05404
3728.31263	0.05435
3726.38386	0.05636
3724.45509	0.05739
3722.52632	0.05626
3720.59755	0.05427
3718.66878	0.0519
3716.74001	0.04891
3714.81124	0.04575
3712.88247	0.04607
3710.9537	0.05259
3709.02493	0.05857
3707.09616	0.05858
3705.16739	0.05584
3703.23861	0.05559
3701.30984	0.05985
3699.38107	0.06509
3697.4523	0.06773
3695.52353	0.06832
3693.59476	0.06829
3691.66599	0.06928
3689.73722	0.07342
3687.80845	0.0788
3685.87968	0.08065
3683.95091	0.07871
3682.02214	0.07577
3680.09337	0.07427
3678.1646	0.07632
3676.23583	0.08292
3674.30706	0.089
3672.37829	0.08998
3670.44952	0.09057
3668.52075	0.09243
3666.59198	0.09182
3664.66321	0.08988
3662.73444	0.08903
3660.80567	0.08869
3658.8769	0.08807
3656.94813	0.08778
3655.01936	0.08656
3653.09059	0.08312
3651.16182	0.08257
3649.23305	0.08966
3647.30428	0.09579
3645.37551	0.0937
3643.44674	0.0884
3641.51797	0.08464
3639.5892	0.08252
3637.66043	0.08137
3635.73166	0.08101
3633.80289	0.08068
3631.87412	0.08058
3629.94535	0.08372
3628.01658	0.08863
3626.08781	0.08803
3624.15904	0.08278
3622.23027	0.07845
3620.3015	0.07844
3618.37273	0.08203
3616.44396	0.08463
3614.51519	0.0853
3612.58642	0.08596
3610.65765	0.08759
3608.72888	0.09032
3606.80011	0.09165
3604.87134	0.08988
3602.94257	0.08793
3601.0138	0.08832
3599.08503	0.0901
3597.15626	0.0924
3595.22749	0.09523
3593.29872	0.09671
3591.36995	0.09601
3589.44118	0.09682
3587.51241	0.10071
3585.58364	0.10259
3583.65487	0.10035
3581.7261	0.09793
3579.79733	0.0974
3577.86856	0.09794
3575.93979	0.09905
3574.01102	0.10053
3572.08225	0.10194
3570.15348	0.10449
3568.22471	0.11049
3566.29594	0.11734
3564.36717	0.11909
3562.4384	0.11697
3560.50963	0.11493
3558.58086	0.11336
3556.65209	0.11225
3554.72332	0.11304
3552.79455	0.11572
3550.86578	0.11819
3548.93701	0.12077
3547.00824	0.1258
3545.07947	0.13086
3543.1507	0.13115
3541.22193	0.12796
3539.29316	0.12627
3537.36439	0.12765
3535.43562	0.12933
3533.50685	0.1294
3531.57807	0.12939
3529.6493	0.13124
3527.72053	0.13528
3525.79176	0.14002
3523.86299	0.14287
3521.93422	0.14266
3520.00545	0.14114
3518.07668	0.14086
3516.14791	0.14204
3514.21914	0.14347
3512.29037	0.14471
3510.3616	0.14621
3508.43283	0.14792
3506.50406	0.14992
3504.57529	0.15332
3502.64652	0.15719
3500.71775	0.15882
3498.78898	0.15854
3496.86021	0.15868
3494.93144	0.15979
3493.00267	0.16107
3491.0739	0.1624
3489.14513	0.16453
3487.21636	0.16706
3485.28759	0.16884
3483.35882	0.17104
3481.43005	0.17498
3479.50128	0.17823
3477.57251	0.17924
3475.64374	0.18005
3473.71497	0.1822
3471.7862	0.1853
3469.85743	0.18867
3467.92866	0.19176
3465.99989	0.19419
3464.07112	0.19669
3462.14235	0.19991
3460.21358	0.20286
3458.28481	0.20454
3456.35604	0.20595
3454.42727	0.20823
3452.4985	0.211
3450.56973	0.2138
3448.64096	0.21732
3446.71219	0.22161
3444.78342	0.22503
3442.85465	0.22758
3440.92588	0.2304
3438.99711	0.23345
3437.06834	0.23639
3435.13957	0.23912
3433.2108	0.24169
3431.28203	0.24434
3429.35326	0.24689
3427.42449	0.249
3425.49572	0.2508
3423.56695	0.25308
3421.63818	0.25603
3419.70941	0.25873
3417.78064	0.26063
3415.85187	0.26216
3413.9231	0.2635
3411.99433	0.26451
3410.06556	0.26569
3408.13679	0.26747
3406.20802	0.2695
3404.27925	0.27153
3402.35048	0.27348
3400.42171	0.27496
3398.49294	0.27632
3396.56417	0.2779
3394.6354	0.27963
3392.70663	0.28124
3390.77786	0.28228
3388.84909	0.28271
3386.92032	0.28365
3384.99155	0.28553
3383.06278	0.28758
3381.13401	0.28914
3379.20524	0.29042
3377.27647	0.29178
3375.3477	0.29307
3373.41893	0.29425
3371.49016	0.29558
3369.56139	0.29702
3367.63262	0.29798
3365.70385	0.29861
3363.77508	0.2995
3361.84631	0.30059
3359.91753	0.3014
3357.98876	0.30208
3356.05999	0.30302
3354.13122	0.30443
3352.20245	0.30608
3350.27368	0.30749
3348.34491	0.30843
3346.41614	0.30951
3344.48737	0.31102
3342.5586	0.31255
3340.62983	0.31391
3338.70106	0.31504
3336.77229	0.31581
3334.84352	0.31595
3332.91475	0.31609
3330.98598	0.31697
3329.05721	0.31853
3327.12844	0.32029
3325.19967	0.32145
3323.2709	0.32154
3321.34213	0.32116
3319.41336	0.32083
3317.48459	0.32067
3315.55582	0.32076
3313.62705	0.32184
3311.69828	0.32494
3309.76951	0.32948
3307.84074	0.33305
3305.91197	0.33421
3303.9832	0.3339
3302.05443	0.33369
3300.12566	0.33448
3298.19689	0.33641
3296.26812	0.33876
3294.33935	0.34094
3292.41058	0.34269
3290.48181	0.34366
3288.55304	0.34407
3286.62427	0.34491
3284.6955	0.34661
3282.76673	0.34894
3280.83796	0.35149
3278.90919	0.35399
3276.98042	0.35661
3275.05165	0.35961
3273.12288	0.36318
3271.19411	0.36672
3269.26534	0.36967
3267.33657	0.37272
3265.4078	0.37668
3263.47903	0.38145
3261.55026	0.38705
3259.62149	0.39407
3257.69272	0.40243
3255.76395	0.41082
3253.83518	0.41836
3251.90641	0.42663
3249.97764	0.43737
3248.04887	0.44956
3246.1201	0.46053
3244.19133	0.46889
3242.26256	0.47485
3240.33379	0.47911
3238.40502	0.48213
3236.47625	0.48377
3234.54748	0.48326
3232.61871	0.48022
3230.68994	0.47542
3228.76117	0.47007
3226.8324	0.46497
3224.90363	0.46037
3222.97486	0.45621
3221.04609	0.45268
3219.11732	0.44986
3217.18855	0.44755
3215.25978	0.44592
3213.33101	0.44532
3211.40224	0.44558
3209.47347	0.44645
3207.5447	0.44738
3205.61593	0.44757
3203.68716	0.44692
3201.75839	0.4454
3199.82962	0.44246
3197.90085	0.43818
3195.97208	0.43313
3194.04331	0.42763
3192.11454	0.42176
3190.18577	0.41547
3188.257	0.40888
3186.32822	0.40241
3184.39945	0.39637
3182.47068	0.39055
3180.54191	0.385
3178.61314	0.38
3176.68437	0.3755
3174.7556	0.37122
3172.82683	0.36703
3170.89806	0.363
3168.96929	0.35937
3167.04052	0.35621
3165.11175	0.35322
3163.18298	0.35033
3161.25421	0.34786
3159.32544	0.34599
3157.39667	0.34489
3155.4679	0.34481
3153.53913	0.34542
3151.61036	0.34591
3149.68159	0.3467
3147.75282	0.34969
3145.82405	0.35639
3143.89528	0.3658
3141.96651	0.37431
3140.03774	0.37745
3138.10897	0.37322
3136.1802	0.3648
3134.25143	0.35753
3132.32266	0.35407
3130.39389	0.35273
3128.46512	0.35078
3126.53635	0.34816
3124.60758	0.34671
3122.67881	0.34671
3120.75004	0.3464
3118.82127	0.34493
3116.8925	0.34258
3114.96373	0.33974
3113.03496	0.33723
3111.10619	0.33578
3109.17742	0.33473
3107.24865	0.33311
3105.31988	0.33161
3103.39111	0.33155
3101.46234	0.33288
3099.53357	0.33417
3097.6048	0.33483
3095.67603	0.33619
3093.74726	0.33911
3091.81849	0.34268
3089.88972	0.3456
3087.96095	0.34768
3086.03218	0.34949
3084.10341	0.35141
3082.17464	0.35401
3080.24587	0.35783
3078.3171	0.36269
3076.38833	0.36802
3074.45956	0.37413
3072.53079	0.38172
3070.60202	0.39075
3068.67325	0.40036
3066.74448	0.40954
3064.81571	0.41735
3062.88694	0.42296
3060.95817	0.42598
3059.0294	0.42654
3057.10063	0.42455
3055.17186	0.41957
3053.24309	0.41216
3051.31432	0.40349
3049.38555	0.39434
3047.45678	0.38517
3045.52801	0.37632
3043.59924	0.36816
3041.67047	0.36095
3039.7417	0.35453
3037.81293	0.34886
3035.88416	0.34418
3033.95539	0.34053
3032.02662	0.33791
3030.09785	0.33604
3028.16908	0.33469
3026.24031	0.33404
3024.31154	0.33405
3022.38277	0.33449
3020.454	0.33533
3018.52523	0.33666
3016.59646	0.33866
3014.66768	0.34176
3012.73891	0.34622
3010.81014	0.35193
3008.88137	0.3586
3006.9526	0.36582
3005.02383	0.37317
3003.09506	0.38036
3001.16629	0.38775
2999.23752	0.39599
2997.30875	0.4055
2995.37998	0.41607
2993.45121	0.42928
2991.52244	0.44723
2989.59367	0.46493
2987.6649	0.47344
2985.73613	0.47279
2983.80736	0.47047
2981.87859	0.47168
2979.94982	0.47661
2978.02105	0.48279
2976.09228	0.48815
2974.16351	0.49166
2972.23474	0.492
2970.30597	0.48787
2968.3772	0.47925
2966.44843	0.46679
2964.51966	0.45196
2962.59089	0.43747
2960.66212	0.42579
2958.73335	0.41741
2956.80458	0.41221
2954.87581	0.41039
2952.94704	0.41252
2951.01827	0.41904
2949.0895	0.43026
2947.16073	0.44493
2945.23196	0.45831
2943.30319	0.46426
2941.37442	0.46028
2939.44565	0.44944
2937.51688	0.43632
2935.58811	0.42367
2933.65934	0.41291
2931.73057	0.40468
2929.8018	0.39859
2927.87303	0.39383
2925.94426	0.39027
2924.01549	0.38781
2922.08672	0.38631
2920.15795	0.38568
2918.22918	0.38557
2916.30041	0.38591
2914.37164	0.38732
2912.44287	0.38905
2910.5141	0.38941
2908.58533	0.38864
2906.65656	0.38843
2904.72779	0.38966
2902.79902	0.39142
2900.87025	0.3892
2898.94148	0.38035
2897.01271	0.36976
2895.08394	0.36213
2893.15517	0.35638
2891.2264	0.35071
2889.29763	0.34578
2887.36886	0.34267
2885.44009	0.34068
2883.51132	0.33818
2881.58255	0.33477
2879.65378	0.33119
2877.72501	0.32823
2875.79624	0.32576
2873.86747	0.32297
2871.9387	0.31879
2870.00993	0.31294
2868.08116	0.30581
2866.15239	0.29763
2864.22362	0.28885
2862.29485	0.28025
2860.36608	0.27217
2858.43731	0.26463
2856.50854	0.2578
2854.57977	0.25158
2852.651	0.24586
2850.72223	0.24078
2848.79346	0.23633
2846.86469	0.23197
2844.93592	0.22757
2843.00714	0.22384
2841.07837	0.221
2839.1496	0.2184
2837.22083	0.21547
2835.29206	0.21255
2833.36329	0.21011
2831.43452	0.20801
2829.50575	0.20614
2827.57698	0.20472
2825.64821	0.20379
2823.71944	0.20326
2821.79067	0.20283
2819.8619	0.20255
2817.93313	0.20284
2816.00436	0.204
2814.07559	0.20551
2812.14682	0.2061
2810.21805	0.2046
2808.28928	0.20134
2806.36051	0.19763
2804.43174	0.19424
2802.50297	0.19148
2800.5742	0.18946
2798.64543	0.18766
2796.71666	0.18552
2794.78789	0.18327
2792.85912	0.18145
2790.93035	0.17993
2789.00158	0.17798
2787.07281	0.17539
2785.14404	0.17295
2783.21527	0.17113
2781.2865	0.16968
2779.35773	0.16858
2777.42896	0.16805
2775.50019	0.16754
2773.57142	0.16639
2771.64265	0.16492
2769.71388	0.16367
2767.78511	0.16274
2765.85634	0.16204
2763.92757	0.16126
2761.9988	0.16048
2760.07003	0.15995
2758.14126	0.1598
2756.21249	0.15979
2754.28372	0.15981
2752.35495	0.16005
2750.42618	0.16036
2748.49741	0.16005
2746.56864	0.15895
2744.63987	0.15763
2742.7111	0.15668
2740.78233	0.15607
2738.85356	0.15572
2736.92479	0.15539
2734.99602	0.15471
2733.06725	0.15391
2731.13848	0.15352
2729.20971	0.15379
2727.28094	0.15423
2725.35217	0.15427
2723.4234	0.15409
2721.49463	0.15398
2719.56586	0.15375
2717.63709	0.15334
2715.70832	0.15276
2713.77955	0.15194
2711.85078	0.15089
2709.92201	0.14956
2707.99324	0.14791
2706.06447	0.14619
2704.1357	0.14464
2702.20693	0.14327
2700.27816	0.14209
2698.34939	0.14092
2696.42062	0.13964
2694.49185	0.13839
2692.56308	0.13722
2690.63431	0.13602
2688.70554	0.13479
2686.77677	0.13374
2684.848	0.13311
2682.91923	0.13281
2680.99046	0.13238
2679.06169	0.13167
2677.13292	0.13087
2675.20415	0.12997
2673.27538	0.12907
2671.34661	0.12819
2669.41783	0.12726
2667.48906	0.12653
2665.56029	0.12618
2663.63152	0.12595
2661.70275	0.12547
2659.77398	0.12469
2657.84521	0.12366
2655.91644	0.12246
2653.98767	0.12139
2652.0589	0.12056
2650.13013	0.11971
2648.20136	0.11855
2646.27259	0.11723
2644.34382	0.11586
2642.41505	0.11468
2640.48628	0.11398
2638.55751	0.1134
2636.62874	0.11255
2634.69997	0.11144
2632.7712	0.11029
2630.84243	0.10924
2628.91366	0.10832
2626.98489	0.10756
2625.05612	0.10681
2623.12735	0.10588
2621.19858	0.10476
2619.26981	0.10378
2617.34104	0.10313
2615.41227	0.10245
2613.4835	0.10152
2611.55473	0.10077
2609.62596	0.10054
2607.69719	0.1006
2605.76842	0.10067
2603.83965	0.10056
2601.91088	0.1003
2599.98211	0.10022
2598.05334	0.10034
2596.12457	0.10008
2594.1958	0.09938
2592.26703	0.09872
2590.33826	0.09822
2588.40949	0.09732
2586.48072	0.09607
2584.55195	0.09519
2582.62318	0.09471
2580.69441	0.09413
2578.76564	0.0932
2576.83687	0.09228
2574.9081	0.09142
2572.97933	0.0906
2571.05056	0.08987
2569.12179	0.08916
2567.19302	0.08851
2565.26425	0.08791
2563.33548	0.0872
2561.40671	0.08628
2559.47794	0.0854
2557.54917	0.08494
2555.6204	0.08489
2553.69163	0.0847
2551.76286	0.08425
2549.83409	0.08387
2547.90532	0.08391
2545.97655	0.08413
2544.04778	0.08407
2542.11901	0.08369
2540.19024	0.08351
2538.26147	0.08352
2536.3327	0.08319
2534.40393	0.08249
2532.47516	0.08183
2530.54639	0.08145
2528.61762	0.08117
2526.68885	0.08082
2524.76008	0.08044
2522.83131	0.08006
2520.90254	0.0798
2518.97377	0.07974
2517.045	0.07956
2515.11623	0.0791
2513.18746	0.07865
2511.25869	0.07822
2509.32992	0.07766
2507.40115	0.07716
2505.47238	0.07683
2503.54361	0.0765
2501.61484	0.07627
2499.68607	0.07623
2497.75729	0.07615
2495.82852	0.07599
2493.89975	0.07591
2491.97098	0.07585
2490.04221	0.0758
2488.11344	0.07554
2486.18467	0.07496
2484.2559	0.07445
2482.32713	0.07412
2480.39836	0.07379
2478.46959	0.07329
2476.54082	0.07288
2474.61205	0.07273
2472.68328	0.07262
2470.75451	0.07226
2468.82574	0.07186
2466.89697	0.07163
2464.9682	0.07144
2463.03943	0.07111
2461.11066	0.07068
2459.18189	0.07038
2457.25312	0.0701
2455.32435	0.06939
2453.39558	0.06854
2451.46681	0.06801
2449.53804	0.0677
2447.60927	0.0674
2445.6805	0.06731
2443.75173	0.06743
2441.82296	0.06765
2439.89419	0.06784
2437.96542	0.06785
2436.03665	0.06775
2434.10788	0.06784
2432.17911	0.06798
2430.25034	0.06805
2428.32157	0.06804
2426.3928	0.06791
2424.46403	0.06767
2422.53526	0.06767
2420.60649	0.06783
2418.67772	0.06777
2416.74895	0.06752
2414.82018	0.06743
2412.89141	0.06743
2410.96264	0.06727
2409.03387	0.06719
2407.1051	0.06738
2405.17633	0.06754
2403.24756	0.06756
2401.31879	0.06735
2399.39002	0.06069
2397.46125	0.05946
2395.53248	0.06191
2393.60371	0.06476
2391.67494	0.06771
2389.74617	0.06642
2387.8174	0.06642
2385.88863	0.06642
2383.95986	0.06642
2382.03109	0.06642
2380.10232	0.06642
2378.17355	0.06642
2376.24478	0.06642
2374.31601	0.06642
2372.38724	0.06642
2370.45847	0.06642
2368.5297	0.06642
2366.60093	0.06642
2364.67216	0.06642
2362.74339	0.06642
2360.81462	0.06642
2358.88585	0.06642
2356.95708	0.06642
2355.02831	0.06642
2353.09954	0.06642
2351.17077	0.06642
2349.242	0.06642
2347.31323	0.06642
2345.38446	0.06642
2343.45569	0.06642
2341.52692	0.06642
2339.59815	0.06642
2337.66938	0.06642
2335.74061	0.06642
2333.81184	0.06642
2331.88307	0.06642
2329.9543	0.06642
2328.02553	0.06642
2326.09675	0.06642
2324.16798	0.06642
2322.23921	0.06642
2320.31044	0.06642
2318.38167	0.06642
2316.4529	0.06642
2314.52413	0.06642
2312.59536	0.06642
2310.66659	0.06642
2308.73782	0.06642
2306.80905	0.06642
2304.88028	0.06642
2302.95151	0.06642
2301.02274	0.06642
2299.09397	0.06642
2297.1652	0.06642
2295.23643	0.06642
2293.30766	0.06642
2291.37889	0.06642
2289.45012	0.06642
2287.52135	0.06642
2285.59258	0.06642
2283.66381	0.06642
2281.73504	0.0641
2279.80627	0.0626
2277.8775	0.06165
2275.94873	0.0609
2274.01996	0.06014
2272.09119	0.05961
2270.16242	0.05928
2268.23365	0.0589
2266.30488	0.0583
2264.37611	0.05787
2262.44734	0.05813
2260.51857	0.0586
2258.5898	0.05794
2256.66103	0.05634
2254.73226	0.05567
2252.80349	0.05702
2250.87472	0.05875
2248.94595	0.05803
2247.01718	0.05824
2245.08841	0.05813
2243.15964	0.0578
2241.23087	0.05747
2239.3021	0.05769
2237.37333	0.05857
2235.44456	0.05886
2233.51579	0.05796
2231.58702	0.05686
2229.65825	0.05638
2227.72948	0.0563
2225.80071	0.05641
2223.87194	0.05695
2221.94317	0.05757
2220.0144	0.05743
2218.08563	0.05718
2216.15686	0.05774
2214.22809	0.05855
2212.29932	0.05882
2210.37055	0.05868
2208.44178	0.05863
2206.51301	0.05882
2204.58424	0.05911
2202.65547	0.0592
2200.7267	0.05912
2198.79793	0.05941
2196.86916	0.05992
2194.94039	0.05976
2193.01162	0.05926
2191.08285	0.05955
2189.15408	0.06076
2187.22531	0.06199
2185.29654	0.06231
2183.36777	0.06086
2181.439	0.05886
2179.51023	0.05833
2177.58146	0.05837
2175.65269	0.05757
2173.72392	0.05699
2171.79515	0.0576
2169.86638	0.05879
2167.93761	0.05968
2166.00884	0.05967
2164.08007	0.05889
2162.1513	0.05699
2160.22253	0.05222
2158.29376	0.04642
2156.36499	0.04458
2154.43622	0.04626
2152.50744	0.04856
2150.57867	0.05061
2148.6499	0.05212
2146.72113	0.05263
2144.79236	0.05302
2142.86359	0.05418
2140.93482	0.05546
2139.00605	0.05608
2137.07728	0.05582
2135.14851	0.05514
2133.21974	0.05499
2131.29097	0.05557
2129.3622	0.05629
2127.43343	0.05697
2125.50466	0.05761
2123.57589	0.05815
2121.64712	0.05891
2119.71835	0.05977
2117.78958	0.06029
2115.86081	0.06048
2113.93204	0.06057
2112.00327	0.06058
2110.0745	0.06043
2108.14573	0.05997
2106.21696	0.05949
2104.28819	0.05936
2102.35942	0.0592
2100.43065	0.0586
2098.50188	0.05757
2096.57311	0.05632
2094.64434	0.05559
2092.71557	0.05596
2090.7868	0.05702
2088.85803	0.05773
2086.92926	0.05757
2085.00049	0.05712
2083.07172	0.05686
2081.14295	0.05688
2079.21418	0.05705
2077.28541	0.05704
2075.35664	0.05676
2073.42787	0.05643
2071.4991	0.05612
2069.57033	0.05559
2067.64156	0.05501
2065.71279	0.05475
2063.78402	0.05467
2061.85525	0.05446
2059.92648	0.05441
2057.99771	0.0544
2056.06894	0.05424
2054.14017	0.05498
2052.2114	0.05676
2050.28263	0.05742
2048.35386	0.0559
2046.42509	0.05366
2044.49632	0.05236
2042.56755	0.05217
2040.63878	0.05236
2038.71001	0.05203
2036.78124	0.05113
2034.85247	0.04996
2032.9237	0.04893
2030.99493	0.04855
2029.06616	0.04866
2027.13739	0.04836
2025.20862	0.04738
2023.27985	0.04708
2021.35108	0.04779
2019.42231	0.04845
2017.49354	0.04842
2015.56477	0.04784
2013.636	0.04773
2011.70723	0.04844
2009.77846	0.04891
2007.84969	0.04845
2005.92092	0.04825
2003.99215	0.04913
2002.06338	0.05027
2000.13461	0.05123
1998.20584	0.05204
1996.27707	0.05278
1994.3483	0.05356
1992.41953	0.0541
1990.49076	0.05402
1988.56199	0.05369
1986.63322	0.05336
1984.70445	0.0529
1982.77568	0.0524
1980.8469	0.05085
1978.91813	0.04679
1976.98936	0.04204
1975.06059	0.0397
1973.13182	0.04001
1971.20305	0.04089
1969.27428	0.04168
1967.34551	0.04278
1965.41674	0.04407
1963.48797	0.04492
1961.5592	0.04534
1959.63043	0.04582
1957.70166	0.04663
1955.77289	0.04784
1953.84412	0.04912
1951.91535	0.04986
1949.98658	0.05012
1948.05781	0.05026
1946.12904	0.05035
1944.20027	0.05058
1942.2715	0.05115
1940.34273	0.05173
1938.41396	0.05202
1936.48519	0.05223
1934.55642	0.05249
1932.62765	0.05278
1930.69888	0.05297
1928.77011	0.05304
1926.84134	0.05335
1924.91257	0.05418
1922.9838	0.05521
1921.05503	0.05558
1919.12626	0.05539
1917.19749	0.05548
1915.26872	0.05575
1913.33995	0.05583
1911.41118	0.05602
1909.48241	0.05619
1907.55364	0.05578
1905.62487	0.05482
1903.6961	0.05397
1901.76733	0.05369
1899.83856	0.054
1897.90979	0.05466
1895.98102	0.05512
1894.05225	0.05504
1892.12348	0.05475
1890.19471	0.05487
1888.26594	0.0552
1886.33717	0.05514
1884.4084	0.05469
1882.47963	0.0541
1880.55086	0.05352
1878.62209	0.05307
1876.69332	0.05288
1874.76455	0.05292
1872.83578	0.05316
1870.90701	0.05352
1868.97824	0.05411
1867.04947	0.05457
1865.1207	0.05453
1863.19193	0.05415
1861.26316	0.05394
1859.33439	0.05391
1857.40562	0.05375
1855.47685	0.05356
1853.54808	0.05363
1851.61931	0.05419
1849.69054	0.05522
1847.76177	0.0565
1845.833	0.05778
1843.90423	0.05882
1841.97546	0.05896
1840.04669	0.0584
1838.11792	0.05834
1836.18915	0.059
1834.26038	0.05968
1832.33161	0.06025
1830.40284	0.06145
1828.47407	0.06328
1826.5453	0.06496
1824.61653	0.06641
1822.68776	0.0673
1820.75899	0.06754
1818.83022	0.06787
1816.90145	0.06878
1814.97268	0.07041
1813.04391	0.07293
1811.11514	0.07655
1809.18636	0.08061
1807.25759	0.0845
1805.32882	0.08862
1803.40005	0.09395
1801.47128	0.10094
1799.54251	0.10895
1797.61374	0.11699
1795.68497	0.1256
1793.7562	0.13858
1791.82743	0.15898
1789.89866	0.18337
1787.96989	0.2111
1786.04112	0.25036
1784.11235	0.30825
1782.18358	0.39082
1780.25481	0.50494
1778.32604	0.64256
1776.39727	0.78592
1774.4685	0.91782
1772.53973	1
1770.61096	0.98437
1768.68219	0.88317
1766.75342	0.7576
1764.82465	0.65108
1762.89588	0.5657
1760.96711	0.496
1759.03834	0.44606
1757.10957	0.4155
1755.1808	0.40633
1753.25203	0.42929
1751.32326	0.48919
1749.39449	0.55525
1747.46572	0.58087
1745.53695	0.56658
1743.60818	0.54086
1741.67941	0.52895
1739.75064	0.54598
1737.82187	0.57911
1735.8931	0.5932
1733.96433	0.5615
1732.03556	0.49098
1730.10679	0.41292
1728.17802	0.3454
1726.24925	0.294
1724.32048	0.25626
1722.39171	0.22866
1720.46294	0.20831
1718.53417	0.19073
1716.6054	0.17411
1714.67663	0.16041
1712.74786	0.14972
1710.81909	0.14084
1708.89032	0.13363
1706.96155	0.12858
1705.03278	0.12564
1703.10401	0.12337
1701.17524	0.12127
1699.24647	0.11994
1697.3177	0.11921
1695.38893	0.11838
1693.46016	0.11755
1691.53139	0.11754
1689.60262	0.11875
1687.67385	0.12204
1685.74508	0.13567
1683.81631	0.16867
1681.88754	0.20452
1679.95877	0.2223
1678.03	0.21886
1676.10123	0.1999
1674.17246	0.17905
1672.24369	0.17032
1670.31492	0.17828
1668.38615	0.19904
1666.45738	0.22786
1664.52861	0.2824
1662.59984	0.38902
1660.67107	0.53312
1658.7423	0.67138
1656.81353	0.77291
1654.88476	0.7925
1652.95599	0.69669
1651.02722	0.57142
1649.09845	0.47941
1647.16968	0.39609
1645.24091	0.32869
1643.31214	0.295
1641.38337	0.28041
1639.4546	0.27268
1637.52583	0.2758
1635.59705	0.29886
1633.66828	0.33715
1631.73951	0.38811
1629.81074	0.47101
1627.88197	0.59186
1625.9532	0.70774
1624.02443	0.76089
1622.09566	0.73132
1620.16689	0.64567
1618.23812	0.53028
1616.30935	0.4075
1614.38058	0.31897
1612.45181	0.27025
1610.52304	0.23877
1608.59427	0.21399
1606.6655	0.19553
1604.73673	0.1825
1602.80796	0.1734
1600.87919	0.16793
1598.95042	0.16675
1597.02165	0.17143
1595.09288	0.18414
1593.16411	0.20373
1591.23534	0.22237
1589.30657	0.22874
1587.3778	0.2186
1585.44903	0.20068
1583.52026	0.1878
1581.59149	0.18509
1579.66272	0.1923
1577.73395	0.21433
1575.80518	0.25468
1573.87641	0.29803
1571.94764	0.3402
1570.01887	0.39468
1568.0901	0.45051
1566.16133	0.48286
1564.23256	0.49276
1562.30379	0.48798
1560.37502	0.46251
1558.44625	0.41268
1556.51748	0.36702
1554.58871	0.34013
1552.65994	0.32892
1550.73117	0.33132
1548.8024	0.33692
1546.87363	0.33045
1544.94486	0.30635
1543.01609	0.26906
1541.08732	0.22747
1539.15855	0.19413
1537.22978	0.17636
1535.30101	0.16552
1533.37224	0.15453
1531.44347	0.14441
1529.5147	0.1366
1527.58593	0.12993
1525.65716	0.12359
1523.72839	0.11759
1521.79962	0.11254
1519.87085	0.10878
1517.94208	0.10581
1516.01331	0.10304
1514.08454	0.10023
1512.15577	0.09776
1510.227	0.09569
1508.29823	0.09371
1506.36946	0.09179
1504.44069	0.09022
1502.51192	0.08874
1500.58315	0.08759
1498.65438	0.0876
1496.72561	0.08913
1494.79684	0.09076
1492.86807	0.09246
1490.9393	0.09772
1489.01053	0.10953
1487.08176	0.12567
1485.15299	0.14292
1483.22422	0.1592
1481.29545	0.17002
1479.36668	0.17033
1477.43791	0.16146
1475.50914	0.15069
1473.58037	0.14633
1471.6516	0.15082
1469.72283	0.15881
1467.79406	0.16799
1465.86529	0.18124
1463.93651	0.19762
1462.00774	0.21028
1460.07897	0.2168
1458.1502	0.21893
1456.22143	0.21725
1454.29266	0.21332
1452.36389	0.20998
1450.43512	0.20853
1448.50635	0.20899
1446.57758	0.21057
1444.64881	0.21257
1442.72004	0.2144
1440.79127	0.21496
1438.8625	0.21291
1436.93373	0.20729
1435.00496	0.19851
1433.07619	0.18844
1431.14742	0.17865
1429.21865	0.17054
1427.28988	0.16526
1425.36111	0.16289
1423.43234	0.16321
1421.50357	0.16729
1419.5748	0.17777
1417.64603	0.19186
1415.71726	0.20209
1413.78849	0.20779
1411.85972	0.21058
1409.93095	0.20918
1408.00218	0.20455
1406.07341	0.20226
1404.14464	0.20719
1402.21587	0.22012
1400.2871	0.24063
1398.35833	0.26699
1396.42956	0.29483
1394.50079	0.31804
1392.57202	0.32841
1390.64325	0.32445
1388.71448	0.31354
1386.78571	0.30312
1384.85694	0.29536
1382.92817	0.28907
1380.9994	0.28419
1379.07063	0.28028
1377.14186	0.27428
1375.21309	0.26531
1373.28432	0.25698
1371.35555	0.25009
1369.42678	0.24007
1367.49801	0.2256
1365.56924	0.21029
1363.64047	0.19587
1361.7117	0.1817
1359.78293	0.16878
1357.85416	0.15839
1355.92539	0.15065
1353.99662	0.1452
1352.06785	0.14156
1350.13908	0.13932
1348.21031	0.13844
1346.28154	0.13893
1344.35277	0.14098
1342.424	0.14496
1340.49523	0.15077
1338.56646	0.15637
1336.63769	0.15974
1334.70892	0.16176
1332.78015	0.16481
1330.85138	0.17078
1328.92261	0.18138
1326.99384	0.19863
1325.06507	0.2247
1323.1363	0.25939
1321.20753	0.29679
1319.27876	0.32385
1317.34999	0.32709
1315.42122	0.30523
1313.49245	0.2696
1311.56368	0.23367
1309.63491	0.20487
1307.70614	0.18397
1305.77737	0.16928
1303.8486	0.15924
1301.91983	0.1525
1299.99106	0.14812
1298.06229	0.1455
1296.13352	0.1441
1294.20475	0.14339
1292.27597	0.14274
1290.3472	0.14181
1288.41843	0.14145
1286.48966	0.14365
1284.56089	0.15074
1282.63212	0.16382
1280.70335	0.18038
1278.77458	0.19413
1276.84581	0.19931
1274.91704	0.1956
1272.98827	0.18754
1271.0595	0.1808
1269.13073	0.18044
1267.20196	0.1888
1265.27319	0.2029
1263.34442	0.21488
1261.41565	0.21691
1259.48688	0.20724
1257.55811	0.19151
1255.62934	0.17702
1253.70057	0.16677
1251.7718	0.15916
1249.84303	0.15115
1247.91426	0.1416
1245.98549	0.13245
1244.05672	0.12616
1242.12795	0.12267
1240.19918	0.1207
1238.27041	0.12134
1236.34164	0.12671
1234.41287	0.13691
1232.4841	0.15186
1230.55533	0.17373
1228.62656	0.20474
1226.69779	0.24184
1224.76902	0.27183
1222.84025	0.27734
1220.91148	0.25343
1218.98271	0.21298
1217.05394	0.17301
1215.12517	0.1424
1213.1964	0.1218
1211.26763	0.1089
1209.33886	0.10109
1207.41009	0.09586
1205.48132	0.09143
1203.55255	0.08752
1201.62378	0.08488
1199.69501	0.08439
1197.76624	0.08709
1195.83747	0.09346
1193.9087	0.10259
1191.97993	0.11264
1190.05116	0.12369
1188.12239	0.13744
1186.19362	0.15449
1184.26485	0.17355
1182.33608	0.19038
1180.40731	0.1984
1178.47854	0.19511
1176.54977	0.18405
1174.621	0.17114
1172.69223	0.16368
1170.76346	0.16844
1168.83469	0.18743
1166.90592	0.2141
1164.97715	0.23575
1163.04838	0.24582
1161.11961	0.25214
1159.19084	0.26676
1157.26207	0.29122
1155.3333	0.31692
1153.40453	0.33938
1151.47576	0.36145
1149.54699	0.37247
1147.61822	0.35093
1145.68945	0.30156
1143.76068	0.25359
1141.83191	0.22546
1139.90314	0.21989
1137.97437	0.23717
1136.0456	0.27956
1134.11683	0.34643
1132.18806	0.42556
1130.25929	0.49005
1128.33052	0.51245
1126.40175	0.4874
1124.47298	0.43448
1122.54421	0.37859
1120.61544	0.33583
1118.68666	0.31362
1116.75789	0.3139
1114.82912	0.33153
1112.90035	0.35102
1110.97158	0.35389
1109.04281	0.33478
1107.11404	0.30424
1105.18527	0.27509
1103.2565	0.25256
1101.32773	0.23553
1099.39896	0.22124
1097.47019	0.20831
1095.54142	0.19717
1093.61265	0.18974
1091.68388	0.18854
1089.75511	0.19454
1087.82634	0.2068
1085.89757	0.2239
1083.9688	0.24331
1082.04003	0.26079
1080.11126	0.27228
1078.18249	0.27602
1076.25372	0.2726
1074.32495	0.26363
1072.39618	0.25145
1070.46741	0.24113
1068.53864	0.23824
1066.60987	0.2418
1064.6811	0.24656
1062.75233	0.25341
1060.82356	0.26738
1058.89479	0.28836
1056.96602	0.31155
1055.03725	0.33513
1053.10848	0.36242
1051.17971	0.39733
1049.25094	0.44148
1047.32217	0.48906
1045.3934	0.52763
1043.46463	0.55765
1041.53586	0.59852
1039.60709	0.66011
1037.67832	0.72378
1035.74955	0.76426
1033.82078	0.77855
1031.89201	0.77564
1029.96324	0.75645
1028.03447	0.72001
1026.1057	0.67342
1024.17693	0.62731
1022.24816	0.58672
1020.31939	0.55057
1018.39062	0.51837
1016.46185	0.49235
1014.53308	0.47384
1012.60431	0.46086
1010.67554	0.44895
1008.74677	0.43439
1006.818	0.41677
1004.88923	0.3987
1002.96046	0.38371
1001.03169	0.37496
999.10292	0.37473
997.17415	0.38577
995.24538	0.41268
993.31661	0.46029
991.38784	0.52657
989.45907	0.59516
987.5303	0.63835
985.60153	0.63568
983.67276	0.58947
981.74399	0.51894
979.81522	0.44375
977.88645	0.37543
975.95768	0.31829
974.02891	0.27313
972.10014	0.24038
970.17137	0.22229
968.2426	0.22235
966.31383	0.23824
964.38506	0.25318
962.45629	0.24803
960.52752	0.22544
958.59875	0.20494
956.66998	0.19733
954.74121	0.19834
952.81244	0.20163
950.88367	0.20738
948.9549	0.21688
947.02612	0.2277
945.09735	0.23512
943.16858	0.23367
941.23981	0.22129
939.31104	0.20191
937.38227	0.18076
935.4535	0.16093
933.52473	0.1446
931.59596	0.13383
929.66719	0.129
927.73842	0.12678
925.80965	0.12166
923.88088	0.11092
921.95211	0.09722
920.02334	0.08472
918.09457	0.07522
916.1658	0.0683
914.23703	0.0633
912.30826	0.05969
910.37949	0.05695
908.45072	0.05443
906.52195	0.05181
904.59318	0.04899
902.66441	0.04627
900.73564	0.04408
898.80687	0.04258
896.8781	0.04171
894.94933	0.0415
893.02056	0.04203
891.09179	0.04261
889.16302	0.04318
887.23425	0.0452
885.30548	0.05055
883.37671	0.0596
881.44794	0.06867
879.51917	0.07079
877.5904	0.06422
875.66163	0.05556
873.73286	0.05109
871.80409	0.05157
869.87532	0.05548
867.94655	0.06212
866.01778	0.07214
864.08901	0.08866
862.16024	0.11522
860.23147	0.14712
858.3027	0.16631
856.37393	0.15837
854.44516	0.13202
852.51639	0.10612
850.58762	0.08924
848.65885	0.0805
846.73008	0.07736
844.80131	0.07647
842.87254	0.07377
840.94377	0.06794
839.015	0.06119
837.08623	0.05579
835.15746	0.05224
833.22869	0.05014
831.29992	0.04905
829.37115	0.04861
827.44238	0.04865
825.51361	0.04913
823.58484	0.0501
821.65607	0.0516
819.7273	0.05379
817.79853	0.05715
815.86976	0.06186
813.94099	0.06738
812.01222	0.07335
810.08345	0.08068
808.15468	0.09132
806.22591	0.10491
804.29714	0.1156
802.36837	0.1165
800.4396	0.10856
798.51083	0.09884
796.58206	0.09231
794.65329	0.08926
792.72452	0.08699
790.79575	0.08327
788.86698	0.07866
786.93821	0.07471
785.00944	0.07221
783.08067	0.07155
781.1519	0.07357
779.22313	0.08038
777.29436	0.09497
775.36558	0.11659
773.43681	0.1346
771.50804	0.13608
769.57927	0.12208
767.6505	0.10542
765.72173	0.09551
763.79296	0.09388
761.86419	0.10017
759.93542	0.11499
758.00665	0.1366
756.07788	0.15695
754.14911	0.16386
752.22034	0.15322
750.29157	0.13591
748.3628	0.1242
746.43403	0.11956
744.50526	0.11736
742.57649	0.11381
740.64772	0.10756
738.71895	0.10109
736.79018	0.1002
734.86141	0.10788
732.93264	0.1177
731.00387	0.11895
729.0751	0.10952
727.14633	0.09651
725.21756	0.08621
723.28879	0.08105
721.36002	0.07793
719.43125	0.07707
717.50248	0.07839
715.57371	0.08071
713.64494	0.08325
711.71617	0.08604
709.7874	0.08958
707.85863	0.09416
705.92986	0.10012
704.00109	0.10758
702.07232	0.11527
700.14355	0.11979
698.21478	0.11856
696.28601	0.11263
694.35724	0.10534
692.42847	0.09886
690.4997	0.09363
688.57093	0.08954
686.64216	0.08647
684.71339	0.08414
682.78462	0.08226
680.85585	0.08085
678.92708	0.08004
676.99831	0.08002
675.06954	0.08043
673.14077	0.07907
671.212	0.07754
669.28323	0.08909
667.35446	0.11001
665.42569	0.11911
663.49692	0.12337
661.56815	0.11833
659.63938	0.10615
657.71061	0.09381
655.78184	0.08478
653.85307	0.07865
651.9243	0.07419
649.99553	0.07054
648.06676	0.06742
646.13799	0.0647
644.20922	0.06224
642.28045	0.06002
640.35168	0.05824
638.42291	0.05757
636.49414	0.05922
634.56537	0.06385
632.6366	0.06982
630.70783	0.07355
628.77906	0.07286
626.85029	0.06842
624.92152	0.06354
622.99275	0.06022
621.06398	0.0595
619.13521	0.06152
617.20644	0.06503
615.27767	0.06877
613.3489	0.07272
611.42013	0.07651
609.49136	0.07887
607.56259	0.07988
605.63382	0.0816
603.70505	0.08575
601.77627	0.09048
599.8475	0.09116
597.91873	0.08627
595.98996	0.07957
594.06119	0.07514
592.13242	0.0743
590.20365	0.07622
588.27488	0.07963
586.34611	0.08443
584.41734	0.09137
582.48857	0.1
580.5598	0.10778
578.63103	0.11181
576.70226	0.11207
574.77349	0.11053
572.84472	0.10855
570.91595	0.10603
568.98718	0.10196
567.05841	0.09534
565.12964	0.0865
563.20087	0.07732
561.2721	0.0696
559.34333	0.06417
557.41456	0.06112
555.48579	0.06039
553.55702	0.06208
551.62825	0.06674
549.69948	0.07415
547.77071	0.08265
545.84194	0.09036
543.91317	0.09685
541.9844	0.10237
540.05563	0.10541
538.12686	0.10343
536.19809	0.09683
534.26932	0.08941
532.34055	0.08415
530.41178	0.0813
528.48301	0.08042
526.55424	0.08166
524.62547	0.08455
522.6967	0.08652
520.76793	0.08467
518.83916	0.07792
516.91039	0.06854
514.98162	0.06035
513.05285	0.05504
511.12408	0.05219
509.19531	0.05131
507.26654	0.05206
505.33777	0.05376
503.409	0.05483
501.48023	0.05365
499.55146	0.05003
497.62269	0.04557
495.69392	0.04187
493.76515	0.0395
491.83638	0.03814
489.90761	0.03752
487.97884	0.03736
486.05007	0.03747
484.1213	0.0378
482.19253	0.0384
480.26376	0.0392
478.33499	0.03986
476.40622	0.04009
474.47745	0.0399
472.54868	0.03953
470.61991	0.03889
468.69114	0.03768
466.76237	0.03585
464.8336	0.0339
462.90483	0.03219
460.97606	0.03054
459.04729	0.02873
457.11852	0.02702
455.18975	0.02567
453.26098	0.02426
451.33221	0.02238
449.40344	0.02005
447.47467	0.01772
445.5459	0.01567
443.61713	0.01377
441.68836	0.01189
439.75959	0.0102
437.83082	0.0088
435.90205	0.00726
433.97328	0.00528
432.04451	0.00311
430.11573	0.0012
428.18696	4.19791E-5
426.25819	0
424.32942	0.00118
422.40065	0.00391
420.47188	0.00906
418.54311	0.0156
416.61434	0.01919
414.68557	0.01959
412.7568	0.0203
410.82803	0.02343
408.89926	0.02853
406.97049	0.03398
405.04172	0.03824
403.11295	0.04055
401.18418	0.04138
399.25541	0.04176