3996.41167	0.02485
3994.4829	0.02489
3992.55413	0.02493
3990.62536	0.02498
3988.69659	0.02502
3986.76782	0.02505
3984.83905	0.02509
3982.91028	0.02512
3980.98151	0.02516
3979.05274	0.02519
3977.12397	0.02521
3975.1952	0.02524
3973.26643	0.02526
3971.33766	0.02537
3969.40889	0.02542
3967.48012	0.0254
3965.55135	0.02534
3963.62258	0.02529
3961.69381	0.02533
3959.76504	0.02544
3957.83627	0.02556
3955.9075	0.02563
3953.97873	0.02563
3952.04996	0.02568
3950.12119	0.02577
3948.19242	0.02586
3946.26365	0.02591
3944.33488	0.02597
3942.40611	0.026
3940.47734	0.02591
3938.54857	0.02575
3936.6198	0.02564
3934.69103	0.02561
3932.76226	0.0257
3930.83349	0.02589
3928.90472	0.02607
3926.97595	0.02602
3925.04718	0.02572
3923.11841	0.02532
3921.18964	0.025
3919.26087	0.02489
3917.3321	0.02498
3915.40333	0.02505
3913.47456	0.02505
3911.54579	0.02505
3909.61702	0.02501
3907.68825	0.02487
3905.75948	0.02467
3903.83071	0.02439
3901.90194	0.02411
3899.97317	0.02403
3898.0444	0.02418
3896.11563	0.02432
3894.18686	0.0243
3892.25809	0.02418
3890.32932	0.02411
3888.40055	0.02413
3886.47178	0.02414
3884.54301	0.02417
3882.61424	0.02423
3880.68547	0.02431
3878.7567	0.02437
3876.82792	0.02429
3874.89915	0.02414
3872.97038	0.0242
3871.04161	0.02447
3869.11284	0.02479
3867.18407	0.02512
3865.2553	0.02542
3863.32653	0.02556
3861.39776	0.0255
3859.46899	0.02541
3857.54022	0.0254
3855.61145	0.02548
3853.68268	0.02558
3851.75391	0.02549
3849.82514	0.02512
3847.89637	0.02465
3845.9676	0.02428
3844.03883	0.02402
3842.11006	0.02377
3840.18129	0.0235
3838.25252	0.02331
3836.32375	0.0233
3834.39498	0.02341
3832.46621	0.02337
3830.53744	0.02308
3828.60867	0.02286
3826.6799	0.02304
3824.75113	0.02334
3822.82236	0.02349
3820.89359	0.02354
3818.96482	0.02359
3817.03605	0.02368
3815.10728	0.02381
3813.17851	0.02397
3811.24974	0.02414
3809.32097	0.02422
3807.3922	0.02417
3805.46343	0.02406
3803.53466	0.02391
3801.60589	0.02376
3799.67712	0.02358
3797.74835	0.02336
3795.81958	0.02318
3793.89081	0.02301
3791.96204	0.02278
3790.03327	0.02254
3788.1045	0.0223
3786.17573	0.02203
3784.24696	0.02175
3782.31819	0.02149
3780.38942	0.0213
3778.46065	0.02118
3776.53188	0.02111
3774.60311	0.02092
3772.67434	0.02055
3770.74557	0.02023
3768.8168	0.01999
3766.88803	0.01981
3764.95926	0.01995
3763.03049	0.02024
3761.10172	0.02057
3759.17295	0.02096
3757.24418	0.021
3755.31541	0.02095
3753.38664	0.0212
3751.45787	0.02164
3749.5291	0.02201
3747.60033	0.02181
3745.67156	0.02127
3743.74279	0.02041
3741.81402	0.01953
3739.88525	0.01847
3737.95648	0.01725
3736.02771	0.01675
3734.09894	0.0165
3732.17017	0.01654
3730.2414	0.01638
3728.31263	0.01597
3726.38386	0.01543
3724.45509	0.01481
3722.52632	0.01417
3720.59755	0.01373
3718.66878	0.01354
3716.74001	0.01356
3714.81124	0.0133
3712.88247	0.01277
3710.9537	0.01206
3709.02493	0.01213
3707.09616	0.01282
3705.16739	0.01366
3703.23861	0.01438
3701.30984	0.01484
3699.38107	0.01514
3697.4523	0.01513
3695.52353	0.01528
3693.59476	0.01552
3691.66599	0.01616
3689.73722	0.01753
3687.80845	0.01879
3685.87968	0.02021
3683.95091	0.02138
3682.02214	0.02233
3680.09337	0.0229
3678.1646	0.02322
3676.23583	0.02371
3674.30706	0.02428
3672.37829	0.02459
3670.44952	0.02476
3668.52075	0.02493
3666.59198	0.02569
3664.66321	0.02707
3662.73444	0.0291
3660.80567	0.03135
3658.8769	0.0337
3656.94813	0.03611
3655.01936	0.03831
3653.09059	0.0399
3651.16182	0.04116
3649.23305	0.04265
3647.30428	0.04401
3645.37551	0.04537
3643.44674	0.04698
3641.51797	0.04834
3639.5892	0.04963
3637.66043	0.05073
3635.73166	0.05172
3633.80289	0.05326
3631.87412	0.05512
3629.94535	0.0569
3628.01658	0.05868
3626.08781	0.06044
3624.15904	0.06238
3622.23027	0.06461
3620.3015	0.06715
3618.37273	0.06953
3616.44396	0.07204
3614.51519	0.07444
3612.58642	0.07696
3610.65765	0.07921
3608.72888	0.08107
3606.80011	0.0829
3604.87134	0.08502
3602.94257	0.08738
3601.0138	0.08948
3599.08503	0.09147
3597.15626	0.09332
3595.22749	0.09503
3593.29872	0.09719
3591.36995	0.09939
3589.44118	0.10152
3587.51241	0.10389
3585.58364	0.10613
3583.65487	0.10833
3581.7261	0.1107
3579.79733	0.11298
3577.86856	0.11506
3575.93979	0.11702
3574.01102	0.11907
3572.08225	0.12096
3570.15348	0.12286
3568.22471	0.12444
3566.29594	0.12615
3564.36717	0.12785
3562.4384	0.1299
3560.50963	0.13222
3558.58086	0.13455
3556.65209	0.13683
3554.72332	0.13911
3552.79455	0.14137
3550.86578	0.14357
3548.93701	0.14572
3547.00824	0.1477
3545.07947	0.14943
3543.1507	0.15117
3541.22193	0.15329
3539.29316	0.15578
3537.36439	0.15837
3535.43562	0.16093
3533.50685	0.1634
3531.57807	0.16576
3529.6493	0.1681
3527.72053	0.17051
3525.79176	0.17294
3523.86299	0.17537
3521.93422	0.17798
3520.00545	0.18094
3518.07668	0.18414
3516.14791	0.1874
3514.21914	0.19063
3512.29037	0.19384
3510.3616	0.19703
3508.43283	0.2002
3506.50406	0.20326
3504.57529	0.20621
3502.64652	0.20918
3500.71775	0.2123
3498.78898	0.21548
3496.86021	0.21857
3494.93144	0.22157
3493.00267	0.22452
3491.0739	0.22745
3489.14513	0.23038
3487.21636	0.23327
3485.28759	0.23613
3483.35882	0.23896
3481.43005	0.24177
3479.50128	0.24463
3477.57251	0.24759
3475.64374	0.2506
3473.71497	0.25354
3471.7862	0.25636
3469.85743	0.25903
3467.92866	0.26161
3465.99989	0.26413
3464.07112	0.26662
3462.14235	0.26912
3460.21358	0.27163
3458.28481	0.27413
3456.35604	0.27667
3454.42727	0.27921
3452.4985	0.28172
3450.56973	0.28428
3448.64096	0.28696
3446.71219	0.28972
3444.78342	0.29243
3442.85465	0.29506
3440.92588	0.29762
3438.99711	0.3001
3437.06834	0.30247
3435.13957	0.30471
3433.2108	0.30675
3431.28203	0.30854
3429.35326	0.31014
3427.42449	0.31152
3425.49572	0.31263
3423.56695	0.31358
3421.63818	0.31447
3419.70941	0.31523
3417.78064	0.31582
3415.85187	0.31636
3413.9231	0.31687
3411.99433	0.31737
3410.06556	0.3178
3408.13679	0.31809
3406.20802	0.31824
3404.27925	0.31825
3402.35048	0.3181
3400.42171	0.31777
3398.49294	0.31726
3396.56417	0.31658
3394.6354	0.31581
3392.70663	0.31493
3390.77786	0.31392
3388.84909	0.31278
3386.92032	0.31156
3384.99155	0.31031
3383.06278	0.309
3381.13401	0.30755
3379.20524	0.30591
3377.27647	0.30407
3375.3477	0.30203
3373.41893	0.2999
3371.49016	0.29772
3369.56139	0.29545
3367.63262	0.29307
3365.70385	0.29053
3363.77508	0.28775
3361.84631	0.28468
3359.91753	0.28144
3357.98876	0.27805
3356.05999	0.27447
3354.13122	0.27067
3352.20245	0.26664
3350.27368	0.26239
3348.34491	0.25798
3346.41614	0.25353
3344.48737	0.24911
3342.5586	0.24472
3340.62983	0.24034
3338.70106	0.23596
3336.77229	0.23155
3334.84352	0.22705
3332.91475	0.22242
3330.98598	0.21781
3329.05721	0.21344
3327.12844	0.20944
3325.19967	0.20576
3323.2709	0.20224
3321.34213	0.19879
3319.41336	0.1954
3317.48459	0.19205
3315.55582	0.18878
3313.62705	0.18565
3311.69828	0.18257
3309.76951	0.17947
3307.84074	0.1763
3305.91197	0.17304
3303.9832	0.16966
3302.05443	0.16623
3300.12566	0.16278
3298.19689	0.1593
3296.26812	0.15573
3294.33935	0.15207
3292.41058	0.14838
3290.48181	0.1446
3288.55304	0.14066
3286.62427	0.13665
3284.6955	0.13271
3282.76673	0.1289
3280.83796	0.12517
3278.90919	0.12142
3276.98042	0.11761
3275.05165	0.11375
3273.12288	0.1099
3271.19411	0.10613
3269.26534	0.10249
3267.33657	0.09896
3265.4078	0.09549
3263.47903	0.0921
3261.55026	0.08872
3259.62149	0.08531
3257.69272	0.08188
3255.76395	0.07854
3253.83518	0.07535
3251.90641	0.07232
3249.97764	0.06944
3248.04887	0.06669
3246.1201	0.06402
3244.19133	0.06138
3242.26256	0.05875
3240.33379	0.05621
3238.40502	0.05381
3236.47625	0.05159
3234.54748	0.04959
3232.61871	0.04779
3230.68994	0.04618
3228.76117	0.04473
3226.8324	0.04342
3224.90363	0.04226
3222.97486	0.04126
3221.04609	0.04042
3219.11732	0.03972
3217.18855	0.03906
3215.25978	0.03831
3213.33101	0.0375
3211.40224	0.03677
3209.47347	0.03611
3207.5447	0.03543
3205.61593	0.03467
3203.68716	0.03385
3201.75839	0.03296
3199.82962	0.03196
3197.90085	0.03084
3195.97208	0.02963
3194.04331	0.02837
3192.11454	0.0271
3190.18577	0.02583
3188.257	0.02454
3186.32822	0.02322
3184.39945	0.0219
3182.47068	0.02059
3180.54191	0.01925
3178.61314	0.01791
3176.68437	0.0166
3174.7556	0.01541
3172.82683	0.01436
3170.89806	0.01343
3168.96929	0.01257
3167.04052	0.01179
3165.11175	0.0111
3163.18298	0.01052
3161.25421	0.01007
3159.32544	0.00981
3157.39667	0.00967
3155.4679	0.00949
3153.53913	0.00928
3151.61036	0.00912
3149.68159	0.00904
3147.75282	0.00897
3145.82405	0.00885
3143.89528	0.0087
3141.96651	0.00856
3140.03774	0.00846
3138.10897	0.00846
3136.1802	0.00856
3134.25143	0.00872
3132.32266	0.00891
3130.39389	0.00915
3128.46512	0.00948
3126.53635	0.0098
3124.60758	0.01
3122.67881	0.01008
3120.75004	0.01011
3118.82127	0.01019
3116.8925	0.01031
3114.96373	0.01045
3113.03496	0.01052
3111.10619	0.01049
3109.17742	0.01041
3107.24865	0.0104
3105.31988	0.01049
3103.39111	0.01059
3101.46234	0.01069
3099.53357	0.01086
3097.6048	0.01117
3095.67603	0.01166
3093.74726	0.01234
3091.81849	0.0132
3089.88972	0.01418
3087.96095	0.01523
3086.03218	0.01633
3084.10341	0.01747
3082.17464	0.01859
3080.24587	0.01963
3078.3171	0.02065
3076.38833	0.02176
3074.45956	0.02299
3072.53079	0.02425
3070.60202	0.0255
3068.67325	0.02671
3066.74448	0.02794
3064.81571	0.02922
3062.88694	0.03059
3060.95817	0.032
3059.0294	0.03335
3057.10063	0.03459
3055.17186	0.03581
3053.24309	0.03706
3051.31432	0.03833
3049.38555	0.03959
3047.45678	0.0408
3045.52801	0.04195
3043.59924	0.04304
3041.67047	0.04409
3039.7417	0.0451
3037.81293	0.04609
3035.88416	0.04707
3033.95539	0.0481
3032.02662	0.04929
3030.09785	0.05069
3028.16908	0.05226
3026.24031	0.05389
3024.31154	0.05566
3022.38277	0.05766
3020.454	0.05995
3018.52523	0.06249
3016.59646	0.06531
3014.66768	0.06845
3012.73891	0.0719
3010.81014	0.07564
3008.88137	0.07963
3006.9526	0.08379
3005.02383	0.08799
3003.09506	0.09218
3001.16629	0.0963
2999.23752	0.10027
2997.30875	0.10403
2995.37998	0.10755
2993.45121	0.11079
2991.52244	0.11371
2989.59367	0.11628
2987.6649	0.11853
2985.73613	0.12049
2983.80736	0.1222
2981.87859	0.1237
2979.94982	0.1251
2978.02105	0.12652
2976.09228	0.12805
2974.16351	0.12979
2972.23474	0.13191
2970.30597	0.13465
2968.3772	0.13822
2966.44843	0.14273
2964.51966	0.14821
2962.59089	0.15472
2960.66212	0.16223
2958.73335	0.17063
2956.80458	0.17978
2954.87581	0.1894
2952.94704	0.19924
2951.01827	0.20904
2949.0895	0.21855
2947.16073	0.22749
2945.23196	0.23562
2943.30319	0.24276
2941.37442	0.24873
2939.44565	0.25347
2937.51688	0.25696
2935.58811	0.25916
2933.65934	0.26007
2931.73057	0.25966
2929.8018	0.25802
2927.87303	0.25536
2925.94426	0.252
2924.01549	0.24821
2922.08672	0.24421
2920.15795	0.24023
2918.22918	0.23654
2916.30041	0.23325
2914.37164	0.23035
2912.44287	0.22779
2910.5141	0.22551
2908.58533	0.2234
2906.65656	0.22135
2904.72779	0.21925
2902.79902	0.21697
2900.87025	0.21442
2898.94148	0.21152
2897.01271	0.20826
2895.08394	0.20463
2893.15517	0.20062
2891.2264	0.19614
2889.29763	0.19121
2887.36886	0.18579
2885.44009	0.17984
2883.51132	0.17341
2881.58255	0.16668
2879.65378	0.15984
2877.72501	0.15297
2875.79624	0.14623
2873.86747	0.13986
2871.9387	0.13408
2870.00993	0.12897
2868.08116	0.12466
2866.15239	0.12128
2864.22362	0.11898
2862.29485	0.11787
2860.36608	0.118
2858.43731	0.11942
2856.50854	0.12208
2854.57977	0.12584
2852.651	0.13046
2850.72223	0.1357
2848.79346	0.14123
2846.86469	0.14674
2844.93592	0.15202
2843.00714	0.15689
2841.07837	0.16116
2839.1496	0.16466
2837.22083	0.16727
2835.29206	0.16894
2833.36329	0.16964
2831.43452	0.16932
2829.50575	0.16792
2827.57698	0.16543
2825.64821	0.16192
2823.71944	0.15749
2821.79067	0.15231
2819.8619	0.1466
2817.93313	0.14061
2816.00436	0.13446
2814.07559	0.12827
2812.14682	0.1222
2810.21805	0.11636
2808.28928	0.11072
2806.36051	0.10524
2804.43174	0.09993
2802.50297	0.09489
2800.5742	0.09017
2798.64543	0.08589
2796.71666	0.08211
2794.78789	0.07889
2792.85912	0.0762
2790.93035	0.07404
2789.00158	0.07238
2787.07281	0.0712
2785.14404	0.07036
2783.21527	0.06967
2781.2865	0.06907
2779.35773	0.06853
2777.42896	0.06803
2775.50019	0.06757
2773.57142	0.06712
2771.64265	0.06667
2769.71388	0.06622
2767.78511	0.06585
2765.85634	0.06558
2763.92757	0.06533
2761.9988	0.06502
2760.07003	0.06465
2758.14126	0.06428
2756.21249	0.06392
2754.28372	0.06353
2752.35495	0.06309
2750.42618	0.06261
2748.49741	0.0621
2746.56864	0.06158
2744.63987	0.06105
2742.7111	0.06051
2740.78233	0.05996
2738.85356	0.05939
2736.92479	0.0588
2734.99602	0.05822
2733.06725	0.05769
2731.13848	0.0572
2729.20971	0.05674
2727.28094	0.05634
2725.35217	0.05604
2723.4234	0.05581
2721.49463	0.05559
2719.56586	0.05536
2717.63709	0.05514
2715.70832	0.05493
2713.77955	0.05475
2711.85078	0.05457
2709.92201	0.05438
2707.99324	0.0542
2706.06447	0.054
2704.1357	0.05381
2702.20693	0.05368
2700.27816	0.05365
2698.34939	0.05366
2696.42062	0.0537
2694.49185	0.05374
2692.56308	0.05377
2690.63431	0.05377
2688.70554	0.05372
2686.77677	0.05371
2684.848	0.05376
2682.91923	0.05382
2680.99046	0.05389
2679.06169	0.05392
2677.13292	0.05391
2675.20415	0.05388
2673.27538	0.05384
2671.34661	0.05378
2669.41783	0.05368
2667.48906	0.05352
2665.56029	0.05333
2663.63152	0.05315
2661.70275	0.05297
2659.77398	0.0528
2657.84521	0.05268
2655.91644	0.05261
2653.98767	0.05259
2652.0589	0.05257
2650.13013	0.05254
2648.20136	0.05249
2646.27259	0.05244
2644.34382	0.05235
2642.41505	0.05224
2640.48628	0.05213
2638.55751	0.05203
2636.62874	0.05192
2634.69997	0.05179
2632.7712	0.05165
2630.84243	0.05149
2628.91366	0.0513
2626.98489	0.05109
2625.05612	0.05085
2623.12735	0.05058
2621.19858	0.05031
2619.26981	0.05005
2617.34104	0.04979
2615.41227	0.04955
2613.4835	0.04931
2611.55473	0.04905
2609.62596	0.04877
2607.69719	0.04851
2605.76842	0.04829
2603.83965	0.04811
2601.91088	0.04797
2599.98211	0.04782
2598.05334	0.04768
2596.12457	0.04756
2594.1958	0.04747
2592.26703	0.04742
2590.33826	0.04742
2588.40949	0.0474
2586.48072	0.04735
2584.55195	0.0473
2582.62318	0.04723
2580.69441	0.04716
2578.76564	0.04706
2576.83687	0.04693
2574.9081	0.04678
2572.97933	0.04661
2571.05056	0.04642
2569.12179	0.04625
2567.19302	0.04609
2565.26425	0.04588
2563.33548	0.04561
2561.40671	0.04534
2559.47794	0.0451
2557.54917	0.04492
2555.6204	0.04476
2553.69163	0.0446
2551.76286	0.04442
2549.83409	0.04417
2547.90532	0.04391
2545.97655	0.04371
2544.04778	0.04356
2542.11901	0.04341
2540.19024	0.04328
2538.26147	0.04323
2536.3327	0.04323
2534.40393	0.04323
2532.47516	0.04325
2530.54639	0.0433
2528.61762	0.04336
2526.68885	0.04341
2524.76008	0.04348
2522.83131	0.04351
2520.90254	0.04347
2518.97377	0.04337
2517.045	0.04327
2515.11623	0.04321
2513.18746	0.04317
2511.25869	0.0431
2509.32992	0.04296
2507.40115	0.04273
2505.47238	0.04245
2503.54361	0.0422
2501.61484	0.04204
2499.68607	0.04191
2497.75729	0.04175
2495.82852	0.04155
2493.89975	0.04142
2491.97098	0.0414
2490.04221	0.0414
2488.11344	0.04137
2486.18467	0.04134
2484.2559	0.04134
2482.32713	0.04134
2480.39836	0.04137
2478.46959	0.04144
2476.54082	0.04151
2474.61205	0.04155
2472.68328	0.04162
2470.75451	0.04174
2468.82574	0.04188
2466.89697	0.042
2464.9682	0.04213
2463.03943	0.04226
2461.11066	0.0424
2459.18189	0.04251
2457.25312	0.04259
2455.32435	0.04261
2453.39558	0.04252
2451.46681	0.04234
2449.53804	0.04216
2447.60927	0.04202
2445.6805	0.04191
2443.75173	0.04174
2441.82296	0.04128
2439.89419	0.04099
2437.96542	0.04087
2436.03665	0.04088
2434.10788	0.04099
2432.17911	0.04118
2430.25034	0.04141
2428.32157	0.0417
2426.3928	0.04209
2424.46403	0.04255
2422.53526	0.04304
2420.60649	0.04353
2418.67772	0.044
2416.74895	0.04445
2414.82018	0.04485
2412.89141	0.04517
2410.96264	0.04543
2409.03387	0.04561
2407.1051	0.04566
2405.17633	0.04563
2403.24756	0.04552
2401.31879	0.04534
2399.39002	0.04504
2397.46125	0.04462
2395.53248	0.04409
2393.60371	0.04386
2391.67494	0.04362
2389.74617	0.04339
2387.8174	0.04316
2385.88863	0.04292
2383.95986	0.0427
2382.03109	0.04247
2380.10232	0.04224
2378.17355	0.04202
2376.24478	0.0418
2374.31601	0.04158
2372.38724	0.04136
2370.45847	0.04114
2368.5297	0.04092
2366.60093	0.04071
2364.67216	0.0405
2362.74339	0.04029
2360.81462	0.04008
2358.88585	0.03987
2356.95708	0.03966
2355.02831	0.03946
2353.09954	0.03926
2351.17077	0.03905
2349.242	0.03885
2347.31323	0.03866
2345.38446	0.03846
2343.45569	0.03827
2341.52692	0.03807
2339.59815	0.03788
2337.66938	0.03769
2335.74061	0.0375
2333.81184	0.03731
2331.88307	0.03713
2329.9543	0.03695
2328.02553	0.03676
2326.09675	0.03658
2324.16798	0.0364
2322.23921	0.03623
2320.31044	0.03605
2318.38167	0.03588
2316.4529	0.0357
2314.52413	0.03553
2312.59536	0.03536
2310.66659	0.0352
2308.73782	0.03503
2306.80905	0.03486
2304.88028	0.0347
2302.95151	0.03454
2301.02274	0.03438
2299.09397	0.03422
2297.1652	0.03407
2295.23643	0.03391
2293.30766	0.03376
2291.37889	0.03361
2289.45012	0.03346
2287.52135	0.03331
2285.59258	0.03316
2283.66381	0.03301
2281.73504	0.03287
2279.80627	0.03273
2277.8775	0.03259
2275.94873	0.03245
2274.01996	0.03231
2272.09119	0.03218
2270.16242	0.03204
2268.23365	0.03191
2266.30488	0.03179
2264.37611	0.03166
2262.44734	0.03153
2260.51857	0.03141
2258.5898	0.03128
2256.66103	0.03116
2254.73226	0.03103
2252.80349	0.0309
2250.87472	0.03077
2248.94595	0.03064
2247.01718	0.0305
2245.08841	0.03037
2243.15964	0.03023
2241.23087	0.03008
2239.3021	0.02994
2237.37333	0.02979
2235.44456	0.02965
2233.51579	0.0295
2231.58702	0.02936
2229.65825	0.02922
2227.72948	0.02908
2225.80071	0.02895
2223.87194	0.02882
2221.94317	0.0287
2220.0144	0.02859
2218.08563	0.02849
2216.15686	0.02838
2214.22809	0.02829
2212.29932	0.0282
2210.37055	0.02812
2208.44178	0.02804
2206.51301	0.02797
2204.58424	0.0279
2202.65547	0.02784
2200.7267	0.02778
2198.79793	0.02773
2196.86916	0.02768
2194.94039	0.02764
2193.01162	0.0276
2191.08285	0.02756
2189.15408	0.02753
2187.22531	0.02749
2185.29654	0.02746
2183.36777	0.02742
2181.439	0.02738
2179.51023	0.02734
2177.58146	0.02729
2175.65269	0.02723
2173.72392	0.02717
2171.79515	0.0271
2169.86638	0.02702
2167.93761	0.02694
2166.00884	0.02685
2164.08007	0.02676
2162.1513	0.02666
2160.22253	0.02656
2158.29376	0.02647
2156.36499	0.02637
2154.43622	0.02628
2152.50744	0.02618
2150.57867	0.02609
2148.6499	0.026
2146.72113	0.02591
2144.79236	0.02583
2142.86359	0.02575
2140.93482	0.02566
2139.00605	0.02558
2137.07728	0.0255
2135.14851	0.02542
2133.21974	0.02533
2131.29097	0.02525
2129.3622	0.02516
2127.43343	0.02508
2125.50466	0.02501
2123.57589	0.02493
2121.64712	0.02486
2119.71835	0.02478
2117.78958	0.02471
2115.86081	0.02463
2113.93204	0.02456
2112.00327	0.02448
2110.0745	0.02439
2108.14573	0.0243
2106.21696	0.02421
2104.28819	0.02412
2102.35942	0.02402
2100.43065	0.02392
2098.50188	0.02381
2096.57311	0.0237
2094.64434	0.02358
2092.71557	0.02346
2090.7868	0.02333
2088.85803	0.02321
2086.92926	0.02308
2085.00049	0.02295
2083.07172	0.02283
2081.14295	0.02271
2079.21418	0.02258
2077.28541	0.02246
2075.35664	0.02233
2073.42787	0.0222
2071.4991	0.02207
2069.57033	0.02194
2067.64156	0.0218
2065.71279	0.02167
2063.78402	0.02153
2061.85525	0.02139
2059.92648	0.02125
2057.99771	0.02111
2056.06894	0.02097
2054.14017	0.02082
2052.2114	0.02067
2050.28263	0.02053
2048.35386	0.02038
2046.42509	0.02023
2044.49632	0.02008
2042.56755	0.01992
2040.63878	0.01977
2038.71001	0.01961
2036.78124	0.01945
2034.85247	0.0193
2032.9237	0.01914
2030.99493	0.01897
2029.06616	0.01881
2027.13739	0.01865
2025.20862	0.01848
2023.27985	0.01831
2021.35108	0.01814
2019.42231	0.01797
2017.49354	0.0178
2015.56477	0.01763
2013.636	0.01745
2011.70723	0.01727
2009.77846	0.0171
2007.84969	0.01692
2005.92092	0.01674
2003.99215	0.01655
2002.06338	0.01637
2000.13461	0.01618
1998.20584	0.016
1996.27707	0.01581
1994.3483	0.01562
1992.41953	0.01543
1990.49076	0.01524
1988.56199	0.01504
1986.63322	0.01485
1984.70445	0.01465
1982.77568	0.01445
1980.8469	0.01425
1978.91813	0.01405
1976.98936	0.01385
1975.06059	0.01364
1973.13182	0.01344
1971.20305	0.01323
1969.27428	0.01302
1967.34551	0.01281
1965.41674	0.0126
1963.48797	0.01239
1961.5592	0.01218
1959.63043	0.01196
1957.70166	0.01174
1955.77289	0.01152
1953.84412	0.0113
1951.91535	0.01108
1949.98658	0.01086
1948.05781	0.01042
1946.12904	0.01005
1944.20027	0.00974
1942.2715	0.00947
1940.34273	0.00928
1938.41396	0.00921
1936.48519	0.00927
1934.55642	0.00945
1932.62765	0.00972
1930.69888	0.01002
1928.77011	0.01036
1926.84134	0.01077
1924.91257	0.01124
1922.9838	0.01177
1921.05503	0.01231
1919.12626	0.01284
1917.19749	0.01333
1915.26872	0.01379
1913.33995	0.01422
1911.41118	0.01461
1909.48241	0.01493
1907.55364	0.01517
1905.62487	0.01532
1903.6961	0.01535
1901.76733	0.01527
1899.83856	0.01537
1897.90979	0.01543
1895.98102	0.01553
1894.05225	0.0157
1892.12348	0.0159
1890.19471	0.01602
1888.26594	0.01603
1886.33717	0.01598
1884.4084	0.01593
1882.47963	0.01592
1880.55086	0.01594
1878.62209	0.01593
1876.69332	0.01586
1874.76455	0.01572
1872.83578	0.01556
1870.90701	0.01543
1868.97824	0.01533
1867.04947	0.01521
1865.1207	0.0151
1863.19193	0.01503
1861.26316	0.015
1859.33439	0.015
1857.40562	0.01502
1855.47685	0.01509
1853.54808	0.01516
1851.61931	0.01524
1849.69054	0.01533
1847.76177	0.01541
1845.833	0.01543
1843.90423	0.01542
1841.97546	0.01544
1840.04669	0.01554
1838.11792	0.0157
1836.18915	0.01585
1834.26038	0.01595
1832.33161	0.01602
1830.40284	0.01625
1828.47407	0.01684
1826.5453	0.01789
1824.61653	0.01938
1822.68776	0.02144
1820.75899	0.0245
1818.83022	0.02894
1816.90145	0.03482
1814.97268	0.0421
1813.04391	0.05107
1811.11514	0.06205
1809.18636	0.07493
1807.25759	0.08935
1805.32882	0.10492
1803.40005	0.12121
1801.47128	0.13775
1799.54251	0.15406
1797.61374	0.16967
1795.68497	0.18405
1793.7562	0.1968
1791.82743	0.20768
1789.89866	0.21662
1787.96989	0.22366
1786.04112	0.22892
1784.11235	0.23253
1782.18358	0.23463
1780.25481	0.23535
1778.32604	0.23495
1776.39727	0.2339
1774.4685	0.23255
1772.53973	0.23097
1770.61096	0.22931
1768.68219	0.22804
1766.75342	0.22762
1764.82465	0.22803
1762.89588	0.22903
1760.96711	0.23058
1759.03834	0.23267
1757.10957	0.23505
1755.1808	0.23766
1753.25203	0.24065
1751.32326	0.24397
1749.39449	0.24751
1747.46572	0.25121
1745.53695	0.25509
1743.60818	0.2591
1741.67941	0.26312
1739.75064	0.2669
1737.82187	0.27017
1735.8931	0.2728
1733.96433	0.27459
1732.03556	0.27536
1730.10679	0.27489
1728.17802	0.27295
1726.24925	0.26941
1724.32048	0.26424
1722.39171	0.25737
1720.46294	0.24883
1718.53417	0.23896
1716.6054	0.22845
1714.67663	0.21795
1712.74786	0.20776
1710.81909	0.19824
1708.89032	0.18985
1706.96155	0.18281
1705.03278	0.17739
1703.10401	0.17391
1701.17524	0.17243
1699.24647	0.17276
1697.3177	0.17468
1695.38893	0.17798
1693.46016	0.18237
1691.53139	0.18754
1689.60262	0.19323
1687.67385	0.19909
1685.74508	0.20469
1683.81631	0.20954
1681.88754	0.21321
1679.95877	0.21528
1678.03	0.21538
1676.10123	0.21329
1674.17246	0.20927
1672.24369	0.20383
1670.31492	0.19731
1668.38615	0.18991
1666.45738	0.18192
1664.52861	0.17367
1662.59984	0.16533
1660.67107	0.15712
1658.7423	0.14947
1656.81353	0.1427
1654.88476	0.13682
1652.95599	0.1318
1651.02722	0.12764
1649.09845	0.12436
1647.16968	0.1219
1645.24091	0.12019
1643.31214	0.11919
1641.38337	0.11877
1639.4546	0.11869
1637.52583	0.11877
1635.59705	0.11887
1633.66828	0.11879
1631.73951	0.11833
1629.81074	0.11745
1627.88197	0.11635
1625.9532	0.1151
1624.02443	0.11364
1622.09566	0.11209
1620.16689	0.11054
1618.23812	0.10888
1616.30935	0.10704
1614.38058	0.10503
1612.45181	0.10295
1610.52304	0.10095
1608.59427	0.09901
1606.6655	0.09694
1604.73673	0.09467
1602.80796	0.09219
1600.87919	0.08948
1598.95042	0.08653
1597.02165	0.08345
1595.09288	0.08035
1593.16411	0.07717
1591.23534	0.07402
1589.30657	0.07107
1587.3778	0.0685
1585.44903	0.06643
1583.52026	0.06492
1581.59149	0.06389
1579.66272	0.06339
1577.73395	0.06351
1575.80518	0.0642
1573.87641	0.06534
1571.94764	0.06686
1570.01887	0.06874
1568.0901	0.07092
1566.16133	0.07327
1564.23256	0.07562
1562.30379	0.07793
1560.37502	0.08027
1558.44625	0.08262
1556.51748	0.08481
1554.58871	0.08671
1552.65994	0.08829
1550.73117	0.08961
1548.8024	0.09059
1546.87363	0.09116
1544.94486	0.09141
1543.01609	0.09151
1541.08732	0.09151
1539.15855	0.09136
1537.22978	0.09094
1535.30101	0.09021
1533.37224	0.08927
1531.44347	0.08808
1529.5147	0.08647
1527.58593	0.08439
1525.65716	0.08192
1523.72839	0.07917
1521.79962	0.07615
1519.87085	0.07287
1517.94208	0.06943
1516.01331	0.06602
1514.08454	0.06264
1512.15577	0.05906
1510.227	0.05534
1508.29823	0.05178
1506.36946	0.04863
1504.44069	0.04603
1502.51192	0.04406
1500.58315	0.0428
1498.65438	0.04222
1496.72561	0.04227
1494.79684	0.043
1492.86807	0.04464
1490.9393	0.04726
1489.01053	0.05071
1487.08176	0.05482
1485.15299	0.05955
1483.22422	0.06481
1481.29545	0.07033
1479.36668	0.07589
1477.43791	0.08154
1475.50914	0.08728
1473.58037	0.09296
1471.6516	0.09842
1469.72283	0.10353
1467.79406	0.10818
1465.86529	0.11237
1463.93651	0.11625
1462.00774	0.1198
1460.07897	0.12281
1458.1502	0.12501
1456.22143	0.12623
1454.29266	0.12633
1452.36389	0.12528
1450.43512	0.12326
1448.50635	0.12062
1446.57758	0.1176
1444.64881	0.11413
1442.72004	0.11009
1440.79127	0.10562
1438.8625	0.10117
1436.93373	0.09696
1435.00496	0.09305
1433.07619	0.08976
1431.14742	0.08758
1429.21865	0.08669
1427.28988	0.0871
1425.36111	0.08892
1423.43234	0.09215
1421.50357	0.0966
1419.5748	0.102
1417.64603	0.10812
1415.71726	0.11472
1413.78849	0.12157
1411.85972	0.12835
1409.93095	0.13476
1408.00218	0.1406
1406.07341	0.14577
1404.14464	0.15021
1402.21587	0.15389
1400.2871	0.15683
1398.35833	0.15915
1396.42956	0.16104
1394.50079	0.16284
1392.57202	0.1648
1390.64325	0.16688
1388.71448	0.16891
1386.78571	0.17086
1384.85694	0.17275
1382.92817	0.17454
1380.9994	0.17616
1379.07063	0.17746
1377.14186	0.1782
1375.21309	0.17823
1373.28432	0.1775
1371.35555	0.17599
1369.42678	0.17367
1367.49801	0.17045
1365.56924	0.16623
1363.64047	0.16098
1361.7117	0.15494
1359.78293	0.14865
1357.85416	0.14279
1355.92539	0.13798
1353.99662	0.13477
1352.06785	0.13357
1350.13908	0.13465
1348.21031	0.13803
1346.28154	0.14345
1344.35277	0.15046
1342.424	0.15856
1340.49523	0.16718
1338.56646	0.1758
1336.63769	0.18396
1334.70892	0.19126
1332.78015	0.19738
1330.85138	0.20208
1328.92261	0.20522
1326.99384	0.20671
1325.06507	0.20652
1323.1363	0.20478
1321.20753	0.2017
1319.27876	0.19752
1317.34999	0.19252
1315.42122	0.18704
1313.49245	0.18144
1311.56368	0.17585
1309.63491	0.17027
1307.70614	0.16473
1305.77737	0.1593
1303.8486	0.15398
1301.91983	0.14874
1299.99106	0.14345
1298.06229	0.13795
1296.13352	0.13214
1294.20475	0.12597
1292.27597	0.11957
1290.3472	0.11317
1288.41843	0.10702
1286.48966	0.10138
1284.56089	0.09639
1282.63212	0.09218
1280.70335	0.08886
1278.77458	0.08666
1276.84581	0.08579
1274.91704	0.08636
1272.98827	0.0883
1271.0595	0.09136
1269.13073	0.09519
1267.20196	0.09944
1265.27319	0.10384
1263.34442	0.10815
1261.41565	0.11226
1259.48688	0.11609
1257.55811	0.11965
1255.62934	0.12289
1253.70057	0.12574
1251.7718	0.1281
1249.84303	0.1299
1247.91426	0.13108
1245.98549	0.13161
1244.05672	0.13152
1242.12795	0.13091
1240.19918	0.12997
1238.27041	0.129
1236.34164	0.1284
1234.41287	0.12857
1232.4841	0.12978
1230.55533	0.13208
1228.62656	0.13531
1226.69779	0.13913
1224.76902	0.14323
1222.84025	0.14737
1220.91148	0.15141
1218.98271	0.15539
1217.05394	0.15947
1215.12517	0.16389
1213.1964	0.16875
1211.26763	0.17397
1209.33886	0.17923
1207.41009	0.18404
1205.48132	0.18784
1203.55255	0.19009
1201.62378	0.19038
1199.69501	0.18852
1197.76624	0.18457
1195.83747	0.17887
1193.9087	0.17197
1191.97993	0.1646
1190.05116	0.1575
1188.12239	0.15139
1186.19362	0.14687
1184.26485	0.14448
1182.33608	0.14472
1180.40731	0.14814
1178.47854	0.15519
1176.54977	0.16615
1174.621	0.18097
1172.69223	0.19924
1170.76346	0.22016
1168.83469	0.24268
1166.90592	0.2656
1164.97715	0.28779
1163.04838	0.30828
1161.11961	0.32631
1159.19084	0.34131
1157.26207	0.35288
1155.3333	0.36078
1153.40453	0.36487
1151.47576	0.3652
1149.54699	0.36204
1147.61822	0.35588
1145.68945	0.34746
1143.76068	0.33769
1141.83191	0.32758
1139.90314	0.31819
1137.97437	0.31048
1136.0456	0.30522
1134.11683	0.30293
1132.18806	0.30371
1130.25929	0.30724
1128.33052	0.31289
1126.40175	0.31987
1124.47298	0.32745
1122.54421	0.33509
1120.61544	0.3425
1118.68666	0.34958
1116.75789	0.35645
1114.82912	0.36341
1112.90035	0.37095
1110.97158	0.3797
1109.04281	0.39045
1107.11404	0.4041
1105.18527	0.42145
1103.2565	0.44283
1101.32773	0.46773
1099.39896	0.49475
1097.47019	0.52202
1095.54142	0.54787
1093.61265	0.57133
1091.68388	0.59224
1089.75511	0.61084
1087.82634	0.62741
1085.89757	0.64202
1083.9688	0.65451
1082.04003	0.66462
1080.11126	0.67211
1078.18249	0.67687
1076.25372	0.679
1074.32495	0.67896
1072.39618	0.67755
1070.46741	0.67598
1068.53864	0.67582
1066.60987	0.67881
1064.6811	0.68668
1062.75233	0.70086
1060.82356	0.7221
1058.89479	0.75009
1056.96602	0.78331
1055.03725	0.81932
1053.10848	0.85537
1051.17971	0.8892
1049.25094	0.91941
1047.32217	0.94537
1045.3934	0.96677
1043.46463	0.98325
1041.53586	0.99443
1039.60709	1
1037.67832	0.99992
1035.74955	0.99459
1033.82078	0.98488
1031.89201	0.9722
1029.96324	0.95833
1028.03447	0.94517
1026.1057	0.93435
1024.17693	0.92682
1022.24816	0.92259
1020.31939	0.9207
1018.39062	0.91946
1016.46185	0.91684
1014.53308	0.91087
1012.60431	0.89993
1010.67554	0.88298
1008.74677	0.85952
1006.818	0.8295
1004.88923	0.79316
1002.96046	0.75088
1001.03169	0.7031
999.10292	0.65042
997.17415	0.59384
995.24538	0.53493
993.31661	0.47587
991.38784	0.41935
989.45907	0.36825
987.5303	0.3253
985.60153	0.29262
983.67276	0.27144
981.74399	0.26174
979.81522	0.26221
977.88645	0.27045
975.95768	0.2835
974.02891	0.2984
972.10014	0.31287
970.17137	0.32552
968.2426	0.33586
966.31383	0.34404
964.38506	0.35047
962.45629	0.35538
960.52752	0.35856
958.59875	0.35947
956.66998	0.35745
954.74121	0.35199
952.81244	0.34296
950.88367	0.33073
948.9549	0.31618
947.02612	0.30044
945.09735	0.2846
943.16858	0.26947
941.23981	0.2555
939.31104	0.24279
937.38227	0.23115
935.4535	0.22025
933.52473	0.20979
931.59596	0.19965
929.66719	0.18988
927.73842	0.18074
925.80965	0.17253
923.88088	0.16547
921.95211	0.1596
920.02334	0.15479
918.09457	0.15074
916.1658	0.14701
914.23703	0.14311
912.30826	0.13867
910.37949	0.13364
908.45072	0.12849
906.52195	0.12382
904.59318	0.11981
902.66441	0.1162
900.73564	0.11279
898.80687	0.10956
896.8781	0.10657
894.94933	0.10391
893.02056	0.10161
891.09179	0.09967
889.16302	0.09809
887.23425	0.09692
885.30548	0.09629
883.37671	0.09636
881.44794	0.09729
879.51917	0.09914
877.5904	0.10175
875.66163	0.10481
873.73286	0.10793
871.80409	0.11077
869.87532	0.1131
867.94655	0.11478
866.01778	0.11592
864.08901	0.11689
862.16024	0.11811
860.23147	0.11945
858.3027	0.12019
856.37393	0.11967
854.44516	0.11762
852.51639	0.11401
850.58762	0.10887
848.65885	0.10236
846.73008	0.09473
844.80131	0.08636
842.87254	0.07772
840.94377	0.06934
839.015	0.06169
837.08623	0.05511
835.15746	0.0497
833.22869	0.04535
831.29992	0.04174
829.37115	0.03854
827.44238	0.0355
825.51361	0.03252
823.58484	0.02958
821.65607	0.02673
819.7273	0.02402
817.79853	0.02152
815.86976	0.01928
813.94099	0.01726
812.01222	0.01536
810.08345	0.01349
808.15468	0.01166
806.22591	0.00991
804.29714	0.00838
802.36837	0.00725
800.4396	0.00669
798.51083	0.00681
796.58206	0.00766
794.65329	0.00921
792.72452	0.01131
790.79575	0.01385
788.86698	0.01675
786.93821	0.02001
785.00944	0.0237
783.08067	0.02794
781.1519	0.03287
779.22313	0.03859
777.29436	0.04505
775.36558	0.0521
773.43681	0.05951
771.50804	0.06705
769.57927	0.07448
767.6505	0.0815
765.72173	0.08781
763.79296	0.09313
761.86419	0.09728
759.93542	0.10013
758.00665	0.1016
756.07788	0.10168
754.14911	0.10038
752.22034	0.09772
750.29157	0.09377
748.3628	0.08866
746.43403	0.08242
744.50526	0.07561
742.57649	0.06829
740.64772	0.06076
738.71895	0.05363
736.79018	0.04711
734.86141	0.04138
732.93264	0.03667
731.00387	0.0331
729.0751	0.03076
727.14633	0.02972
725.21756	0.03009
723.28879	0.03182
721.36002	0.03475
719.43125	0.03862
717.50248	0.04311
715.57371	0.04788
713.64494	0.05263
711.71617	0.05708
709.7874	0.06116
707.85863	0.0648
705.92986	0.06804
704.00109	0.07085
702.07232	0.07324
700.14355	0.07519
698.21478	0.07674
696.28601	0.07635
694.35724	0.07381
692.42847	0.07601
690.4997	0.08248
688.57093	0.07844
686.64216	0.07524
684.71339	0.07439
682.78462	0.07375
680.85585	0.0731
678.92708	0.07289
676.99831	0.07302
675.06954	0.07354
673.14077	0.07435
671.212	0.0752
669.28323	0.07604
667.35446	0.07686
665.42569	0.07763
663.49692	0.07831
661.56815	0.07893
659.63938	0.07949
657.71061	0.07992
655.78184	0.08019
653.85307	0.08026
651.9243	0.08001
649.99553	0.07943
648.06676	0.08026
646.13799	0.08455
644.20922	0.08483
642.28045	0.07697
640.35168	0.07703
638.42291	0.07757
636.49414	0.07659
634.56537	0.07578
632.6366	0.07584
630.70783	0.07674
628.77906	0.07872
626.85029	0.08168
624.92152	0.08547
622.99275	0.09
621.06398	0.09504
619.13521	0.10034
617.20644	0.10582
615.27767	0.11153
613.3489	0.11749
611.42013	0.12363
609.49136	0.12976
607.56259	0.13563
605.63382	0.141
603.70505	0.14568
601.77627	0.14965
599.8475	0.15293
597.91873	0.15551
595.98996	0.15744
594.06119	0.15879
592.13242	0.1597
590.20365	0.16031
588.27488	0.1607
586.34611	0.16095
584.41734	0.16108
582.48857	0.16109
580.5598	0.16093
578.63103	0.16058
576.70226	0.15998
574.77349	0.15916
572.84472	0.15821
570.91595	0.15726
568.98718	0.15641
567.05841	0.15567
565.12964	0.15495
563.20087	0.15415
561.2721	0.15327
559.34333	0.15236
557.41456	0.15145
555.48579	0.15055
553.55702	0.14963
551.62825	0.14866
549.69948	0.14757
547.77071	0.14626
545.84194	0.14466
543.91317	0.14272
541.9844	0.14043
540.05563	0.13784
538.12686	0.13503
536.19809	0.13208
534.26932	0.12903
532.34055	0.12587
530.41178	0.12261
528.48301	0.11932
526.55424	0.11608
524.62547	0.11301
522.6967	0.11026
520.76793	0.10791
518.83916	0.10602
516.91039	0.10461
514.98162	0.10368
513.05285	0.10318
511.12408	0.10303
509.19531	0.10315
507.26654	0.1034
505.33777	0.10365
503.409	0.10376
501.48023	0.10367
499.55146	0.10333
497.62269	0.10271
495.69392	0.10181
493.76515	0.10065
491.83638	0.09926
489.90761	0.09767
487.97884	0.09589
486.05007	0.09396
484.1213	0.09193
482.19253	0.08985
480.26376	0.08782
478.33499	0.0859
476.40622	0.08407
474.47745	0.08228
472.54868	0.08051
470.61991	0.07878
468.69114	0.07713
466.76237	0.07556
464.8336	0.07407
462.90483	0.07264
460.97606	0.0713
459.04729	0.07003
457.11852	0.06879
455.18975	0.06757
453.26098	0.06639
451.33221	0.06526
449.40344	0.06424
447.47467	0.06332
445.5459	0.06256
443.61713	0.062
441.68836	0.06167
439.75959	0.06147
437.83082	0.06128
435.90205	0.06104
433.97328	0.06068
432.04451	0.06005
430.11573	0.05901
428.18696	0.05749
426.25819	0.0555
424.32942	0.05304
422.40065	0.05014
420.47188	0.04744
418.54311	0.04446
416.61434	0.04122
414.68557	0.03771
412.7568	0.03393
410.82803	0.02989
408.89926	0.02558
406.97049	0.021
405.04172	0.01615
403.11295	0.01103
401.18418	0.00565
399.25541	0