3996.41167	0.01366
3994.4829	0.01351
3992.55413	0.01339
3990.62536	0.01329
3988.69659	0.0132
3986.76782	0.01314
3984.83905	0.0131
3982.91028	0.01307
3980.98151	0.01307
3979.05274	0.01308
3977.12397	0.01311
3975.1952	0.01317
3973.26643	0.01324
3971.33766	0.01303
3969.40889	0.01308
3967.48012	0.01337
3965.55135	0.01377
3963.62258	0.01424
3961.69381	0.01474
3959.76504	0.01517
3957.83627	0.01541
3955.9075	0.01544
3953.97873	0.01545
3952.04996	0.01562
3950.12119	0.01587
3948.19242	0.01605
3946.26365	0.01617
3944.33488	0.01629
3942.40611	0.01631
3940.47734	0.01627
3938.54857	0.01638
3936.6198	0.01672
3934.69103	0.01709
3932.76226	0.01727
3930.83349	0.0171
3928.90472	0.0165
3926.97595	0.01559
3925.04718	0.0149
3923.11841	0.01477
3921.18964	0.01511
3919.26087	0.01578
3917.3321	0.01658
3915.40333	0.01723
3913.47456	0.01763
3911.54579	0.01786
3909.61702	0.01798
3907.68825	0.01806
3905.75948	0.01824
3903.83071	0.01848
3901.90194	0.01883
3899.97317	0.01936
3898.0444	0.01984
3896.11563	0.02
3894.18686	0.01994
3892.25809	0.01993
3890.32932	0.02004
3888.40055	0.02004
3886.47178	0.01976
3884.54301	0.01926
3882.61424	0.01874
3880.68547	0.01852
3878.7567	0.01869
3876.82792	0.01885
3874.89915	0.01877
3872.97038	0.01874
3871.04161	0.01882
3869.11284	0.01886
3867.18407	0.0188
3865.2553	0.0186
3863.32653	0.01824
3861.39776	0.01788
3859.46899	0.01776
3857.54022	0.01783
3855.61145	0.01788
3853.68268	0.01775
3851.75391	0.01734
3849.82514	0.0168
3847.89637	0.0164
3845.9676	0.01615
3844.03883	0.01581
3842.11006	0.01535
3840.18129	0.01493
3838.25252	0.0147
3836.32375	0.01464
3834.39498	0.01455
3832.46621	0.01414
3830.53744	0.01334
3828.60867	0.01266
3826.6799	0.01247
3824.75113	0.01233
3822.82236	0.01191
3820.89359	0.01133
3818.96482	0.0108
3817.03605	0.01043
3815.10728	0.01021
3813.17851	0.01013
3811.24974	0.01008
3809.32097	0.00998
3807.3922	0.00987
3805.46343	0.00981
3803.53466	0.00973
3801.60589	0.00947
3799.67712	0.00905
3797.74835	0.00861
3795.81958	0.00839
3793.89081	0.00835
3791.96204	0.00836
3790.03327	0.00847
3788.1045	0.00867
3786.17573	0.00885
3784.24696	0.0089
3782.31819	0.00878
3780.38942	0.0086
3778.46065	0.00852
3776.53188	0.00862
3774.60311	0.00873
3772.67434	0.0087
3770.74557	0.00879
3768.8168	0.00902
3766.88803	0.00936
3764.95926	0.01008
3763.03049	0.01125
3761.10172	0.01251
3759.17295	0.01353
3757.24418	0.01449
3755.31541	0.01578
3753.38664	0.01739
3751.45787	0.01907
3749.5291	0.02066
3747.60033	0.02233
3745.67156	0.02435
3743.74279	0.02669
3741.81402	0.02909
3739.88525	0.03127
3737.95648	0.03305
3736.02771	0.03432
3734.09894	0.03498
3732.17017	0.03523
3730.2414	0.03527
3728.31263	0.03508
3726.38386	0.03467
3724.45509	0.03409
3722.52632	0.03328
3720.59755	0.03253
3718.66878	0.03209
3716.74001	0.03176
3714.81124	0.03131
3712.88247	0.03089
3710.9537	0.03094
3709.02493	0.03163
3707.09616	0.03276
3705.16739	0.03425
3703.23861	0.03612
3701.30984	0.03836
3699.38107	0.0407
3697.4523	0.04297
3695.52353	0.04533
3693.59476	0.04772
3691.66599	0.05011
3689.73722	0.05254
3687.80845	0.05498
3685.87968	0.05769
3683.95091	0.06062
3682.02214	0.06331
3680.09337	0.06545
3678.1646	0.0672
3676.23583	0.06899
3674.30706	0.07071
3672.37829	0.07193
3670.44952	0.07293
3668.52075	0.07423
3666.59198	0.07582
3664.66321	0.07752
3662.73444	0.07927
3660.80567	0.08084
3658.8769	0.08195
3656.94813	0.08252
3655.01936	0.08264
3653.09059	0.08233
3651.16182	0.08192
3649.23305	0.08205
3647.30428	0.0828
3645.37551	0.08397
3643.44674	0.08519
3641.51797	0.08608
3639.5892	0.08672
3637.66043	0.08736
3635.73166	0.08814
3633.80289	0.08908
3631.87412	0.09014
3629.94535	0.09139
3628.01658	0.09287
3626.08781	0.09474
3624.15904	0.09735
3622.23027	0.10049
3620.3015	0.10357
3618.37273	0.10631
3616.44396	0.10895
3614.51519	0.11169
3612.58642	0.11436
3610.65765	0.11677
3608.72888	0.11921
3606.80011	0.12203
3604.87134	0.12539
3602.94257	0.12926
3601.0138	0.13308
3599.08503	0.13634
3597.15626	0.13898
3595.22749	0.14133
3593.29872	0.14367
3591.36995	0.14582
3589.44118	0.14774
3587.51241	0.14999
3585.58364	0.15287
3583.65487	0.1564
3581.7261	0.16035
3579.79733	0.16424
3577.86856	0.16777
3575.93979	0.17098
3574.01102	0.1741
3572.08225	0.1773
3570.15348	0.18059
3568.22471	0.18396
3566.29594	0.18755
3564.36717	0.1916
3562.4384	0.19625
3560.50963	0.20108
3558.58086	0.20559
3556.65209	0.20974
3554.72332	0.21356
3552.79455	0.217
3550.86578	0.22005
3548.93701	0.22285
3547.00824	0.22557
3545.07947	0.22847
3543.1507	0.23204
3541.22193	0.23647
3539.29316	0.24126
3537.36439	0.24595
3535.43562	0.25044
3533.50685	0.25471
3531.57807	0.25879
3529.6493	0.26287
3527.72053	0.26701
3525.79176	0.27129
3523.86299	0.27612
3521.93422	0.28204
3520.00545	0.28904
3518.07668	0.29662
3516.14791	0.30433
3514.21914	0.31195
3512.29037	0.31939
3510.3616	0.32658
3508.43283	0.33339
3506.50406	0.33971
3504.57529	0.34558
3502.64652	0.35125
3500.71775	0.35689
3498.78898	0.36233
3496.86021	0.36728
3494.93144	0.3716
3493.00267	0.37534
3491.0739	0.37856
3489.14513	0.38128
3487.21636	0.38358
3485.28759	0.38562
3483.35882	0.38758
3481.43005	0.38969
3479.50128	0.39225
3477.57251	0.39549
3475.64374	0.39923
3473.71497	0.40321
3471.7862	0.40717
3469.85743	0.41099
3467.92866	0.41471
3465.99989	0.41843
3464.07112	0.42218
3462.14235	0.426
3460.21358	0.42985
3458.28481	0.43378
3456.35604	0.43792
3454.42727	0.4422
3452.4985	0.44643
3450.56973	0.45071
3448.64096	0.45521
3446.71219	0.45986
3444.78342	0.46448
3442.85465	0.46909
3440.92588	0.47386
3438.99711	0.47881
3437.06834	0.48393
3435.13957	0.4892
3433.2108	0.49445
3431.28203	0.49953
3429.35326	0.5044
3427.42449	0.50901
3425.49572	0.51321
3423.56695	0.51705
3421.63818	0.52063
3419.70941	0.52389
3417.78064	0.52661
3415.85187	0.52875
3413.9231	0.53037
3411.99433	0.53156
3410.06556	0.53228
3408.13679	0.53248
3406.20802	0.53223
3404.27925	0.5317
3402.35048	0.53092
3400.42171	0.52986
3398.49294	0.52857
3396.56417	0.52728
3394.6354	0.52612
3392.70663	0.52505
3390.77786	0.52414
3388.84909	0.52349
3386.92032	0.523
3384.99155	0.52261
3383.06278	0.52239
3381.13401	0.52236
3379.20524	0.52248
3377.27647	0.52274
3375.3477	0.5231
3373.41893	0.5235
3371.49016	0.52384
3369.56139	0.52402
3367.63262	0.52402
3365.70385	0.52379
3363.77508	0.52323
3361.84631	0.52227
3359.91753	0.52096
3357.98876	0.51939
3356.05999	0.51755
3354.13122	0.5154
3352.20245	0.5129
3350.27368	0.51004
3348.34491	0.50684
3346.41614	0.50335
3344.48737	0.49962
3342.5586	0.49564
3340.62983	0.49148
3338.70106	0.48724
3336.77229	0.48304
3334.84352	0.47892
3332.91475	0.47499
3330.98598	0.47141
3329.05721	0.46829
3327.12844	0.46566
3325.19967	0.46347
3323.2709	0.46162
3321.34213	0.46006
3319.41336	0.45874
3317.48459	0.45756
3315.55582	0.45646
3313.62705	0.45546
3311.69828	0.45457
3309.76951	0.45363
3307.84074	0.45245
3305.91197	0.45097
3303.9832	0.44919
3302.05443	0.44719
3300.12566	0.44498
3298.19689	0.44257
3296.26812	0.43995
3294.33935	0.43721
3292.41058	0.43443
3290.48181	0.43161
3288.55304	0.42873
3286.62427	0.42589
3284.6955	0.42316
3282.76673	0.4205
3280.83796	0.4178
3278.90919	0.41501
3276.98042	0.41207
3275.05165	0.40887
3273.12288	0.40532
3271.19411	0.40134
3269.26534	0.39695
3267.33657	0.39223
3265.4078	0.38716
3263.47903	0.3817
3261.55026	0.37585
3259.62149	0.36971
3257.69272	0.36339
3255.76395	0.35701
3253.83518	0.35059
3251.90641	0.34416
3249.97764	0.33773
3248.04887	0.33136
3246.1201	0.32506
3244.19133	0.31883
3242.26256	0.31271
3240.33379	0.30691
3238.40502	0.30159
3236.47625	0.2968
3234.54748	0.29256
3232.61871	0.28878
3230.68994	0.28534
3228.76117	0.28209
3226.8324	0.27893
3224.90363	0.27582
3222.97486	0.27271
3221.04609	0.26959
3219.11732	0.26642
3217.18855	0.2632
3215.25978	0.25992
3213.33101	0.25659
3211.40224	0.2532
3209.47347	0.2497
3207.5447	0.24597
3205.61593	0.24197
3203.68716	0.2377
3201.75839	0.23323
3199.82962	0.22866
3197.90085	0.22408
3195.97208	0.2196
3194.04331	0.21532
3192.11454	0.21126
3190.18577	0.20735
3188.257	0.20351
3186.32822	0.19965
3184.39945	0.19574
3182.47068	0.19178
3180.54191	0.18779
3178.61314	0.18384
3176.68437	0.18001
3174.7556	0.17641
3172.82683	0.1731
3170.89806	0.17005
3168.96929	0.16721
3167.04052	0.16455
3165.11175	0.16202
3163.18298	0.15956
3161.25421	0.15715
3159.32544	0.15485
3157.39667	0.15264
3155.4679	0.15053
3153.53913	0.14849
3151.61036	0.1465
3149.68159	0.14453
3147.75282	0.14255
3145.82405	0.14057
3143.89528	0.13862
3141.96651	0.13677
3140.03774	0.135
3138.10897	0.13329
3136.1802	0.13162
3134.25143	0.12999
3132.32266	0.1284
3130.39389	0.12687
3128.46512	0.12539
3126.53635	0.12385
3124.60758	0.12215
3122.67881	0.12031
3120.75004	0.11845
3118.82127	0.1166
3116.8925	0.11472
3114.96373	0.11283
3113.03496	0.11097
3111.10619	0.10914
3109.17742	0.10736
3107.24865	0.10566
3105.31988	0.10406
3103.39111	0.10254
3101.46234	0.10114
3099.53357	0.09996
3097.6048	0.09906
3095.67603	0.09835
3093.74726	0.09771
3091.81849	0.09709
3089.88972	0.09652
3087.96095	0.09604
3086.03218	0.09569
3084.10341	0.09543
3082.17464	0.09516
3080.24587	0.09481
3078.3171	0.09443
3076.38833	0.09412
3074.45956	0.09391
3072.53079	0.09376
3070.60202	0.09365
3068.67325	0.0936
3066.74448	0.09365
3064.81571	0.09379
3062.88694	0.09404
3060.95817	0.0944
3059.0294	0.09484
3057.10063	0.09534
3055.17186	0.09597
3053.24309	0.09671
3051.31432	0.0975
3049.38555	0.09825
3047.45678	0.099
3045.52801	0.0999
3043.59924	0.10102
3041.67047	0.10235
3039.7417	0.1038
3037.81293	0.10539
3035.88416	0.10719
3033.95539	0.10934
3032.02662	0.11198
3030.09785	0.11514
3028.16908	0.11884
3026.24031	0.12314
3024.31154	0.12808
3022.38277	0.13369
3020.454	0.14001
3018.52523	0.1471
3016.59646	0.15491
3014.66768	0.16312
3012.73891	0.17173
3010.81014	0.18118
3008.88137	0.19172
3006.9526	0.20309
3005.02383	0.21483
3003.09506	0.22661
3001.16629	0.2383
2999.23752	0.24974
2997.30875	0.26072
2995.37998	0.27114
2993.45121	0.28104
2991.52244	0.29041
2989.59367	0.29914
2987.6649	0.30703
2985.73613	0.31383
2983.80736	0.31934
2981.87859	0.32352
2979.94982	0.32645
2978.02105	0.32826
2976.09228	0.32916
2974.16351	0.32942
2972.23474	0.32926
2970.30597	0.32883
2968.3772	0.32847
2966.44843	0.3289
2964.51966	0.33074
2962.59089	0.33393
2960.66212	0.33815
2958.73335	0.34332
2956.80458	0.34949
2954.87581	0.35661
2952.94704	0.36452
2951.01827	0.37309
2949.0895	0.38219
2947.16073	0.39157
2945.23196	0.40086
2943.30319	0.40969
2941.37442	0.41766
2939.44565	0.42449
2937.51688	0.42993
2935.58811	0.4339
2933.65934	0.43651
2931.73057	0.43783
2929.8018	0.43788
2927.87303	0.43666
2925.94426	0.4343
2924.01549	0.43129
2922.08672	0.42828
2920.15795	0.42557
2918.22918	0.42309
2916.30041	0.42082
2914.37164	0.41877
2912.44287	0.41688
2910.5141	0.41492
2908.58533	0.41272
2906.65656	0.41023
2904.72779	0.40754
2902.79902	0.40459
2900.87025	0.40129
2898.94148	0.39747
2897.01271	0.39297
2895.08394	0.3877
2893.15517	0.38155
2891.2264	0.3745
2889.29763	0.36657
2887.36886	0.35785
2885.44009	0.34828
2883.51132	0.33788
2881.58255	0.32683
2879.65378	0.31546
2877.72501	0.30415
2875.79624	0.29307
2873.86747	0.28203
2871.9387	0.27105
2870.00993	0.2604
2868.08116	0.25033
2866.15239	0.24093
2864.22362	0.23234
2862.29485	0.22482
2860.36608	0.21868
2858.43731	0.21402
2856.50854	0.21075
2854.57977	0.20869
2852.651	0.20764
2850.72223	0.20742
2848.79346	0.20783
2846.86469	0.20866
2844.93592	0.20971
2843.00714	0.2108
2841.07837	0.21172
2839.1496	0.21227
2837.22083	0.21231
2835.29206	0.2117
2833.36329	0.2104
2831.43452	0.20841
2829.50575	0.20567
2827.57698	0.20213
2825.64821	0.19776
2823.71944	0.19263
2821.79067	0.18684
2819.8619	0.1805
2817.93313	0.17382
2816.00436	0.16699
2814.07559	0.16015
2812.14682	0.1534
2810.21805	0.14682
2808.28928	0.14041
2806.36051	0.13412
2804.43174	0.12796
2802.50297	0.12198
2800.5742	0.11629
2798.64543	0.11104
2796.71666	0.10633
2794.78789	0.10219
2792.85912	0.09862
2790.93035	0.09562
2789.00158	0.0932
2787.07281	0.09134
2785.14404	0.08993
2783.21527	0.08878
2781.2865	0.08776
2779.35773	0.0868
2777.42896	0.08587
2775.50019	0.08494
2773.57142	0.08401
2771.64265	0.08312
2769.71388	0.08231
2767.78511	0.08162
2765.85634	0.08102
2763.92757	0.08047
2761.9988	0.0799
2760.07003	0.07926
2758.14126	0.07858
2756.21249	0.07789
2754.28372	0.07718
2752.35495	0.07645
2750.42618	0.07571
2748.49741	0.07498
2746.56864	0.07425
2744.63987	0.07354
2742.7111	0.07283
2740.78233	0.07213
2738.85356	0.07143
2736.92479	0.07073
2734.99602	0.07
2733.06725	0.06927
2731.13848	0.06852
2729.20971	0.06777
2727.28094	0.06706
2725.35217	0.06643
2723.4234	0.06586
2721.49463	0.06533
2719.56586	0.06479
2717.63709	0.06424
2715.70832	0.06368
2713.77955	0.06312
2711.85078	0.06256
2709.92201	0.06199
2707.99324	0.06137
2706.06447	0.06072
2704.1357	0.0601
2702.20693	0.0596
2700.27816	0.05922
2698.34939	0.05891
2696.42062	0.05865
2694.49185	0.05843
2692.56308	0.05822
2690.63431	0.05799
2688.70554	0.05773
2686.77677	0.05745
2684.848	0.05716
2682.91923	0.05686
2680.99046	0.05656
2679.06169	0.05625
2677.13292	0.05593
2675.20415	0.05557
2673.27538	0.05518
2671.34661	0.05477
2669.41783	0.05438
2667.48906	0.054
2665.56029	0.0536
2663.63152	0.05316
2661.70275	0.0527
2659.77398	0.05228
2657.84521	0.05195
2655.91644	0.05173
2653.98767	0.05155
2652.0589	0.05139
2650.13013	0.0512
2648.20136	0.05099
2646.27259	0.05078
2644.34382	0.05056
2642.41505	0.05033
2640.48628	0.05009
2638.55751	0.04985
2636.62874	0.04961
2634.69997	0.04936
2632.7712	0.04906
2630.84243	0.0487
2628.91366	0.04826
2626.98489	0.04778
2625.05612	0.04733
2623.12735	0.04691
2621.19858	0.04646
2619.26981	0.04597
2617.34104	0.04547
2615.41227	0.04501
2613.4835	0.04462
2611.55473	0.04431
2609.62596	0.04402
2607.69719	0.04369
2605.76842	0.04335
2603.83965	0.04302
2601.91088	0.04272
2599.98211	0.04244
2598.05334	0.04219
2596.12457	0.04199
2594.1958	0.04186
2592.26703	0.0418
2590.33826	0.04176
2588.40949	0.04167
2586.48072	0.04155
2584.55195	0.04143
2582.62318	0.0413
2580.69441	0.04118
2578.76564	0.04105
2576.83687	0.04096
2574.9081	0.04087
2572.97933	0.04075
2571.05056	0.04059
2569.12179	0.04046
2567.19302	0.04037
2565.26425	0.04032
2563.33548	0.04021
2561.40671	0.04
2559.47794	0.03978
2557.54917	0.03957
2555.6204	0.03936
2553.69163	0.03914
2551.76286	0.03896
2549.83409	0.03883
2547.90532	0.0387
2545.97655	0.03853
2544.04778	0.03832
2542.11901	0.03813
2540.19024	0.038
2538.26147	0.03794
2536.3327	0.03788
2534.40393	0.03785
2532.47516	0.03786
2530.54639	0.0379
2528.61762	0.03792
2526.68885	0.03788
2524.76008	0.03786
2522.83131	0.03786
2520.90254	0.03786
2518.97377	0.03781
2517.045	0.0377
2515.11623	0.03756
2513.18746	0.03741
2511.25869	0.03726
2509.32992	0.03708
2507.40115	0.03689
2505.47238	0.03668
2503.54361	0.03642
2501.61484	0.03617
2499.68607	0.03595
2497.75729	0.03576
2495.82852	0.03558
2493.89975	0.03543
2491.97098	0.03532
2490.04221	0.03524
2488.11344	0.03522
2486.18467	0.03522
2484.2559	0.03524
2482.32713	0.03531
2480.39836	0.03541
2478.46959	0.03552
2476.54082	0.03562
2474.61205	0.0357
2472.68328	0.03576
2470.75451	0.03581
2468.82574	0.03579
2466.89697	0.03573
2464.9682	0.03564
2463.03943	0.03553
2461.11066	0.03538
2459.18189	0.03518
2457.25312	0.03496
2455.32435	0.03473
2453.39558	0.03448
2451.46681	0.03417
2449.53804	0.03385
2447.60927	0.03356
2445.6805	0.03332
2443.75173	0.03313
2441.82296	0.03297
2439.89419	0.03286
2437.96542	0.0328
2436.03665	0.03278
2434.10788	0.03278
2432.17911	0.03282
2430.25034	0.03286
2428.32157	0.03288
2426.3928	0.03291
2424.46403	0.03293
2422.53526	0.03293
2420.60649	0.03293
2418.67772	0.03293
2416.74895	0.03293
2414.82018	0.03293
2412.89141	0.03293
2410.96264	0.03293
2409.03387	0.03293
2407.1051	0.03293
2405.17633	0.03293
2403.24756	0.03293
2401.31879	0.03293
2399.39002	0.03293
2397.46125	0.03293
2395.53248	0.03293
2393.60371	0.03293
2391.67494	0.03293
2389.74617	0.03293
2387.8174	0.03293
2385.88863	0.03293
2383.95986	0.03293
2382.03109	0.03293
2380.10232	0.03293
2378.17355	0.03293
2376.24478	0.03293
2374.31601	0.03293
2372.38724	0.03293
2370.45847	0.03293
2368.5297	0.03293
2366.60093	0.03293
2364.67216	0.03293
2362.74339	0.03293
2360.81462	0.03293
2358.88585	0.03293
2356.95708	0.03293
2355.02831	0.03293
2353.09954	0.03293
2351.17077	0.03293
2349.242	0.03293
2347.31323	0.03293
2345.38446	0.03293
2343.45569	0.03293
2341.52692	0.03293
2339.59815	0.03293
2337.66938	0.03293
2335.74061	0.03293
2333.81184	0.03293
2331.88307	0.03293
2329.9543	0.03293
2328.02553	0.03293
2326.09675	0.03293
2324.16798	0.03293
2322.23921	0.03293
2320.31044	0.03293
2318.38167	0.03293
2316.4529	0.03293
2314.52413	0.03293
2312.59536	0.03293
2310.66659	0.03293
2308.73782	0.03293
2306.80905	0.03293
2304.88028	0.03293
2302.95151	0.03293
2301.02274	0.03293
2299.09397	0.03293
2297.1652	0.03293
2295.23643	0.03293
2293.30766	0.03293
2291.37889	0.03293
2289.45012	0.03293
2287.52135	0.03293
2285.59258	0.03293
2283.66381	0.03293
2281.73504	0.03293
2279.80627	0.03293
2277.8775	0.03293
2275.94873	0.03293
2274.01996	0.03293
2272.09119	0.03293
2270.16242	0.03293
2268.23365	0.03293
2266.30488	0.03293
2264.37611	0.03293
2262.44734	0.03293
2260.51857	0.03293
2258.5898	0.03293
2256.66103	0.03293
2254.73226	0.03293
2252.80349	0.03293
2250.87472	0.03293
2248.94595	0.03293
2247.01718	0.03293
2245.08841	0.03293
2243.15964	0.03293
2241.23087	0.03293
2239.3021	0.03293
2237.37333	0.03293
2235.44456	0.03293
2233.51579	0.03293
2231.58702	0.03293
2229.65825	0.03293
2227.72948	0.03293
2225.80071	0.03293
2223.87194	0.03293
2221.94317	0.03293
2220.0144	0.03293
2218.08563	0.03293
2216.15686	0.03293
2214.22809	0.03293
2212.29932	0.03293
2210.37055	0.03293
2208.44178	0.03293
2206.51301	0.03293
2204.58424	0.03293
2202.65547	0.03293
2200.7267	0.03293
2198.79793	0.03293
2196.86916	0.03293
2194.94039	0.03293
2193.01162	0.03293
2191.08285	0.03293
2189.15408	0.03293
2187.22531	0.03293
2185.29654	0.03293
2183.36777	0.03293
2181.439	0.03293
2179.51023	0.03293
2177.58146	0.03293
2175.65269	0.03293
2173.72392	0.03293
2171.79515	0.03293
2169.86638	0.03293
2167.93761	0.03293
2166.00884	0.03293
2164.08007	0.03293
2162.1513	0.03293
2160.22253	0.03293
2158.29376	0.03293
2156.36499	0.03293
2154.43622	0.03293
2152.50744	0.03293
2150.57867	0.03293
2148.6499	0.03293
2146.72113	0.03293
2144.79236	0.03293
2142.86359	0.03293
2140.93482	0.03293
2139.00605	0.03293
2137.07728	0.03293
2135.14851	0.03293
2133.21974	0.03293
2131.29097	0.03293
2129.3622	0.03293
2127.43343	0.03293
2125.50466	0.03293
2123.57589	0.03293
2121.64712	0.03293
2119.71835	0.03293
2117.78958	0.03293
2115.86081	0.03293
2113.93204	0.03293
2112.00327	0.03293
2110.0745	0.03293
2108.14573	0.03293
2106.21696	0.03293
2104.28819	0.03293
2102.35942	0.03293
2100.43065	0.03298
2098.50188	0.03302
2096.57311	0.03307
2094.64434	0.03309
2092.71557	0.03307
2090.7868	0.03302
2088.85803	0.03296
2086.92926	0.03288
2085.00049	0.03276
2083.07172	0.0326
2081.14295	0.03245
2079.21418	0.0323
2077.28541	0.03206
2075.35664	0.03173
2073.42787	0.03141
2071.4991	0.03113
2069.57033	0.03089
2067.64156	0.03061
2065.71279	0.03022
2063.78402	0.02975
2061.85525	0.02932
2059.92648	0.02902
2057.99771	0.02875
2056.06894	0.02839
2054.14017	0.02781
2052.2114	0.02702
2050.28263	0.0262
2048.35386	0.02534
2046.42509	0.0244
2044.49632	0.0234
2042.56755	0.02237
2040.63878	0.02131
2038.71001	0.02019
2036.78124	0.01904
2034.85247	0.01789
2032.9237	0.01669
2030.99493	0.01544
2029.06616	0.01424
2027.13739	0.01318
2025.20862	0.01229
2023.27985	0.01157
2021.35108	0.01096
2019.42231	0.01041
2017.49354	0.01003
2015.56477	0.00987
2013.636	0.00986
2011.70723	0.00986
2009.77846	0.00986
2007.84969	0.00998
2005.92092	0.01038
2003.99215	0.01105
2002.06338	0.01182
2000.13461	0.01257
1998.20584	0.01323
1996.27707	0.01374
1994.3483	0.01404
1992.41953	0.01409
1990.49076	0.01399
1988.56199	0.01391
1986.63322	0.01386
1984.70445	0.01386
1982.77568	0.01384
1980.8469	0.01381
1978.91813	0.01378
1976.98936	0.01377
1975.06059	0.01379
1973.13182	0.01383
1971.20305	0.01392
1969.27428	0.01412
1967.34551	0.01448
1965.41674	0.01504
1963.48797	0.01576
1961.5592	0.01661
1959.63043	0.01751
1957.70166	0.01835
1955.77289	0.01907
1953.84412	0.01963
1951.91535	0.01999
1949.98658	0.02019
1948.05781	0.02024
1946.12904	0.02025
1944.20027	0.02039
1942.2715	0.02069
1940.34273	0.02098
1938.41396	0.02115
1936.48519	0.02118
1934.55642	0.02116
1932.62765	0.02116
1930.69888	0.02127
1928.77011	0.02148
1926.84134	0.0217
1924.91257	0.02185
1922.9838	0.02196
1921.05503	0.02206
1919.12626	0.02217
1917.19749	0.02226
1915.26872	0.02233
1913.33995	0.02238
1911.41118	0.02237
1909.48241	0.02232
1907.55364	0.02229
1905.62487	0.02229
1903.6961	0.02229
1901.76733	0.0223
1899.83856	0.02234
1897.90979	0.02243
1895.98102	0.02248
1894.05225	0.02244
1892.12348	0.02233
1890.19471	0.02228
1888.26594	0.02235
1886.33717	0.02253
1884.4084	0.02276
1882.47963	0.02297
1880.55086	0.0231
1878.62209	0.02314
1876.69332	0.02313
1874.76455	0.0231
1872.83578	0.02306
1870.90701	0.02301
1868.97824	0.02296
1867.04947	0.02289
1865.1207	0.02287
1863.19193	0.02296
1861.26316	0.02312
1859.33439	0.02326
1857.40562	0.02338
1855.47685	0.0235
1853.54808	0.0236
1851.61931	0.02367
1849.69054	0.02372
1847.76177	0.02379
1845.833	0.02395
1843.90423	0.02425
1841.97546	0.02468
1840.04669	0.02515
1838.11792	0.02563
1836.18915	0.02611
1834.26038	0.02656
1832.33161	0.02704
1830.40284	0.02765
1828.47407	0.02849
1826.5453	0.02958
1824.61653	0.03097
1822.68776	0.03277
1820.75899	0.03521
1818.83022	0.03841
1816.90145	0.04223
1814.97268	0.04649
1813.04391	0.05148
1811.11514	0.05757
1809.18636	0.0647
1807.25759	0.07275
1805.32882	0.08198
1803.40005	0.09287
1801.47128	0.10601
1799.54251	0.12166
1797.61374	0.1394
1795.68497	0.1584
1793.7562	0.17808
1791.82743	0.19818
1789.89866	0.21815
1787.96989	0.23711
1786.04112	0.2542
1784.11235	0.26877
1782.18358	0.28031
1780.25481	0.28852
1778.32604	0.29336
1776.39727	0.29495
1774.4685	0.2935
1772.53973	0.28967
1770.61096	0.28465
1768.68219	0.27936
1766.75342	0.27421
1764.82465	0.26903
1762.89588	0.26358
1760.96711	0.25811
1759.03834	0.25322
1757.10957	0.24925
1755.1808	0.24647
1753.25203	0.24485
1751.32326	0.24388
1749.39449	0.24318
1747.46572	0.24279
1745.53695	0.24274
1743.60818	0.24249
1741.67941	0.2411
1739.75064	0.2381
1737.82187	0.23455
1735.8931	0.23185
1733.96433	0.2308
1732.03556	0.23192
1730.10679	0.23566
1728.17802	0.24221
1726.24925	0.25145
1724.32048	0.26271
1722.39171	0.27446
1720.46294	0.28498
1718.53417	0.2932
1716.6054	0.29871
1714.67663	0.30133
1712.74786	0.30102
1710.81909	0.29796
1708.89032	0.29247
1706.96155	0.28464
1705.03278	0.27477
1703.10401	0.26346
1701.17524	0.2512
1699.24647	0.23827
1697.3177	0.22488
1695.38893	0.21145
1693.46016	0.19899
1691.53139	0.18906
1689.60262	0.18239
1687.67385	0.17875
1685.74508	0.17763
1683.81631	0.17887
1681.88754	0.18226
1679.95877	0.18733
1678.03	0.19362
1676.10123	0.20071
1674.17246	0.20834
1672.24369	0.21642
1670.31492	0.22474
1668.38615	0.23264
1666.45738	0.23945
1664.52861	0.24479
1662.59984	0.24844
1660.67107	0.2503
1658.7423	0.25058
1656.81353	0.24936
1654.88476	0.24652
1652.95599	0.24189
1651.02722	0.23555
1649.09845	0.22779
1647.16968	0.21899
1645.24091	0.2096
1643.31214	0.19995
1641.38337	0.18997
1639.4546	0.17981
1637.52583	0.17051
1635.59705	0.163
1633.66828	0.15752
1631.73951	0.15401
1629.81074	0.1523
1627.88197	0.15198
1625.9532	0.15237
1624.02443	0.15274
1622.09566	0.15247
1620.16689	0.15133
1618.23812	0.14943
1616.30935	0.14682
1614.38058	0.1435
1612.45181	0.13958
1610.52304	0.13529
1608.59427	0.13074
1606.6655	0.12591
1604.73673	0.12088
1602.80796	0.11585
1600.87919	0.1108
1598.95042	0.10548
1597.02165	0.09978
1595.09288	0.09379
1593.16411	0.08783
1591.23534	0.08247
1589.30657	0.07806
1587.3778	0.0746
1585.44903	0.07197
1583.52026	0.06985
1581.59149	0.06785
1579.66272	0.06609
1577.73395	0.06495
1575.80518	0.06452
1573.87641	0.06474
1571.94764	0.06553
1570.01887	0.06683
1568.0901	0.06849
1566.16133	0.07035
1564.23256	0.07216
1562.30379	0.07387
1560.37502	0.07593
1558.44625	0.07857
1556.51748	0.08161
1554.58871	0.085
1552.65994	0.0889
1550.73117	0.0934
1548.8024	0.09846
1546.87363	0.10396
1544.94486	0.10981
1543.01609	0.1158
1541.08732	0.12161
1539.15855	0.12689
1537.22978	0.13131
1535.30101	0.13471
1533.37224	0.13727
1531.44347	0.13897
1529.5147	0.13957
1527.58593	0.13878
1525.65716	0.13647
1523.72839	0.13262
1521.79962	0.12726
1519.87085	0.12054
1517.94208	0.11278
1516.01331	0.10457
1514.08454	0.09633
1512.15577	0.08793
1510.227	0.07965
1508.29823	0.07226
1506.36946	0.06638
1504.44069	0.06225
1502.51192	0.05995
1500.58315	0.05929
1498.65438	0.0598
1496.72561	0.06102
1494.79684	0.06292
1492.86807	0.06584
1490.9393	0.06989
1489.01053	0.07486
1487.08176	0.08063
1485.15299	0.08729
1483.22422	0.09466
1481.29545	0.10212
1479.36668	0.10933
1477.43791	0.11659
1475.50914	0.12403
1473.58037	0.1315
1471.6516	0.13884
1469.72283	0.14583
1467.79406	0.1522
1465.86529	0.15795
1463.93651	0.16327
1462.00774	0.1682
1460.07897	0.17252
1458.1502	0.17598
1456.22143	0.17832
1454.29266	0.17924
1452.36389	0.17859
1450.43512	0.1766
1448.50635	0.1737
1446.57758	0.17024
1444.64881	0.16637
1442.72004	0.16233
1440.79127	0.15869
1438.8625	0.1561
1436.93373	0.15452
1435.00496	0.15371
1433.07619	0.15399
1431.14742	0.15596
1429.21865	0.15966
1427.28988	0.16493
1425.36111	0.17163
1423.43234	0.17938
1421.50357	0.18759
1419.5748	0.19581
1417.64603	0.20386
1415.71726	0.21168
1413.78849	0.21909
1411.85972	0.2258
1409.93095	0.23167
1408.00218	0.23678
1406.07341	0.24119
1404.14464	0.2448
1402.21587	0.24744
1400.2871	0.24912
1398.35833	0.25004
1396.42956	0.25061
1394.50079	0.25142
1392.57202	0.25264
1390.64325	0.25382
1388.71448	0.2546
1386.78571	0.25499
1384.85694	0.25518
1382.92817	0.25518
1380.9994	0.25478
1379.07063	0.25363
1377.14186	0.25137
1375.21309	0.24789
1373.28432	0.24338
1371.35555	0.23814
1369.42678	0.23232
1367.49801	0.22585
1365.56924	0.21876
1363.64047	0.21133
1361.7117	0.20421
1359.78293	0.1982
1357.85416	0.19392
1355.92539	0.19174
1353.99662	0.19188
1352.06785	0.19449
1350.13908	0.19961
1348.21031	0.20694
1346.28154	0.2157
1344.35277	0.22504
1342.424	0.23433
1340.49523	0.24314
1338.56646	0.25106
1336.63769	0.25761
1334.70892	0.26231
1332.78015	0.26492
1330.85138	0.26541
1328.92261	0.26401
1326.99384	0.26103
1325.06507	0.2568
1323.1363	0.2516
1321.20753	0.24568
1319.27876	0.23936
1317.34999	0.2331
1315.42122	0.22759
1313.49245	0.22326
1311.56368	0.21993
1309.63491	0.21712
1307.70614	0.21436
1305.77737	0.21129
1303.8486	0.20754
1301.91983	0.20288
1299.99106	0.19712
1298.06229	0.19019
1296.13352	0.18215
1294.20475	0.1733
1292.27597	0.16411
1290.3472	0.15514
1288.41843	0.14687
1286.48966	0.13972
1284.56089	0.13404
1282.63212	0.13009
1280.70335	0.12793
1278.77458	0.12741
1276.84581	0.12831
1274.91704	0.13046
1272.98827	0.13373
1271.0595	0.13787
1269.13073	0.14253
1267.20196	0.14734
1265.27319	0.15208
1263.34442	0.15666
1261.41565	0.16083
1259.48688	0.16429
1257.55811	0.16686
1255.62934	0.1685
1253.70057	0.1693
1251.7718	0.16944
1249.84303	0.16921
1247.91426	0.169
1245.98549	0.16935
1244.05672	0.17069
1242.12795	0.1732
1240.19918	0.17666
1238.27041	0.18064
1236.34164	0.18469
1234.41287	0.18852
1232.4841	0.19196
1230.55533	0.19507
1228.62656	0.19799
1226.69779	0.2008
1224.76902	0.20352
1222.84025	0.20604
1220.91148	0.20827
1218.98271	0.21024
1217.05394	0.21194
1215.12517	0.21332
1213.1964	0.21437
1211.26763	0.21511
1209.33886	0.21541
1207.41009	0.21503
1205.48132	0.21372
1203.55255	0.21128
1201.62378	0.20768
1199.69501	0.20315
1197.76624	0.19794
1195.83747	0.19225
1193.9087	0.18618
1191.97993	0.17987
1190.05116	0.17355
1188.12239	0.1676
1186.19362	0.16251
1184.26485	0.15895
1182.33608	0.15782
1180.40731	0.1601
1178.47854	0.16668
1176.54977	0.17806
1174.621	0.19423
1172.69223	0.21471
1170.76346	0.23867
1168.83469	0.26495
1166.90592	0.29217
1164.97715	0.31891
1163.04838	0.3439
1161.11961	0.36611
1159.19084	0.38472
1157.26207	0.39917
1155.3333	0.40919
1153.40453	0.41479
1151.47576	0.41625
1149.54699	0.41394
1147.61822	0.4082
1145.68945	0.39944
1143.76068	0.38829
1141.83191	0.37565
1139.90314	0.36267
1137.97437	0.35054
1136.0456	0.34043
1134.11683	0.33332
1132.18806	0.3298
1130.25929	0.33004
1128.33052	0.33382
1126.40175	0.34076
1124.47298	0.35043
1122.54421	0.36232
1120.61544	0.3758
1118.68666	0.39021
1116.75789	0.40502
1114.82912	0.41982
1112.90035	0.43441
1110.97158	0.44887
1109.04281	0.46345
1107.11404	0.4785
1105.18527	0.49445
1103.2565	0.51174
1101.32773	0.53067
1099.39896	0.5511
1097.47019	0.57235
1095.54142	0.59334
1093.61265	0.61287
1091.68388	0.63004
1089.75511	0.64462
1087.82634	0.65701
1085.89757	0.66776
1083.9688	0.67733
1082.04003	0.68621
1080.11126	0.69504
1078.18249	0.70423
1076.25372	0.71371
1074.32495	0.72302
1072.39618	0.73167
1070.46741	0.73951
1068.53864	0.74715
1066.60987	0.75589
1064.6811	0.76728
1062.75233	0.78248
1060.82356	0.80202
1058.89479	0.82575
1056.96602	0.85279
1055.03725	0.88154
1053.10848	0.90996
1051.17971	0.93608
1049.25094	0.95852
1047.32217	0.97636
1045.3934	0.98911
1043.46463	0.99686
1041.53586	1
1039.60709	0.99893
1037.67832	0.99431
1035.74955	0.98727
1033.82078	0.9791
1031.89201	0.97071
1029.96324	0.96261
1028.03447	0.95519
1026.1057	0.94891
1024.17693	0.94433
1022.24816	0.94191
1020.31939	0.94154
1018.39062	0.94218
1016.46185	0.94201
1014.53308	0.93903
1012.60431	0.93158
1010.67554	0.91867
1008.74677	0.89991
1006.818	0.87541
1004.88923	0.8455
1002.96046	0.81044
1001.03169	0.77023
999.10292	0.72506
997.17415	0.67571
995.24538	0.62361
993.31661	0.57067
991.38784	0.51918
989.45907	0.47141
987.5303	0.42933
985.60153	0.39434
983.67276	0.36726
981.74399	0.34833
979.81522	0.33712
977.88645	0.33246
975.95768	0.33271
974.02891	0.33615
972.10014	0.34113
970.17137	0.3463
968.2426	0.35092
966.31383	0.35496
964.38506	0.35884
962.45629	0.36274
960.52752	0.36631
958.59875	0.36876
956.66998	0.3692
954.74121	0.36697
952.81244	0.36183
950.88367	0.35388
948.9549	0.34353
947.02612	0.33144
945.09735	0.31842
943.16858	0.3052
941.23981	0.29226
939.31104	0.27983
937.38227	0.26797
935.4535	0.25666
933.52473	0.24575
931.59596	0.23508
929.66719	0.22461
927.73842	0.2144
925.80965	0.20454
923.88088	0.1951
921.95211	0.18631
920.02334	0.17852
918.09457	0.1718
916.1658	0.16585
914.23703	0.16008
912.30826	0.15405
910.37949	0.14795
908.45072	0.14248
906.52195	0.138
904.59318	0.13419
902.66441	0.13069
900.73564	0.12744
898.80687	0.12447
896.8781	0.12175
894.94933	0.11914
893.02056	0.11657
891.09179	0.11417
889.16302	0.11221
887.23425	0.11095
885.30548	0.11062
883.37671	0.11144
881.44794	0.1135
879.51917	0.11666
877.5904	0.12059
875.66163	0.12486
873.73286	0.12907
871.80409	0.13281
869.87532	0.1358
867.94655	0.13806
866.01778	0.14
864.08901	0.14218
862.16024	0.14469
860.23147	0.14683
858.3027	0.14772
856.37393	0.14688
854.44516	0.1441
852.51639	0.13924
850.58762	0.13235
848.65885	0.12368
846.73008	0.11371
844.80131	0.10309
842.87254	0.09255
840.94377	0.08268
839.015	0.07381
837.08623	0.06612
835.15746	0.05954
833.22869	0.05383
831.29992	0.04873
829.37115	0.04404
827.44238	0.03962
825.51361	0.0354
823.58484	0.03146
821.65607	0.02795
819.7273	0.02493
817.79853	0.02235
815.86976	0.02005
813.94099	0.01792
812.01222	0.01586
810.08345	0.01382
808.15468	0.01184
806.22591	0.01
804.29714	0.0084
802.36837	0.00722
800.4396	0.0068
798.51083	0.00747
796.58206	0.00928
794.65329	0.01195
792.72452	0.01518
790.79575	0.01878
788.86698	0.02269
786.93821	0.02689
785.00944	0.03138
783.08067	0.03622
781.1519	0.04157
779.22313	0.04755
777.29436	0.05415
775.36558	0.06123
773.43681	0.0687
771.50804	0.0765
769.57927	0.08451
767.6505	0.09247
765.72173	0.10007
763.79296	0.10698
761.86419	0.11294
759.93542	0.11769
758.00665	0.12112
756.07788	0.12321
754.14911	0.124
752.22034	0.12339
750.29157	0.12124
748.3628	0.11749
746.43403	0.11217
744.50526	0.10578
742.57649	0.09861
740.64772	0.09093
738.71895	0.08317
736.79018	0.07574
734.86141	0.06902
732.93264	0.06333
731.00387	0.0589
729.0751	0.05597
727.14633	0.05472
725.21756	0.05518
723.28879	0.0572
721.36002	0.06045
719.43125	0.06454
717.50248	0.06909
715.57371	0.07374
713.64494	0.07821
711.71617	0.08228
709.7874	0.08577
707.85863	0.0886
705.92986	0.09073
704.00109	0.09215
702.07232	0.09284
700.14355	0.09282
698.21478	0.09235
696.28601	0.09144
694.35724	0.0904
692.42847	0.08942
690.4997	0.08771
688.57093	0.08528
686.64216	0.083
684.71339	0.08122
682.78462	0.08
680.85585	0.07936
678.92708	0.0793
676.99831	0.07982
675.06954	0.08086
673.14077	0.08227
671.212	0.08387
669.28323	0.08555
667.35446	0.08724
665.42569	0.0889
663.49692	0.09047
661.56815	0.09199
659.63938	0.09342
657.71061	0.09477
655.78184	0.09601
653.85307	0.09718
651.9243	0.09835
649.99553	0.09951
648.06676	0.10053
646.13799	0.10095
644.20922	0.10036
642.28045	0.09948
640.35168	0.09901
638.42291	0.09881
636.49414	0.09886
634.56537	0.09924
632.6366	0.10017
630.70783	0.10181
628.77906	0.10423
626.85029	0.10737
624.92152	0.11109
622.99275	0.11531
621.06398	0.11992
619.13521	0.12475
617.20644	0.12967
615.27767	0.13466
613.3489	0.13976
611.42013	0.14495
609.49136	0.15011
607.56259	0.15498
605.63382	0.15933
603.70505	0.16302
601.77627	0.16597
599.8475	0.1682
597.91873	0.16978
595.98996	0.17091
594.06119	0.17185
592.13242	0.17274
590.20365	0.1736
588.27488	0.17448
586.34611	0.17543
584.41734	0.17639
582.48857	0.17721
580.5598	0.17777
578.63103	0.178
576.70226	0.17788
574.77349	0.17738
572.84472	0.17652
570.91595	0.17539
568.98718	0.17415
567.05841	0.1729
565.12964	0.17155
563.20087	0.16997
561.2721	0.16805
559.34333	0.16585
557.41456	0.16349
555.48579	0.16112
553.55702	0.1588
551.62825	0.15657
549.69948	0.15447
547.77071	0.15249
545.84194	0.15063
543.91317	0.14885
541.9844	0.14706
540.05563	0.1452
538.12686	0.14324
536.19809	0.14111
534.26932	0.1388
532.34055	0.13629
530.41178	0.13361
528.48301	0.13077
526.55424	0.12781
524.62547	0.12483
522.6967	0.12194
520.76793	0.1192
518.83916	0.11659
516.91039	0.1141
514.98162	0.11178
513.05285	0.10975
511.12408	0.10811
509.19531	0.10682
507.26654	0.1058
505.33777	0.10493
503.409	0.10415
501.48023	0.10342
499.55146	0.10271
497.62269	0.10195
495.69392	0.10113
493.76515	0.1002
491.83638	0.09913
489.90761	0.09786
487.97884	0.09635
486.05007	0.0946
484.1213	0.09265
482.19253	0.0905
480.26376	0.08813
478.33499	0.08554
476.40622	0.08283
474.47745	0.08005
472.54868	0.07728
470.61991	0.07463
468.69114	0.07218
466.76237	0.06994
464.8336	0.06788
462.90483	0.06596
460.97606	0.06421
459.04729	0.06268
457.11852	0.06141
455.18975	0.06035
453.26098	0.05943
451.33221	0.05862
449.40344	0.05799
447.47467	0.0576
445.5459	0.05748
443.61713	0.05755
441.68836	0.05774
439.75959	0.05796
437.83082	0.05802
435.90205	0.05778
433.97328	0.05713
432.04451	0.05608
430.11573	0.05467
428.18696	0.05289
426.25819	0.05069
424.32942	0.048
422.40065	0.04481
420.47188	0.04225
418.54311	0.03948
416.61434	0.0365
414.68557	0.03329
412.7568	0.02988
410.82803	0.02625
408.89926	0.02241
406.97049	0.01836
405.04172	0.01409
403.11295	0.00961
401.18418	0.00491
399.25541	0