401	0.01001
402	0.00936
403	0.01283
404	0.01295
405	0.00561
406	0.00218
407	0.01055
408	0.01901
409	0.01835
410	0.01324
411	0.01302
412	0.01995
413	0.02452
414	0.02221
415	0.02248
416	0.02875
417	0.03223
418	0.02596
419	0.01932
420	0.02556
421	0.03514
422	0.03929
423	0.04091
424	0.04404
425	0.04741
426	0.04663
427	0.04438
428	0.04564
429	0.04921
430	0.05186
431	0.05132
432	0.04801
433	0.04901
434	0.05748
435	0.06308
436	0.06048
437	0.05649
438	0.0561
439	0.05945
440	0.06324
441	0.0625
442	0.05934
443	0.05973
444	0.06219
445	0.06159
446	0.05859
447	0.05941
448	0.06557
449	0.07016
450	0.0696
451	0.06717
452	0.06668
453	0.06871
454	0.06941
455	0.06662
456	0.06472
457	0.06821
458	0.0707
459	0.06534
460	0.06025
461	0.06151
462	0.06715
463	0.06959
464	0.06689
465	0.06558
466	0.07048
467	0.07731
468	0.07915
469	0.07746
470	0.07895
471	0.08338
472	0.08485
473	0.08304
474	0.08466
475	0.09184
476	0.09879
477	0.09949
478	0.09535
479	0.09292
480	0.09622
481	0.10142
482	0.1013
483	0.09699
484	0.09619
485	0.10117
486	0.10592
487	0.10469
488	0.10137
489	0.10384
490	0.10857
491	0.10733
492	0.10128
493	0.09897
494	0.10264
495	0.1063
496	0.10576
497	0.10318
498	0.10297
499	0.10526
500	0.10638
501	0.10495
502	0.1042
503	0.10732
504	0.11147
505	0.11162
506	0.10833
507	0.10811
508	0.11337
509	0.11814
510	0.11769
511	0.11565
512	0.11858
513	0.12555
514	0.12954
515	0.12787
516	0.12588
517	0.12924
518	0.13616
519	0.13944
520	0.13906
521	0.14102
522	0.14699
523	0.15241
524	0.15302
525	0.15053
526	0.15059
527	0.15457
528	0.1573
529	0.15534
530	0.1524
531	0.15367
532	0.15723
533	0.15724
534	0.15372
535	0.15201
536	0.15426
537	0.15688
538	0.15583
539	0.15249
540	0.15178
541	0.15487
542	0.15697
543	0.15521
544	0.15336
545	0.15572
546	0.16004
547	0.16108
548	0.15897
549	0.15846
550	0.16126
551	0.16419
552	0.16457
553	0.16386
554	0.16487
555	0.16779
556	0.17001
557	0.17028
558	0.17132
559	0.17521
560	0.17974
561	0.18228
562	0.18354
563	0.18659
564	0.19306
565	0.20043
566	0.20534
567	0.20905
568	0.21558
569	0.22472
570	0.2318
571	0.23481
572	0.23634
573	0.23889
574	0.24178
575	0.24233
576	0.24024
577	0.23835
578	0.23815
579	0.23759
580	0.23462
581	0.23032
582	0.22699
583	0.22427
584	0.22073
585	0.2169
586	0.21476
587	0.2149
588	0.21591
589	0.21607
590	0.21477
591	0.21256
592	0.2101
593	0.20738
594	0.20408
595	0.20067
596	0.19812
597	0.19593
598	0.19323
599	0.19089
600	0.19001
601	0.19066
602	0.19213
603	0.19341
604	0.19431
605	0.19534
606	0.19631
607	0.19683
608	0.19689
609	0.19627
610	0.19488
611	0.19287
612	0.19004
613	0.18629
614	0.18204
615	0.17754
616	0.17207
617	0.16536
618	0.15895
619	0.15419
620	0.14998
621	0.14519
622	0.14073
623	0.13741
624	0.13476
625	0.13191
626	0.12905
627	0.12721
628	0.12658
629	0.1258
630	0.12391
631	0.12193
632	0.12089
633	0.12033
634	0.11928
635	0.11749
636	0.1157
637	0.11469
638	0.11414
639	0.11297
640	0.11126
641	0.11041
642	0.11102
643	0.1118
644	0.11151
645	0.11064
646	0.11083
647	0.112
648	0.11212
649	0.11091
650	0.11039
651	0.11158
652	0.11362
653	0.11425
654	0.11288
655	0.11146
656	0.11155
657	0.11215
658	0.11182
659	0.111
660	0.11102
661	0.1118
662	0.1118
663	0.11042
664	0.10903
665	0.10886
666	0.10936
667	0.10771
668	0.09919
669	0.09473
670	0.0981
671	0.10144
672	0.10163
673	0.09981
674	0.09856
675	0.09911
676	0.09967
677	0.09809
678	0.09556
679	0.0948
680	0.09578
681	0.0957
682	0.09359
683	0.09182
684	0.09236
685	0.09391
686	0.09385
687	0.09193
688	0.0907
689	0.09145
690	0.0923
691	0.09155
692	0.09057
693	0.09169
694	0.09474
695	0.09709
696	0.09783
697	0.09917
698	0.10285
699	0.1075
700	0.11097
701	0.1133
702	0.11654
703	0.12101
704	0.12432
705	0.12486
706	0.12437
707	0.12467
708	0.12512
709	0.12366
710	0.11972
711	0.1152
712	0.11193
713	0.10891
714	0.10401
715	0.0978
716	0.09284
717	0.08996
718	0.08716
719	0.08263
720	0.07767
721	0.075
722	0.07437
723	0.07304
724	0.07025
725	0.06781
726	0.06729
727	0.06766
728	0.06667
729	0.06432
730	0.06313
731	0.06406
732	0.06493
733	0.06421
734	0.06361
735	0.06555
736	0.06948
737	0.07278
738	0.07456
739	0.07708
740	0.08265
741	0.09057
742	0.09859
743	0.10652
744	0.11597
745	0.12652
746	0.13523
747	0.14035
748	0.14353
749	0.14737
750	0.15177
751	0.15402
752	0.15284
753	0.15048
754	0.15004
755	0.15089
756	0.1494
757	0.14484
758	0.14035
759	0.13796
760	0.13547
761	0.13011
762	0.12257
763	0.11609
764	0.11158
765	0.1063
766	0.09842
767	0.08985
768	0.08356
769	0.0796
770	0.07525
771	0.06934
772	0.06424
773	0.06242
774	0.06268
775	0.06187
776	0.05942
777	0.05754
778	0.05682
779	0.05476
780	0.0499
781	0.04428
782	0.04071
783	0.03924
784	0.0366
785	0.03127
786	0.02595
787	0.02342
788	0.02215
789	0.01894
790	0.01397
791	0.01066
792	0.01049
793	0.01114
794	0.01024
795	0.00829
796	0.00776
797	0.00937
798	0.01068
799	0.00957
800	0.00776
801	0.00806
802	0.00957
803	0.00915
804	0.0061
805	0.00335
806	0.00335
807	0.0047
808	0.00411
809	0.00131
810	0
811	0.00234
812	0.00531
813	0.00553
814	0.00466
815	0.00634
816	0.01082
817	0.01462
818	0.01532
819	0.01507
820	0.01673
821	0.01932
822	0.01971
823	0.01753
824	0.01579
825	0.01674
826	0.01899
827	0.01989
828	0.01999
829	0.02249
830	0.02839
831	0.03489
832	0.03961
833	0.04425
834	0.05174
835	0.06135
836	0.06925
837	0.07385
838	0.07774
839	0.08361
840	0.08995
841	0.09325
842	0.09327
843	0.09329
844	0.0955
845	0.09783
846	0.09748
847	0.09563
848	0.09582
849	0.09901
850	0.10242
851	0.10388
852	0.10469
853	0.10737
854	0.11172
855	0.11487
856	0.11572
857	0.11649
858	0.119
859	0.12162
860	0.12118
861	0.11732
862	0.11306
863	0.11055
864	0.10797
865	0.10262
866	0.09538
867	0.08975
868	0.08637
869	0.08241
870	0.07595
871	0.06876
872	0.06377
873	0.06054
874	0.05604
875	0.04933
876	0.04305
877	0.03969
878	0.03826
879	0.03662
880	0.03509
881	0.03648
882	0.04251
883	0.05158
884	0.06015
885	0.06577
886	0.06774
887	0.06507
888	0.05661
889	0.04398
890	0.03179
891	0.02366
892	0.01932
893	0.01583
894	0.01185
895	0.00897
896	0.00894
897	0.01074
898	0.01223
899	0.01304
900	0.01476
901	0.01825
902	0.02209
903	0.02458
904	0.0262
905	0.02882
906	0.03311
907	0.03769
908	0.04124
909	0.04462
910	0.04958
911	0.05612
912	0.06252
913	0.06816
914	0.07432
915	0.08206
916	0.09077
917	0.09861
918	0.1052
919	0.11197
920	0.11978
921	0.12733
922	0.1331
923	0.13757
924	0.14229
925	0.14778
926	0.15309
927	0.15753
928	0.16189
929	0.16737
930	0.17373
931	0.17952
932	0.18413
933	0.18852
934	0.19383
935	0.19996
936	0.20633
937	0.21278
938	0.21951
939	0.2265
940	0.23305
941	0.2387
942	0.24389
943	0.24904
944	0.25391
945	0.25773
946	0.26014
947	0.26146
948	0.26225
949	0.26224
950	0.26058
951	0.25651
952	0.24967
953	0.23994
954	0.2278
955	0.21449
956	0.20156
957	0.18993
958	0.17991
959	0.1719
960	0.16658
961	0.16412
962	0.16387
963	0.16541
964	0.16901
965	0.17499
966	0.18295
967	0.19201
968	0.20153
969	0.21161
970	0.22286
971	0.23511
972	0.2474
973	0.25911
974	0.27079
975	0.2834
976	0.29645
977	0.30884
978	0.32076
979	0.33317
980	0.3462
981	0.35907
982	0.37103
983	0.38264
984	0.39515
985	0.40857
986	0.42132
987	0.43247
988	0.44335
989	0.45591
990	0.47042
991	0.4858
992	0.50172
993	0.51912
994	0.53851
995	0.55874
996	0.57796
997	0.5958
998	0.61357
999	0.63201
1000	0.65006
1001	0.66633
1002	0.6814
1003	0.69721
1004	0.71405
1005	0.73005
1006	0.74392
1007	0.75646
1008	0.76899
1009	0.78098
1010	0.79063
1011	0.79701
1012	0.80146
1013	0.80575
1014	0.80989
1015	0.8127
1016	0.81459
1017	0.81809
1018	0.82486
1019	0.8337
1020	0.84272
1021	0.85201
1022	0.86313
1023	0.87645
1024	0.89038
1025	0.90304
1026	0.91469
1027	0.92732
1028	0.94073
1029	0.95192
1030	0.96024
1031	0.96785
1032	0.97563
1033	0.98266
1034	0.98776
1035	0.99087
1036	0.99355
1037	0.9968
1038	0.99943
1039	1
1040	0.99894
1041	0.99748
1042	0.99549
1043	0.99135
1044	0.98388
1045	0.97365
1046	0.96199
1047	0.94916
1048	0.93464
1049	0.91916
1050	0.90491
1051	0.89357
1052	0.88461
1053	0.87657
1054	0.8694
1055	0.86437
1056	0.86156
1057	0.85907
1058	0.8555
1059	0.85112
1060	0.84694
1061	0.84279
1062	0.83719
1063	0.82938
1064	0.82061
1065	0.81209
1066	0.80359
1067	0.79441
1068	0.78541
1069	0.77883
1070	0.776
1071	0.77643
1072	0.77906
1073	0.78437
1074	0.79326
1075	0.80461
1076	0.81527
1077	0.82329
1078	0.82894
1079	0.83276
1080	0.83356
1081	0.82926
1082	0.81938
1083	0.80615
1084	0.79204
1085	0.77712
1086	0.76059
1087	0.74339
1088	0.72763
1089	0.71396
1090	0.70139
1091	0.68922
1092	0.67796
1093	0.66912
1094	0.66284
1095	0.65739
1096	0.65186
1097	0.64746
1098	0.64537
1099	0.64494
1100	0.64429
1101	0.64245
1102	0.6405
1103	0.63902
1104	0.63639
1105	0.63092
1106	0.62355
1107	0.61707
1108	0.61243
1109	0.60766
1110	0.60119
1111	0.59443
1112	0.58939
1113	0.5856
1114	0.58089
1115	0.57442
1116	0.56753
1117	0.56171
1118	0.55629
1119	0.5495
1120	0.5415
1121	0.53423
1122	0.52882
1123	0.52405
1124	0.51824
1125	0.51165
1126	0.50596
1127	0.50156
1128	0.49685
1129	0.49067
1130	0.48394
1131	0.47857
1132	0.4749
1133	0.47128
1134	0.46679
1135	0.46297
1136	0.46192
1137	0.46348
1138	0.46555
1139	0.46799
1140	0.47281
1141	0.48139
1142	0.49283
1143	0.50497
1144	0.51774
1145	0.53271
1146	0.55024
1147	0.56857
1148	0.58584
1149	0.60215
1150	0.61856
1151	0.63452
1152	0.64791
1153	0.65747
1154	0.66399
1155	0.6682
1156	0.66923
1157	0.66555
1158	0.65714
1159	0.64566
1160	0.63247
1161	0.61716
1162	0.59906
1163	0.57903
1164	0.5591
1165	0.54045
1166	0.52236
1167	0.50371
1168	0.48494
1169	0.46752
1170	0.45177
1171	0.43652
1172	0.42095
1173	0.40554
1174	0.3909
1175	0.37683
1176	0.36258
1177	0.34807
1178	0.33412
1179	0.32167
1180	0.31049
1181	0.29998
1182	0.2901
1183	0.28145
1184	0.27446
1185	0.26869
1186	0.2634
1187	0.25863
1188	0.2551
1189	0.25291
1190	0.25091
1191	0.24822
1192	0.24506
1193	0.24203
1194	0.23908
1195	0.23578
1196	0.23229
1197	0.22943
1198	0.22787
1199	0.22762
1200	0.22815
1201	0.22963
1202	0.23272
1203	0.23745
1204	0.24323
1205	0.24949
1206	0.25613
1207	0.26298
1208	0.26927
1209	0.27428
1210	0.27791
1211	0.28037
1212	0.28166
1213	0.28158
1214	0.27996
1215	0.27723
1216	0.27411
1217	0.2707
1218	0.26659
1219	0.26195
1220	0.25762
1221	0.2542
1222	0.25128
1223	0.24819
1224	0.24507
1225	0.24272
1226	0.24164
1227	0.24155
1228	0.24226
1229	0.24417
1230	0.24769
1231	0.25222
1232	0.2562
1233	0.25851
1234	0.25956
1235	0.26055
1236	0.26152
1237	0.26185
1238	0.26182
1239	0.26227
1240	0.26348
1241	0.26504
1242	0.26636
1243	0.26761
1244	0.26959
1245	0.27225
1246	0.27455
1247	0.27591
1248	0.27684
1249	0.27762
1250	0.27744
1251	0.27551
1252	0.27249
1253	0.26983
1254	0.26834
1255	0.26738
1256	0.26614
1257	0.26477
1258	0.26394
1259	0.2633
1260	0.26147
1261	0.25787
1262	0.25369
1263	0.25034
1264	0.24778
1265	0.245
1266	0.24156
1267	0.23844
1268	0.2365
1269	0.23493
1270	0.23236
1271	0.22853
1272	0.22448
1273	0.22132
1274	0.21846
1275	0.21482
1276	0.21062
1277	0.20727
1278	0.20517
1279	0.20351
1280	0.20154
1281	0.19981
1282	0.1995
1283	0.20061
1284	0.20209
1285	0.20342
1286	0.20528
1287	0.20846
1288	0.21264
1289	0.21674
1290	0.22047
1291	0.22461
1292	0.22969
1293	0.23492
1294	0.23924
1295	0.24256
1296	0.24586
1297	0.24964
1298	0.25289
1299	0.25464
1300	0.25535
1301	0.25627
1302	0.25746
1303	0.25793
1304	0.25715
1305	0.25592
1306	0.25521
1307	0.25477
1308	0.25381
1309	0.25251
1310	0.25187
1311	0.25256
1312	0.25408
1313	0.25593
1314	0.25855
1315	0.26288
1316	0.26894
1317	0.27585
1318	0.28298
1319	0.29076
1320	0.29973
1321	0.30956
1322	0.31931
1323	0.32867
1324	0.3382
1325	0.34823
1326	0.358
1327	0.36626
1328	0.37267
1329	0.37776
1330	0.38172
1331	0.38387
1332	0.38365
1333	0.3816
1334	0.37885
1335	0.37583
1336	0.37169
1337	0.36617
1338	0.36006
1339	0.35338
1340	0.34554
1341	0.33755
1342	0.33061
1343	0.32456
1344	0.31931
1345	0.31463
1346	0.31001
1347	0.30573
1348	0.30259
1349	0.30041
1350	0.29805
1351	0.29483
1352	0.29112
1353	0.28799
1354	0.28541
1355	0.28245
1356	0.2796
1357	0.27803
1358	0.278
1359	0.27903
1360	0.28002
1361	0.28063
1362	0.28144
1363	0.28274
1364	0.28436
1365	0.28599
1366	0.28778
1367	0.29056
1368	0.29455
1369	0.2991
1370	0.30403
1371	0.30991
1372	0.31695
1373	0.32408
1374	0.32942
1375	0.33223
1376	0.33403
1377	0.33551
1378	0.33591
1379	0.33471
1380	0.33288
1381	0.33211
1382	0.33265
1383	0.33347
1384	0.33392
1385	0.3347
1386	0.33627
1387	0.33756
1388	0.33773
1389	0.33754
1390	0.33753
1391	0.33805
1392	0.33931
1393	0.34046
1394	0.34027
1395	0.33955
1396	0.34045
1397	0.34243
1398	0.34327
1399	0.34225
1400	0.34151
1401	0.34187
1402	0.34156
1403	0.33987
1404	0.3371
1405	0.33358
1406	0.33115
1407	0.3296
1408	0.3274
1409	0.32554
1410	0.325
1411	0.32439
1412	0.32148
1413	0.31635
1414	0.31118
1415	0.30732
1416	0.30425
1417	0.3009
1418	0.29691
1419	0.2913
1420	0.28582
1421	0.28301
1422	0.28057
1423	0.27634
1424	0.27113
1425	0.26736
1426	0.26468
1427	0.26142
1428	0.2582
1429	0.25562
1430	0.25273
1431	0.24976
1432	0.24709
1433	0.24456
1434	0.24352
1435	0.24426
1436	0.2433
1437	0.23807
1438	0.23614
1439	0.23791
1440	0.23957
1441	0.24034
1442	0.24087
1443	0.24216
1444	0.24424
1445	0.24597
1446	0.24671
1447	0.24661
1448	0.24645
1449	0.24724
1450	0.24844
1451	0.24879
1452	0.24877
1453	0.2499
1454	0.25212
1455	0.25419
1456	0.2547
1457	0.2529
1458	0.25112
1459	0.25054
1460	0.25031
1461	0.25003
1462	0.24997
1463	0.25047
1464	0.24976
1465	0.24452
1466	0.23862
1467	0.2356
1468	0.23248
1469	0.2284
1470	0.22428
1471	0.22005
1472	0.21304
1473	0.20293
1474	0.19547
1475	0.19178
1476	0.18779
1477	0.18418
1478	0.18321
1479	0.18356
1480	0.18355
1481	0.18224
1482	0.17961
1483	0.17614
1484	0.1716
1485	0.16664
1486	0.16153
1487	0.15444
1488	0.14677
1489	0.14071
1490	0.13136
1491	0.12156
1492	0.11756
1493	0.11514
1494	0.11281
1495	0.11068
1496	0.10747
1497	0.10402
1498	0.10197
1499	0.09939
1500	0.09753
1501	0.09727
1502	0.09709
1503	0.09737
1504	0.09887
1505	0.10103
1506	0.10098
1507	0.09686
1508	0.09502
1509	0.096
1510	0.09794
1511	0.1
1512	0.10108
1513	0.10217
1514	0.10478
1515	0.10817
1516	0.11091
1517	0.11136
1518	0.11312
1519	0.11786
1520	0.12269
1521	0.12618
1522	0.1288
1523	0.13345
1524	0.13878
1525	0.14321
1526	0.14687
1527	0.14984
1528	0.15181
1529	0.15312
1530	0.15418
1531	0.15473
1532	0.15463
1533	0.15235
1534	0.1479
1535	0.14549
1536	0.14544
1537	0.14652
1538	0.14822
1539	0.14684
1540	0.13871
1541	0.13501
1542	0.13252
1543	0.1306
1544	0.12938
1545	0.12512
1546	0.1209
1547	0.12025
1548	0.1206
1549	0.11956
1550	0.11614
1551	0.11372
1552	0.11482
1553	0.11623
1554	0.11479
1555	0.11219
1556	0.11287
1557	0.1156
1558	0.11592
1559	0.10822
1560	0.10221
1561	0.10314
1562	0.10518
1563	0.10576
1564	0.1039
1565	0.09948
1566	0.09602
1567	0.09524
1568	0.09518
1569	0.09178
1570	0.0836
1571	0.0807
1572	0.08054
1573	0.07977
1574	0.07944
1575	0.07945
1576	0.07669
1577	0.07233
1578	0.07198
1579	0.07299
1580	0.07424
1581	0.07599
1582	0.0779
1583	0.07989
1584	0.08239
1585	0.08571
1586	0.08932
1587	0.09246
1588	0.09499
1589	0.09756
1590	0.10064
1591	0.10388
1592	0.10682
1593	0.10947
1594	0.11212
1595	0.11492
1596	0.11748
1597	0.11935
1598	0.12097
1599	0.12299
1600	0.12541
1601	0.12757
1602	0.1292
1603	0.13077
1604	0.13308
1605	0.1362
1606	0.13932
1607	0.1421
1608	0.14515
1609	0.14861
1610	0.15197
1611	0.15473
1612	0.15686
1613	0.15886
1614	0.16142
1615	0.16427
1616	0.1645
1617	0.16048
1618	0.15909
1619	0.16036
1620	0.16132
1621	0.16222
1622	0.16347
1623	0.16363
1624	0.16305
1625	0.16477
1626	0.16722
1627	0.16905
1628	0.17031
1629	0.17212
1630	0.17419
1631	0.17577
1632	0.17747
1633	0.18003
1634	0.18272
1635	0.18231
1636	0.17871
1637	0.17726
1638	0.17815
1639	0.17912
1640	0.17962
1641	0.18003
1642	0.18109
1643	0.18297
1644	0.18539
1645	0.18762
1646	0.18863
1647	0.18899
1648	0.19084
1649	0.19507
1650	0.20123
1651	0.20836
1652	0.21585
1653	0.22563
1654	0.23714
1655	0.24264
1656	0.24561
1657	0.24679
1658	0.2467
1659	0.24627
1660	0.24662
1661	0.24811
1662	0.24901
1663	0.24781
1664	0.24665
1665	0.24712
1666	0.2485
1667	0.25047
1668	0.25183
1669	0.25091
1670	0.25016
1671	0.25079
1672	0.25164
1673	0.25329
1674	0.25494
1675	0.2538
1676	0.2521
1677	0.25335
1678	0.25467
1679	0.25485
1680	0.25382
1681	0.25335
1682	0.25491
1683	0.25585
1684	0.25048
1685	0.24073
1686	0.24016
1687	0.24075
1688	0.23904
1689	0.23606
1690	0.23335
1691	0.2313
1692	0.22977
1693	0.22921
1694	0.23001
1695	0.2304
1696	0.22836
1697	0.22866
1698	0.23223
1699	0.23557
1700	0.23272
1701	0.22791
1702	0.22991
1703	0.23223
1704	0.23315
1705	0.23376
1706	0.23466
1707	0.23671
1708	0.24145
1709	0.24785
1710	0.25479
1711	0.26187
1712	0.26885
1713	0.27607
1714	0.28386
1715	0.29231
1716	0.30034
1717	0.30556
1718	0.30715
1719	0.30834
1720	0.31094
1721	0.31334
1722	0.31517
1723	0.31624
1724	0.31615
1725	0.31478
1726	0.31209
1727	0.30896
1728	0.30686
1729	0.3051
1730	0.30172
1731	0.29975
1732	0.3012
1733	0.30227
1734	0.29656
1735	0.2899
1736	0.29061
1737	0.29213
1738	0.29304
1739	0.29222
1740	0.28888
1741	0.28719
1742	0.28827
1743	0.28867
1744	0.28855
1745	0.28988
1746	0.29249
1747	0.29534
1748	0.29734
1749	0.29851
1750	0.29893
1751	0.29683
1752	0.29411
1753	0.2936
1754	0.29402
1755	0.29462
1756	0.29482
1757	0.29412
1758	0.29458
1759	0.29671
1760	0.29961
1761	0.30179
1762	0.30237
1763	0.30369
1764	0.30614
1765	0.3089
1766	0.31268
1767	0.31741
1768	0.32289
1769	0.32942
1770	0.33528
1771	0.33701
1772	0.33126
1773	0.32313
1774	0.32098
1775	0.32308
1776	0.32664
1777	0.33136
1778	0.3368
1779	0.34235
1780	0.34735
1781	0.3514
1782	0.35486
1783	0.35762
1784	0.35868
1785	0.35734
1786	0.35483
1787	0.3519
1788	0.34786
1789	0.34358
1790	0.3392
1791	0.33315
1792	0.32338
1793	0.3112
1794	0.30294
1795	0.29653
1796	0.28745
1797	0.27774
1798	0.26992
1799	0.26131
1800	0.25063
1801	0.24013
1802	0.22967
1803	0.21938
1804	0.21058
1805	0.20215
1806	0.19334
1807	0.18425
1808	0.17551
1809	0.16817
1810	0.16061
1811	0.15113
1812	0.14274
1813	0.13654
1814	0.131
1815	0.12558
1816	0.12026
1817	0.11505
1818	0.11024
1819	0.10623
1820	0.10248
1821	0.09873
1822	0.09542
1823	0.09299
1824	0.0907
1825	0.08671
1826	0.08252
1827	0.08103
1828	0.08085
1829	0.07877
1830	0.07385
1831	0.07027
1832	0.06919
1833	0.06811
1834	0.06641
1835	0.06489
1836	0.06345
1837	0.06164
1838	0.05987
1839	0.05854
1840	0.05738
1841	0.05647
1842	0.0564
1843	0.0562
1844	0.05316
1845	0.04922
1846	0.04889
1847	0.04893
1848	0.04758
1849	0.04614
1850	0.04534
1851	0.04472
1852	0.04398
1853	0.04306
1854	0.04209
1855	0.04127
1856	0.04065
1857	0.0401
1858	0.03936
1859	0.03847
1860	0.03774
1861	0.03715
1862	0.03655
1863	0.03595
1864	0.03563
1865	0.03569
1866	0.03592
1867	0.03598
1868	0.03518
1869	0.03286
1870	0.03113
1871	0.03117
1872	0.03141
1873	0.03109
1874	0.03066
1875	0.03035
1876	0.02999
1877	0.02955
1878	0.02914
1879	0.0288
1880	0.02847
1881	0.02806
1882	0.02766
1883	0.02738
1884	0.02711
1885	0.02659
1886	0.026
1887	0.02584
1888	0.02602
1889	0.02526
1890	0.0236
1891	0.02291
1892	0.02295
1893	0.02308
1894	0.02309
1895	0.02228
1896	0.0212
1897	0.02084
1898	0.02075
1899	0.02051
1900	0.02013
1901	0.01961
1902	0.01924
1903	0.01911
1904	0.01889
1905	0.01847
1906	0.01812
1907	0.01796
1908	0.01784
1909	0.01744
1910	0.01665
1911	0.01612
1912	0.01609
1913	0.01602
1914	0.0156
1915	0.0153
1916	0.01571
1917	0.01591
1918	0.01458
1919	0.01334
1920	0.01363
1921	0.01441
1922	0.01448
1923	0.01334
1924	0.01239
1925	0.0124
1926	0.01257
1927	0.01265
1928	0.01261
1929	0.01231
1930	0.01203
1931	0.012
1932	0.01207
1933	0.01188
1934	0.01152
1935	0.01128
1936	0.01125
1937	0.01121
1938	0.01102
1939	0.01085
1940	0.01118
1941	0.01178
1942	0.01122
1943	0.00982
1944	0.00956
1945	0.00998
1946	0.00998
1947	0.00967
1948	0.00943
1949	0.00936
1950	0.0095
1951	0.00959
1952	0.00941
1953	0.00913
1954	0.00896
1955	0.00897
1956	0.00896
1957	0.00878
1958	0.00852
1959	0.00845
1960	0.00857
1961	0.00855
1962	0.0083
1963	0.00813
1964	0.00829
1965	0.00868
1966	0.00871
1967	0.00799
1968	0.00733
1969	0.00744
1970	0.00781
1971	0.00782
1972	0.00754
1973	0.00738
1974	0.00745
1975	0.00757
1976	0.00739
1977	0.00705
1978	0.00696
1979	0.00709
1980	0.00711
1981	0.0069
1982	0.00662
1983	0.00656
1984	0.00665
1985	0.00664
1986	0.00652
1987	0.00649
1988	0.00648
1989	0.00652
1990	0.00672
1991	0.00654
1992	0.00577
1993	0.00539
1994	0.00562
1995	0.00569
1996	0.00551
1997	0.00552
1998	0.00572
1999	0.00572
2000	0.00541
2001	0.00512
2002	0.00517
2003	0.00551
2004	0.00551
2005	0.00517
2006	0.00497
2007	0.00518
2008	0.0055
2009	0.00549
2010	0.00525
2011	0.00516
2012	0.00541
2013	0.00568
2014	0.00577
2015	0.00585
2016	0.00597
2017	0.00603
2018	0.00601
2019	0.00587
2020	0.00582
2021	0.00613
2022	0.0066
2023	0.00686
2024	0.00682
2025	0.00682
2026	0.0071
2027	0.00752
2028	0.00774
2029	0.00765
2030	0.00762
2031	0.00797
2032	0.00836
2033	0.00843
2034	0.00832
2035	0.00845
2036	0.00888
2037	0.00927
2038	0.0094
2039	0.00943
2040	0.0097
2041	0.01002
2042	0.01018
2043	0.01018
2044	0.01018
2045	0.01044
2046	0.01085
2047	0.01101
2048	0.01084
2049	0.01081
2050	0.01115
2051	0.01155
2052	0.01163
2053	0.01142
2054	0.01138
2055	0.01173
2056	0.01211
2057	0.01215
2058	0.01198
2059	0.01203
2060	0.01233
2061	0.01254
2062	0.01256
2063	0.01253
2064	0.01257
2065	0.01259
2066	0.01262
2067	0.01258
2068	0.01251
2069	0.01263
2070	0.01291
2071	0.01302
2072	0.01288
2073	0.01275
2074	0.01286
2075	0.01311
2076	0.01318
2077	0.01318
2078	0.01318
2079	0.01318
2080	0.01318
2081	0.01318
2082	0.01318
2083	0.01318
2084	0.01318
2085	0.01318
2086	0.01318
2087	0.01318
2088	0.01318
2089	0.01318
2090	0.01318
2091	0.01318
2092	0.01318
2093	0.01318
2094	0.01318
2095	0.01318
2096	0.01318
2097	0.01318
2098	0.01318
2099	0.01318
2100	0.01318
2101	0.01318
2102	0.01318
2103	0.01318
2104	0.01318
2105	0.01318
2106	0.01318
2107	0.01318
2108	0.01318
2109	0.01318
2110	0.01318
2111	0.01318
2112	0.01318
2113	0.01318
2114	0.01318
2115	0.01318
2116	0.01318
2117	0.01318
2118	0.01318
2119	0.01318
2120	0.01318
2121	0.01318
2122	0.01318
2123	0.01318
2124	0.01318
2125	0.01318
2126	0.01318
2127	0.01318
2128	0.01318
2129	0.01318
2130	0.01318
2131	0.01318
2132	0.01318
2133	0.01318
2134	0.01318
2135	0.01318
2136	0.01318
2137	0.01318
2138	0.01318
2139	0.01318
2140	0.01318
2141	0.01318
2142	0.01318
2143	0.01318
2144	0.01318
2145	0.01318
2146	0.01318
2147	0.01318
2148	0.01318
2149	0.01318
2150	0.01318
2151	0.01318
2152	0.01318
2153	0.01318
2154	0.01318
2155	0.01318
2156	0.01318
2157	0.01318
2158	0.01318
2159	0.01318
2160	0.01318
2161	0.01318
2162	0.01318
2163	0.01318
2164	0.01318
2165	0.01318
2166	0.01318
2167	0.01318
2168	0.01318
2169	0.01318
2170	0.01318
2171	0.01318
2172	0.01318
2173	0.01318
2174	0.01318
2175	0.01318
2176	0.01318
2177	0.01318
2178	0.01318
2179	0.01318
2180	0.01318
2181	0.01318
2182	0.01318
2183	0.01318
2184	0.01318
2185	0.01318
2186	0.01318
2187	0.01318
2188	0.01318
2189	0.01318
2190	0.01318
2191	0.01318
2192	0.01318
2193	0.01318
2194	0.01318
2195	0.01318
2196	0.01318
2197	0.01318
2198	0.01318
2199	0.01318
2200	0.01318
2201	0.01318
2202	0.01318
2203	0.01318
2204	0.01318
2205	0.01318
2206	0.01318
2207	0.01318
2208	0.01318
2209	0.01318
2210	0.01318
2211	0.01318
2212	0.01318
2213	0.01318
2214	0.01318
2215	0.01318
2216	0.01318
2217	0.01318
2218	0.01318
2219	0.01318
2220	0.01318
2221	0.01318
2222	0.01318
2223	0.01318
2224	0.01318
2225	0.01318
2226	0.01318
2227	0.01318
2228	0.01318
2229	0.01318
2230	0.01318
2231	0.01318
2232	0.01318
2233	0.01318
2234	0.01318
2235	0.01318
2236	0.01318
2237	0.01318
2238	0.01318
2239	0.01318
2240	0.01318
2241	0.01318
2242	0.01318
2243	0.01318
2244	0.01318
2245	0.01318
2246	0.01318
2247	0.01318
2248	0.01318
2249	0.01318
2250	0.01318
2251	0.01318
2252	0.01318
2253	0.01318
2254	0.01318
2255	0.01318
2256	0.01318
2257	0.01318
2258	0.01318
2259	0.01318
2260	0.01318
2261	0.01318
2262	0.01318
2263	0.01318
2264	0.01318
2265	0.01318
2266	0.01318
2267	0.01318
2268	0.01318
2269	0.01318
2270	0.01318
2271	0.01318
2272	0.01318
2273	0.01318
2274	0.01318
2275	0.01318
2276	0.01318
2277	0.01318
2278	0.01318
2279	0.01318
2280	0.01318
2281	0.01318
2282	0.01318
2283	0.01318
2284	0.01318
2285	0.01318
2286	0.01318
2287	0.01318
2288	0.01318
2289	0.01318
2290	0.01318
2291	0.01318
2292	0.01318
2293	0.01318
2294	0.01318
2295	0.01318
2296	0.01318
2297	0.01318
2298	0.01318
2299	0.01318
2300	0.01318
2301	0.01318
2302	0.01318
2303	0.01318
2304	0.01318
2305	0.01318
2306	0.01318
2307	0.01318
2308	0.01318
2309	0.01318
2310	0.01318
2311	0.01318
2312	0.01318
2313	0.01318
2314	0.01318
2315	0.01318
2316	0.01318
2317	0.01318
2318	0.01318
2319	0.01318
2320	0.01318
2321	0.01318
2322	0.01318
2323	0.01318
2324	0.01318
2325	0.01318
2326	0.01318
2327	0.01318
2328	0.01318
2329	0.01318
2330	0.01318
2331	0.01318
2332	0.01318
2333	0.01318
2334	0.01318
2335	0.01318
2336	0.01318
2337	0.01318
2338	0.01318
2339	0.01318
2340	0.01318
2341	0.01318
2342	0.01318
2343	0.01318
2344	0.01318
2345	0.01318
2346	0.01318
2347	0.01318
2348	0.01318
2349	0.01318
2350	0.01318
2351	0.01318
2352	0.01318
2353	0.01318
2354	0.01318
2355	0.01318
2356	0.01318
2357	0.01318
2358	0.01318
2359	0.01318
2360	0.01318
2361	0.01318
2362	0.01318
2363	0.01318
2364	0.01318
2365	0.01318
2366	0.01318
2367	0.01318
2368	0.01318
2369	0.01318
2370	0.01318
2371	0.01318
2372	0.01318
2373	0.01318
2374	0.01318
2375	0.01318
2376	0.01318
2377	0.01318
2378	0.01318
2379	0.01318
2380	0.01318
2381	0.01318
2382	0.01318
2383	0.01318
2384	0.01318
2385	0.01318
2386	0.01318
2387	0.01318
2388	0.01318
2389	0.01318
2390	0.01318
2391	0.01318
2392	0.01318
2393	0.01318
2394	0.01318
2395	0.01318
2396	0.01318
2397	0.01318
2398	0.01318
2399	0.01318
2400	0.01318
2401	0.01318
2402	0.01318
2403	0.01318
2404	0.01318
2405	0.01318
2406	0.01318
2407	0.01318
2408	0.01318
2409	0.01318
2410	0.01318
2411	0.01318
2412	0.01318
2413	0.01318
2414	0.01318
2415	0.01318
2416	0.01318
2417	0.01318
2418	0.01318
2419	0.01318
2420	0.01318
2421	0.01318
2422	0.01318
2423	0.01318
2424	0.01318
2425	0.01318
2426	0.01318
2427	0.01318
2428	0.01318
2429	0.01318
2430	0.01318
2431	0.01318
2432	0.01318
2433	0.01318
2434	0.01318
2435	0.01318
2436	0.01318
2437	0.01318
2438	0.01318
2439	0.01318
2440	0.01318
2441	0.01318
2442	0.01318
2443	0.01318
2444	0.01318
2445	0.01318
2446	0.01318
2447	0.01318
2448	0.01318
2449	0.01318
2450	0.01318
2451	0.01318
2452	0.01318
2453	0.01318
2454	0.01318
2455	0.01318
2456	0.01318
2457	0.01318
2458	0.01318
2459	0.01318
2460	0.01318
2461	0.01318
2462	0.01318
2463	0.01318
2464	0.01318
2465	0.01318
2466	0.01318
2467	0.01318
2468	0.01318
2469	0.01318
2470	0.01318
2471	0.01318
2472	0.01318
2473	0.01318
2474	0.01318
2475	0.01318
2476	0.01318
2477	0.01318
2478	0.01318
2479	0.01318
2480	0.01318
2481	0.01318
2482	0.01318
2483	0.01318
2484	0.01318
2485	0.01318
2486	0.01318
2487	0.01318
2488	0.01318
2489	0.01318
2490	0.01318
2491	0.01318
2492	0.01318
2493	0.01318
2494	0.01318
2495	0.01318
2496	0.01318
2497	0.01318
2498	0.01318
2499	0.01318
2500	0.01318
2501	0.01318
2502	0.01318
2503	0.01318
2504	0.01318
2505	0.01318
2506	0.01318
2507	0.01318
2508	0.01318
2509	0.01318
2510	0.01318
2511	0.01318
2512	0.01318
2513	0.01318
2514	0.01318
2515	0.01318
2516	0.01318
2517	0.01318
2518	0.01318
2519	0.01318
2520	0.01318
2521	0.01318
2522	0.01318
2523	0.01318
2524	0.01318
2525	0.01318
2526	0.01318
2527	0.01318
2528	0.01318
2529	0.01318
2530	0.01318
2531	0.01318
2532	0.01318
2533	0.01318
2534	0.01318
2535	0.01318
2536	0.01318
2537	0.01318
2538	0.01318
2539	0.01318
2540	0.01318
2541	0.01318
2542	0.01318
2543	0.01318
2544	0.01318
2545	0.01318
2546	0.01318
2547	0.01318
2548	0.01318
2549	0.01318
2550	0.01318
2551	0.01318
2552	0.01318
2553	0.01318
2554	0.01318
2555	0.01318
2556	0.01318
2557	0.01318
2558	0.01318
2559	0.01318
2560	0.01318
2561	0.01318
2562	0.01318
2563	0.01318
2564	0.01318
2565	0.01318
2566	0.01318
2567	0.01318
2568	0.01318
2569	0.01318
2570	0.01318
2571	0.01318
2572	0.01318
2573	0.01318
2574	0.01318
2575	0.01318
2576	0.01318
2577	0.01318
2578	0.01318
2579	0.01318
2580	0.01318
2581	0.01318
2582	0.01318
2583	0.01318
2584	0.01318
2585	0.01318
2586	0.01318
2587	0.01318
2588	0.01318
2589	0.01318
2590	0.01318
2591	0.01318
2592	0.01318
2593	0.01318
2594	0.01318
2595	0.01318
2596	0.01318
2597	0.01318
2598	0.01318
2599	0.01318
2600	0.01318
2601	0.01318
2602	0.01318
2603	0.01318
2604	0.01318
2605	0.01318
2606	0.01318
2607	0.01318
2608	0.01318
2609	0.01318
2610	0.01318
2611	0.01318
2612	0.01318
2613	0.01318
2614	0.01318
2615	0.01318
2616	0.01318
2617	0.01318
2618	0.01318
2619	0.01318
2620	0.01318
2621	0.01318
2622	0.01318
2623	0.01318
2624	0.01318
2625	0.01318
2626	0.01318
2627	0.01318
2628	0.01318
2629	0.01318
2630	0.01318
2631	0.01318
2632	0.01318
2633	0.01318
2634	0.01318
2635	0.01318
2636	0.01318
2637	0.01318
2638	0.01318
2639	0.01318
2640	0.01318
2641	0.01318
2642	0.01318
2643	0.01318
2644	0.01318
2645	0.01318
2646	0.01274
2647	0.01298
2648	0.01322
2649	0.01347
2650	0.01369
2651	0.01394
2652	0.01419
2653	0.01444
2654	0.01475
2655	0.01506
2656	0.01526
2657	0.0154
2658	0.01557
2659	0.01583
2660	0.01613
2661	0.01637
2662	0.0166
2663	0.01692
2664	0.01725
2665	0.0175
2666	0.01764
2667	0.01779
2668	0.01804
2669	0.01838
2670	0.01858
2671	0.01871
2672	0.019
2673	0.01936
2674	0.01952
2675	0.01959
2676	0.01981
2677	0.02006
2678	0.02031
2679	0.02063
2680	0.02093
2681	0.02095
2682	0.02072
2683	0.02065
2684	0.0208
2685	0.02093
2686	0.021
2687	0.02108
2688	0.02121
2689	0.02136
2690	0.02154
2691	0.02169
2692	0.02187
2693	0.0221
2694	0.02229
2695	0.0224
2696	0.02251
2697	0.02275
2698	0.02312
2699	0.02352
2700	0.02372
2701	0.02381
2702	0.02388
2703	0.02405
2704	0.02425
2705	0.02444
2706	0.02461
2707	0.02489
2708	0.02532
2709	0.02575
2710	0.02601
2711	0.02607
2712	0.0261
2713	0.02627
2714	0.0265
2715	0.02665
2716	0.0268
2717	0.02705
2718	0.02737
2719	0.02767
2720	0.02798
2721	0.02835
2722	0.02878
2723	0.02911
2724	0.02936
2725	0.02973
2726	0.03015
2727	0.03039
2728	0.03044
2729	0.03041
2730	0.0305
2731	0.03076
2732	0.03117
2733	0.03146
2734	0.03157
2735	0.03169
2736	0.03206
2737	0.03257
2738	0.03294
2739	0.03302
2740	0.03298
2741	0.03313
2742	0.03348
2743	0.03377
2744	0.03391
2745	0.03406
2746	0.03445
2747	0.03499
2748	0.0353
2749	0.03534
2750	0.03547
2751	0.03573
2752	0.03596
2753	0.03613
2754	0.03622
2755	0.03646
2756	0.03691
2757	0.03734
2758	0.03752
2759	0.03759
2760	0.03777
2761	0.03815
2762	0.03853
2763	0.03878
2764	0.039
2765	0.03937
2766	0.03983
2767	0.04022
2768	0.04036
2769	0.0405
2770	0.04096
2771	0.04162
2772	0.0422
2773	0.04262
2774	0.04306
2775	0.04359
2776	0.044
2777	0.04417
2778	0.04435
2779	0.0447
2780	0.04527
2781	0.04583
2782	0.04619
2783	0.04644
2784	0.04681
2785	0.04742
2786	0.04811
2787	0.04868
2788	0.04931
2789	0.05005
2790	0.0507
2791	0.05113
2792	0.05135
2793	0.05149
2794	0.05202
2795	0.05291
2796	0.05375
2797	0.05438
2798	0.05503
2799	0.0557
2800	0.05622
2801	0.05667
2802	0.05724
2803	0.05797
2804	0.05881
2805	0.05978
2806	0.06077
2807	0.06179
2808	0.06295
2809	0.06444
2810	0.06596
2811	0.06697
2812	0.06757
2813	0.06842
2814	0.06969
2815	0.07105
2816	0.0723
2817	0.07351
2818	0.07486
2819	0.07631
2820	0.07766
2821	0.07881
2822	0.07995
2823	0.0812
2824	0.08232
2825	0.08321
2826	0.0839
2827	0.08459
2828	0.08535
2829	0.08617
2830	0.087
2831	0.08787
2832	0.08881
2833	0.08981
2834	0.09092
2835	0.092
2836	0.09309
2837	0.09449
2838	0.09628
2839	0.09813
2840	0.09979
2841	0.10147
2842	0.10364
2843	0.1065
2844	0.10986
2845	0.11363
2846	0.11812
2847	0.1235
2848	0.12938
2849	0.13488
2850	0.13946
2851	0.14307
2852	0.14597
2853	0.14844
2854	0.15052
2855	0.1522
2856	0.15372
2857	0.15525
2858	0.15685
2859	0.15858
2860	0.16027
2861	0.16174
2862	0.16337
2863	0.16554
2864	0.16808
2865	0.17071
2866	0.17352
2867	0.17661
2868	0.17995
2869	0.18341
2870	0.18693
2871	0.19055
2872	0.19431
2873	0.19795
2874	0.20108
2875	0.20364
2876	0.20585
2877	0.20796
2878	0.21008
2879	0.21216
2880	0.21408
2881	0.21588
2882	0.21767
2883	0.21945
2884	0.22112
2885	0.22272
2886	0.22432
2887	0.22611
2888	0.22817
2889	0.2303
2890	0.23244
2891	0.23473
2892	0.23728
2893	0.2399
2894	0.24264
2895	0.24573
2896	0.24894
2897	0.25179
2898	0.25426
2899	0.25663
2900	0.25898
2901	0.26136
2902	0.26382
2903	0.26628
2904	0.26859
2905	0.27077
2906	0.27313
2907	0.27593
2908	0.27909
2909	0.28247
2910	0.28617
2911	0.2905
2912	0.2956
2913	0.30134
2914	0.30748
2915	0.31396
2916	0.3206
2917	0.32702
2918	0.33282
2919	0.33778
2920	0.34205
2921	0.34606
2922	0.34981
2923	0.35313
2924	0.3559
2925	0.35829
2926	0.3603
2927	0.36183
2928	0.36283
2929	0.36328
2930	0.36327
2931	0.3626
2932	0.36126
2933	0.3594
2934	0.35723
2935	0.35477
2936	0.35201
2937	0.34882
2938	0.34501
2939	0.34069
2940	0.33591
2941	0.33063
2942	0.32496
2943	0.31901
2944	0.31282
2945	0.30644
2946	0.29987
2947	0.29306
2948	0.28601
2949	0.27902
2950	0.27242
2951	0.26645
2952	0.261
2953	0.25588
2954	0.25099
2955	0.24672
2956	0.24315
2957	0.24009
2958	0.23751
2959	0.23561
2960	0.23433
2961	0.23344
2962	0.2329
2963	0.23259
2964	0.23238
2965	0.23223
2966	0.23196
2967	0.23138
2968	0.23049
2969	0.22924
2970	0.22767
2971	0.22579
2972	0.22345
2973	0.22064
2974	0.21772
2975	0.21446
2976	0.21063
2977	0.20659
2978	0.20276
2979	0.19902
2980	0.19515
2981	0.19092
2982	0.18647
2983	0.18197
2984	0.17771
2985	0.17371
2986	0.16976
2987	0.16578
2988	0.16184
2989	0.15815
2990	0.15473
2991	0.15144
2992	0.14825
2993	0.14509
2994	0.14187
2995	0.13874
2996	0.13599
2997	0.13362
2998	0.13135
2999	0.12895
3000	0.12654
3001	0.12428
3002	0.12233
3003	0.12081
3004	0.11935
3005	0.11771
3006	0.1162
3007	0.11495
3008	0.11409
3009	0.11341
3010	0.11268
3011	0.11192
3012	0.11119
3013	0.11054
3014	0.10991
3015	0.10915
3016	0.1084
3017	0.10795
3018	0.10765
3019	0.10734
3020	0.107
3021	0.10668
3022	0.10654
3023	0.10669
3024	0.10702
3025	0.10723
3026	0.10711
3027	0.10696
3028	0.10731
3029	0.1081
3030	0.10881
3031	0.10917
3032	0.10965
3033	0.11052
3034	0.11137
3035	0.11198
3036	0.11238
3037	0.11274
3038	0.11338
3039	0.11439
3040	0.11545
3041	0.11643
3042	0.11738
3043	0.11809
3044	0.11856
3045	0.119
3046	0.11951
3047	0.12004
3048	0.1204
3049	0.12082
3050	0.12151
3051	0.12222
3052	0.12269
3053	0.12318
3054	0.12396
3055	0.12472
3056	0.12518
3057	0.12563
3058	0.12615
3059	0.12654
3060	0.12697
3061	0.12763
3062	0.12852
3063	0.12943
3064	0.13015
3065	0.13092
3066	0.13187
3067	0.13275
3068	0.13337
3069	0.1339
3070	0.13447
3071	0.13513
3072	0.13582
3073	0.13648
3074	0.13723
3075	0.13823
3076	0.13945
3077	0.14068
3078	0.14177
3079	0.14272
3080	0.1436
3081	0.1445
3082	0.14539
3083	0.14636
3084	0.14746
3085	0.14859
3086	0.14959
3087	0.15069
3088	0.15186
3089	0.15317
3090	0.15461
3091	0.15603
3092	0.15723
3093	0.15834
3094	0.15945
3095	0.16066
3096	0.16202
3097	0.16366
3098	0.16553
3099	0.16741
3100	0.16909
3101	0.17057
3102	0.17187
3103	0.17323
3104	0.17477
3105	0.17655
3106	0.1785
3107	0.18062
3108	0.18283
3109	0.18492
3110	0.18677
3111	0.18855
3112	0.19056
3113	0.193
3114	0.19571
3115	0.19816
3116	0.20009
3117	0.20194
3118	0.20385
3119	0.20579
3120	0.20796
3121	0.21011
3122	0.21183
3123	0.21335
3124	0.21512
3125	0.21711
3126	0.21901
3127	0.22084
3128	0.22285
3129	0.22516
3130	0.22753
3131	0.22978
3132	0.23179
3133	0.23355
3134	0.23545
3135	0.2377
3136	0.23998
3137	0.24209
3138	0.24426
3139	0.24662
3140	0.24896
3141	0.25096
3142	0.25273
3143	0.25475
3144	0.25711
3145	0.25955
3146	0.26183
3147	0.26409
3148	0.26648
3149	0.26896
3150	0.27146
3151	0.27394
3152	0.27639
3153	0.27882
3154	0.2813
3155	0.28376
3156	0.28604
3157	0.28825
3158	0.29056
3159	0.29297
3160	0.29525
3161	0.29751
3162	0.29982
3163	0.30218
3164	0.30459
3165	0.30702
3166	0.30951
3167	0.3121
3168	0.31475
3169	0.31725
3170	0.31971
3171	0.32223
3172	0.32499
3173	0.32788
3174	0.33075
3175	0.33352
3176	0.33638
3177	0.33936
3178	0.34239
3179	0.3454
3180	0.34824
3181	0.35098
3182	0.35388
3183	0.35693
3184	0.35985
3185	0.36261
3186	0.36538
3187	0.36826
3188	0.37123
3189	0.37421
3190	0.37689
3191	0.37939
3192	0.38199
3193	0.38464
3194	0.3872
3195	0.38957
3196	0.39195
3197	0.39432
3198	0.39667
3199	0.39908
3200	0.40143
3201	0.40377
3202	0.40619
3203	0.40856
3204	0.41088
3205	0.41326
3206	0.41562
3207	0.41782
3208	0.42001
3209	0.4222
3210	0.42437
3211	0.42659
3212	0.429
3213	0.43143
3214	0.43369
3215	0.43589
3216	0.43813
3217	0.44047
3218	0.44304
3219	0.44544
3220	0.44761
3221	0.44981
3222	0.45208
3223	0.4544
3224	0.45682
3225	0.45927
3226	0.46173
3227	0.46429
3228	0.46688
3229	0.46945
3230	0.47198
3231	0.47465
3232	0.47748
3233	0.48026
3234	0.48287
3235	0.48529
3236	0.48756
3237	0.4899
3238	0.49257
3239	0.49532
3240	0.49792
3241	0.50055
3242	0.50328
3243	0.50604
3244	0.50869
3245	0.51134
3246	0.51416
3247	0.51702
3248	0.51957
3249	0.52177
3250	0.52399
3251	0.52643
3252	0.529
3253	0.53142
3254	0.53369
3255	0.53606
3256	0.53845
3257	0.54054
3258	0.54248
3259	0.54443
3260	0.54655
3261	0.54875
3262	0.55077
3263	0.55255
3264	0.55429
3265	0.55615
3266	0.55811
3267	0.56006
3268	0.56201
3269	0.5641
3270	0.56627
3271	0.56826
3272	0.56985
3273	0.57104
3274	0.57226
3275	0.57386
3276	0.57545
3277	0.57685
3278	0.5782
3279	0.57974
3280	0.58146
3281	0.58319
3282	0.58479
3283	0.58619
3284	0.58743
3285	0.58873
3286	0.59027
3287	0.59198
3288	0.59369
3289	0.59539
3290	0.59714
3291	0.5988
3292	0.60016
3293	0.60125
3294	0.60236
3295	0.60372
3296	0.60518
3297	0.60651
3298	0.60763
3299	0.60871
3300	0.60986
3301	0.61108
3302	0.61249
3303	0.6141
3304	0.61586
3305	0.61766
3306	0.6194
3307	0.6211
3308	0.62268
3309	0.62401
3310	0.6253
3311	0.62677
3312	0.62832
3313	0.62993
3314	0.63162
3315	0.63324
3316	0.63478
3317	0.63634
3318	0.63805
3319	0.63989
3320	0.64173
3321	0.64346
3322	0.64512
3323	0.64693
3324	0.649
3325	0.65119
3326	0.65324
3327	0.65495
3328	0.65669
3329	0.65886
3330	0.66118
3331	0.66332
3332	0.66543
3333	0.6677
3334	0.66996
3335	0.67211
3336	0.67423
3337	0.67632
3338	0.67856
3339	0.68082
3340	0.68273
3341	0.68444
3342	0.68631
3343	0.68838
3344	0.69035
3345	0.69205
3346	0.69368
3347	0.69544
3348	0.69745
3349	0.69966
3350	0.70183
3351	0.70376
3352	0.70544
3353	0.70692
3354	0.70833
3355	0.70982
3356	0.7115
3357	0.71332
3358	0.71522
3359	0.71719
3360	0.71919
3361	0.72102
3362	0.72264
3363	0.72439
3364	0.72631
3365	0.72817
3366	0.72996
3367	0.73163
3368	0.7331
3369	0.7346
3370	0.73632
3371	0.73799
3372	0.73933
3373	0.74056
3374	0.74186
3375	0.74319
3376	0.74446
3377	0.74551
3378	0.74635
3379	0.74728
3380	0.74831
3381	0.7493
3382	0.75008
3383	0.75078
3384	0.75134
3385	0.75181
3386	0.75235
3387	0.75305
3388	0.7537
3389	0.75432
3390	0.75508
3391	0.75577
3392	0.75608
3393	0.75617
3394	0.75637
3395	0.7567
3396	0.757
3397	0.75735
3398	0.75786
3399	0.75832
3400	0.75866
3401	0.75905
3402	0.75935
3403	0.75934
3404	0.75924
3405	0.75936
3406	0.75969
3407	0.76004
3408	0.76049
3409	0.76095
3410	0.76116
3411	0.76119
3412	0.76132
3413	0.76161
3414	0.76199
3415	0.76225
3416	0.76223
3417	0.7622
3418	0.76249
3419	0.76308
3420	0.76357
3421	0.76367
3422	0.76351
3423	0.76331
3424	0.76319
3425	0.76314
3426	0.76309
3427	0.7631
3428	0.76335
3429	0.76375
3430	0.76398
3431	0.76381
3432	0.76322
3433	0.76253
3434	0.76221
3435	0.76198
3436	0.76148
3437	0.7607
3438	0.75963
3439	0.75825
3440	0.75704
3441	0.75614
3442	0.7553
3443	0.75442
3444	0.75364
3445	0.75282
3446	0.75156
3447	0.74967
3448	0.74787
3449	0.74669
3450	0.74559
3451	0.74411
3452	0.74242
3453	0.74083
3454	0.73942
3455	0.73811
3456	0.73676
3457	0.73536
3458	0.73385
3459	0.73243
3460	0.73102
3461	0.72916
3462	0.72686
3463	0.72476
3464	0.7232
3465	0.72187
3466	0.72029
3467	0.71857
3468	0.71695
3469	0.71538
3470	0.71334
3471	0.71091
3472	0.70873
3473	0.70681
3474	0.7047
3475	0.70239
3476	0.70018
3477	0.69817
3478	0.69656
3479	0.69526
3480	0.69353
3481	0.69092
3482	0.6878
3483	0.68498
3484	0.6828
3485	0.68105
3486	0.67944
3487	0.67737
3488	0.67461
3489	0.67185
3490	0.66942
3491	0.66711
3492	0.66482
3493	0.66276
3494	0.66107
3495	0.65921
3496	0.65681
3497	0.65438
3498	0.65218
3499	0.64972
3500	0.64704
3501	0.64463
3502	0.6421
3503	0.63864
3504	0.63458
3505	0.6309
3506	0.62791
3507	0.62535
3508	0.62239
3509	0.61848
3510	0.61459
3511	0.61162
3512	0.60908
3513	0.60644
3514	0.60352
3515	0.60016
3516	0.59678
3517	0.59355
3518	0.59015
3519	0.58665
3520	0.58388
3521	0.58171
3522	0.57901
3523	0.57544
3524	0.57196
3525	0.56896
3526	0.56571
3527	0.56207
3528	0.55853
3529	0.55534
3530	0.5524
3531	0.54953
3532	0.54663
3533	0.5438
3534	0.54122
3535	0.53882
3536	0.53592
3537	0.53254
3538	0.52927
3539	0.5262
3540	0.52327
3541	0.52092
3542	0.51912
3543	0.5171
3544	0.51423
3545	0.51085
3546	0.50738
3547	0.50335
3548	0.49947
3549	0.49694
3550	0.49527
3551	0.49315
3552	0.48953
3553	0.48503
3554	0.48136
3555	0.47866
3556	0.47616
3557	0.47341
3558	0.47061
3559	0.46768
3560	0.46458
3561	0.46181
3562	0.45911
3563	0.45613
3564	0.45367
3565	0.45126
3566	0.4469
3567	0.44055
3568	0.43527
3569	0.43311
3570	0.43194
3571	0.42947
3572	0.42639
3573	0.42349
3574	0.42039
3575	0.4172
3576	0.41392
3577	0.41049
3578	0.40737
3579	0.40426
3580	0.40079
3581	0.39779
3582	0.3952
3583	0.3923
3584	0.38996
3585	0.38848
3586	0.38558
3587	0.37978
3588	0.37292
3589	0.36789
3590	0.36557
3591	0.36421
3592	0.36195
3593	0.35844
3594	0.35456
3595	0.35034
3596	0.3464
3597	0.3438
3598	0.34126
3599	0.33832
3600	0.33481
3601	0.33062
3602	0.32688
3603	0.32377
3604	0.32114
3605	0.31913
3606	0.31645
3607	0.31234
3608	0.30779
3609	0.30319
3610	0.3001
3611	0.29889
3612	0.29618
3613	0.29167
3614	0.28772
3615	0.28521
3616	0.28367
3617	0.28165
3618	0.27799
3619	0.27303
3620	0.26803
3621	0.26482
3622	0.26264
3623	0.26026
3624	0.25819
3625	0.25636
3626	0.25465
3627	0.25337
3628	0.24986
3629	0.24
3630	0.23309
3631	0.23429
3632	0.23498
3633	0.23281
3634	0.22881
3635	0.2259
3636	0.22424
3637	0.22202
3638	0.21909
3639	0.21642
3640	0.21435
3641	0.2121
3642	0.20922
3643	0.20663
3644	0.20544
3645	0.20521
3646	0.20417
3647	0.20112
3648	0.19835
3649	0.19618
3650	0.19052
3651	0.18359
3652	0.1816
3653	0.1821
3654	0.18224
3655	0.18059
3656	0.1755
3657	0.17076
3658	0.17025
3659	0.16965
3660	0.16781
3661	0.1656
3662	0.16321
3663	0.16072
3664	0.15839
3665	0.15644
3666	0.15528
3667	0.15483
3668	0.15401
3669	0.15137
3670	0.14549
3671	0.1404
3672	0.141
3673	0.14399
3674	0.14473
3675	0.13796
3676	0.12791
3677	0.12816
3678	0.13002
3679	0.12854
3680	0.12597
3681	0.12496
3682	0.12439
3683	0.12315
3684	0.12149
3685	0.12057
3686	0.12125
3687	0.12161
3688	0.11922
3689	0.11587
3690	0.11352
3691	0.10986
3692	0.10714
3693	0.10691
3694	0.10684
3695	0.1061
3696	0.1048
3697	0.10331
3698	0.10221
3699	0.1019
3700	0.1018
3701	0.09974
3702	0.09609
3703	0.09497
3704	0.09535
3705	0.09487
3706	0.09427
3707	0.09481
3708	0.09505
3709	0.09347
3710	0.09238
3711	0.09091
3712	0.08583
3713	0.08357
3714	0.0854
3715	0.08608
3716	0.08618
3717	0.08629
3718	0.08535
3719	0.08394
3720	0.08397
3721	0.08386
3722	0.08157
3723	0.07981
3724	0.08005
3725	0.07977
3726	0.07763
3727	0.07551
3728	0.07546
3729	0.07691
3730	0.07851
3731	0.07841
3732	0.07637
3733	0.07678
3734	0.07785
3735	0.07482
3736	0.07068
3737	0.06969
3738	0.0701
3739	0.07138
3740	0.07197
3741	0.07187
3742	0.07349
3743	0.0748
3744	0.06942
3745	0.06182
3746	0.06421
3747	0.06936
3748	0.07067
3749	0.06835
3750	0.06638
3751	0.0647
3752	0.05973
3753	0.05817
3754	0.0615
3755	0.06375
3756	0.06316
3757	0.06261
3758	0.06317
3759	0.06122
3760	0.05777
3761	0.05811
3762	0.05958
3763	0.06048
3764	0.06104
3765	0.05951
3766	0.05668
3767	0.05698
3768	0.05905
3769	0.05842
3770	0.05483
3771	0.05304
3772	0.05393
3773	0.0545
3774	0.05434
3775	0.05407
3776	0.05418
3777	0.05486
3778	0.05503
3779	0.05303
3780	0.05054
3781	0.05025
3782	0.0512
3783	0.05196
3784	0.0514
3785	0.04965
3786	0.04868
3787	0.04864
3788	0.0485
3789	0.04807
3790	0.04759
3791	0.04737
3792	0.04728
3793	0.04745
3794	0.04818
3795	0.04861
3796	0.04703
3797	0.04478
3798	0.04532
3799	0.04791
3800	0.0489
3801	0.0451
3802	0.03969
3803	0.03946
3804	0.0428
3805	0.04555
3806	0.04454
3807	0.03961
3808	0.03783
3809	0.03936
3810	0.04029
3811	0.04039
3812	0.04074
3813	0.04199
3814	0.04388
3815	0.04335
3816	0.0377
3817	0.03609
3818	0.04024
3819	0.04345
3820	0.04307
3821	0.03688
3822	0.03192
3823	0.03418
3824	0.03694
3825	0.03829
3826	0.03751
3827	0.03536
3828	0.0347
3829	0.03615
3830	0.03719
3831	0.03566
3832	0.03397
3833	0.03503
3834	0.0359
3835	0.03596
3836	0.0375
3837	0.03735
3838	0.03404
3839	0.03259
3840	0.03153
3841	0.03076
3842	0.03236
3843	0.03223
3844	0.02996
3845	0.02988
3846	0.03096
3847	0.03141
3848	0.0316
3849	0.03222
3850	0.0338
3851	0.03529
3852	0.03477
3853	0.02956
3854	0.02189
3855	0.02174
3856	0.0258
3857	0.02662
3858	0.02667
3859	0.02805
3860	0.02931
3861	0.02886
3862	0.02828
3863	0.02926
3864	0.02835
3865	0.02432
3866	0.02402
3867	0.02763
3868	0.03043
3869	0.02895
3870	0.02219
3871	0.0216
3872	0.02572
3873	0.02674
3874	0.02345
3875	0.02092
3876	0.02226
3877	0.02403
3878	0.02566
3879	0.02613
3880	0.02341
3881	0.02057
3882	0.02152
3883	0.02384
3884	0.02515
3885	0.02338
3886	0.0196
3887	0.01902
3888	0.0211
3889	0.02326
3890	0.02394
3891	0.02139
3892	0.01866
3893	0.01878
3894	0.01935
3895	0.01982
3896	0.02089
3897	0.02231
3898	0.02229
3899	0.02029
3900	0.01996
3901	0.02056
3902	0.01976
3903	0.01898
3904	0.0177
3905	0.01584
3906	0.01536
3907	0.01616
3908	0.01713
3909	0.01755
3910	0.0175
3911	0.01741
3912	0.01732
3913	0.01726
3914	0.01759
3915	0.01815
3916	0.01751
3917	0.01589
3918	0.01578
3919	0.01607
3920	0.01502
3921	0.0149
3922	0.01619
3923	0.01685
3924	0.01582
3925	0.01393
3926	0.01369
3927	0.01478
3928	0.01542
3929	0.01534
3930	0.0154
3931	0.01537
3932	0.01443
3933	0.01355
3934	0.01365
3935	0.01383
3936	0.01378
3937	0.01365
3938	0.01336
3939	0.01318
3940	0.0136
3941	0.0141
3942	0.01356
3943	0.01237
3944	0.01214
3945	0.01271
3946	0.01308
3947	0.01282
3948	0.01244
3949	0.01219
3950	0.01174
3951	0.01177
3952	0.01196
3953	0.0117
3954	0.0117
3955	0.0119
3956	0.01175
3957	0.01142
3958	0.01115
3959	0.01108
3960	0.01113
3961	0.01084
3962	0.01037
3963	0.01029
3964	0.01046
3965	0.01052
3966	0.01048
3967	0.01035
3968	0.01006
3969	0.0098
3970	0.00979
3971	0.00985
3972	0.00977
3973	0.00969
3974	0.00957
3975	0.00913
3976	0.00864
3977	0.00871
3978	0.00896
3979	0.00888
3980	0.00857
3981	0.00827
3982	0.00816
3983	0.0084
3984	0.0087
3985	0.00875
3986	0.00865
3987	0.00849
3988	0.00832
3989	0.00809
3990	0.00773
3991	0.00758
3992	0.00774
3993	0.00785
3994	0.00764
3995	0.00735
3996	0.00737
3997	0.00759
3998	0.00764
3999	0.00759
4000	0.00757