4000.18193	0.02839
3999.21756	0.02833
3998.2532	0.02829
3997.28884	0.02824
3996.32447	0.02821
3995.36011	0.02818
3994.39574	0.02816
3993.43138	0.02814
3992.46702	0.02813
3991.50265	0.02812
3990.53829	0.02813
3989.57392	0.02813
3988.60956	0.02815
3987.6452	0.02833
3986.68083	0.02852
3985.71647	0.02866
3984.7521	0.02875
3983.78774	0.02873
3982.82338	0.02859
3981.85901	0.02846
3980.89465	0.02839
3979.93028	0.02825
3978.96592	0.02798
3978.00156	0.02766
3977.03719	0.02742
3976.07283	0.02733
3975.10846	0.02737
3974.1441	0.02755
3973.17974	0.02774
3972.21537	0.02783
3971.25101	0.02785
3970.28664	0.02786
3969.32228	0.02789
3968.35792	0.02791
3967.39355	0.02788
3966.42919	0.0279
3965.46482	0.02803
3964.50046	0.02815
3963.5361	0.0282
3962.57173	0.02832
3961.60737	0.0285
3960.643	0.02854
3959.67864	0.0284
3958.71428	0.02808
3957.74991	0.02756
3956.78555	0.02703
3955.82118	0.02679
3954.85682	0.02679
3953.89246	0.02665
3952.92809	0.02621
3951.96373	0.0257
3950.99936	0.02529
3950.035	0.02488
3949.07064	0.02449
3948.10627	0.02427
3947.14191	0.02429
3946.17754	0.02451
3945.21318	0.02495
3944.24882	0.02554
3943.28445	0.02609
3942.32009	0.02651
3941.35572	0.02678
3940.39136	0.02688
3939.427	0.0269
3938.46263	0.02689
3937.49827	0.02697
3936.5339	0.02713
3935.56954	0.02695
3934.60518	0.02643
3933.64081	0.02599
3932.67645	0.02582
3931.71208	0.0256
3930.74772	0.02496
3929.78336	0.02435
3928.81899	0.02417
3927.85463	0.02394
3926.89026	0.02344
3925.9259	0.02298
3924.96154	0.02285
3923.99717	0.02305
3923.03281	0.02349
3922.06844	0.02405
3921.10408	0.02456
3920.13972	0.02496
3919.17535	0.02552
3918.21099	0.02646
3917.24662	0.02771
3916.28226	0.029
3915.3179	0.03003
3914.35353	0.03065
3913.38917	0.0305
3912.4248	0.02946
3911.46044	0.02829
3910.49608	0.02728
3909.53171	0.02596
3908.56735	0.02428
3907.60298	0.02257
3906.63862	0.02125
3905.67426	0.02018
3904.70989	0.01911
3903.74553	0.01841
3902.78116	0.01791
3901.8168	0.01718
3900.85244	0.01654
3899.88807	0.01642
3898.92371	0.01704
3897.95934	0.01848
3896.99498	0.02022
3896.03062	0.02184
3895.06625	0.0234
3894.10189	0.02477
3893.13752	0.02588
3892.17316	0.02659
3891.2088	0.02635
3890.24443	0.02536
3889.28007	0.02432
3888.3157	0.02363
3887.35134	0.02318
3886.38698	0.0231
3885.42261	0.0233
3884.45825	0.0235
3883.49388	0.02401
3882.52952	0.02507
3881.56516	0.02612
3880.60079	0.02577
3879.63643	0.02422
3878.67206	0.02267
3877.7077	0.02226
3876.74333	0.02285
3875.77897	0.02327
3874.81461	0.02309
3873.85024	0.02231
3872.88588	0.02114
3871.92151	0.02008
3870.95715	0.01944
3869.99279	0.01935
3869.02842	0.01935
3868.06406	0.01902
3867.09969	0.01927
3866.13533	0.02083
3865.17097	0.02307
3864.2066	0.02413
3863.24224	0.02377
3862.27787	0.0224
3861.31351	0.02085
3860.34915	0.01981
3859.38478	0.01899
3858.42042	0.0178
3857.45605	0.01635
3856.49169	0.01613
3855.52733	0.01713
3854.56296	0.01837
3853.5986	0.01931
3852.63423	0.01998
3851.66987	0.02076
3850.70551	0.0215
3849.74114	0.02197
3848.77678	0.02215
3847.81241	0.02263
3846.84805	0.02357
3845.88369	0.02443
3844.91932	0.02507
3843.95496	0.02595
3842.99059	0.02668
3842.02623	0.02597
3841.06187	0.02374
3840.0975	0.02194
3839.13314	0.02123
3838.16877	0.02107
3837.20441	0.02106
3836.24005	0.02149
3835.27568	0.02272
3834.31132	0.02487
3833.34695	0.02782
3832.38259	0.03019
3831.41823	0.03102
3830.45386	0.03145
3829.4895	0.03199
3828.52513	0.03237
3827.56077	0.03208
3826.59641	0.03066
3825.63204	0.02863
3824.66768	0.02699
3823.70331	0.02587
3822.73895	0.02507
3821.77459	0.02483
3820.81022	0.02525
3819.84586	0.0261
3818.88149	0.02738
3817.91713	0.02872
3816.95277	0.02994
3815.9884	0.0313
3815.02404	0.03296
3814.05967	0.03521
3813.09531	0.0376
3812.13095	0.03897
3811.16658	0.03954
3810.20222	0.03956
3809.23785	0.03863
3808.27349	0.03711
3807.30913	0.03571
3806.34476	0.0345
3805.3804	0.03341
3804.41603	0.03205
3803.45167	0.03056
3802.48731	0.0299
3801.52294	0.03011
3800.55858	0.03097
3799.59421	0.03237
3798.62985	0.03434
3797.66549	0.03687
3796.70112	0.03962
3795.73676	0.0418
3794.77239	0.04311
3793.80803	0.04461
3792.84367	0.04688
3791.8793	0.04956
3790.91494	0.05162
3789.95057	0.05195
3788.98621	0.051
3788.02185	0.05036
3787.05748	0.05025
3786.09312	0.05023
3785.12875	0.04987
3784.16439	0.04931
3783.20003	0.04927
3782.23566	0.04988
3781.2713	0.05044
3780.30693	0.05044
3779.34257	0.05033
3778.37821	0.05055
3777.41384	0.05097
3776.44948	0.0511
3775.48511	0.05101
3774.52075	0.05089
3773.55639	0.0507
3772.59202	0.05061
3771.62766	0.05102
3770.66329	0.05145
3769.69893	0.05149
3768.73457	0.05125
3767.7702	0.05051
3766.80584	0.04937
3765.84147	0.0487
3764.87711	0.04897
3763.91275	0.04999
3762.94838	0.05067
3761.98402	0.05065
3761.01965	0.04996
3760.05529	0.04846
3759.09093	0.0464
3758.12656	0.04401
3757.1622	0.042
3756.19783	0.04055
3755.23347	0.03827
3754.26911	0.03561
3753.30474	0.03319
3752.34038	0.03148
3751.37601	0.03053
3750.41165	0.03046
3749.44729	0.03127
3748.48292	0.0326
3747.51856	0.03396
3746.55419	0.03488
3745.58983	0.0353
3744.62547	0.03573
3743.6611	0.03648
3742.69674	0.03747
3741.73237	0.03858
3740.76801	0.03951
3739.80365	0.0399
3738.83928	0.04038
3737.87492	0.04096
3736.91055	0.04141
3735.94619	0.04223
3734.98182	0.04362
3734.01746	0.04506
3733.0531	0.04543
3732.08873	0.04505
3731.12437	0.04583
3730.16	0.04735
3729.19564	0.04895
3728.23128	0.0509
3727.26691	0.05356
3726.30255	0.05663
3725.33818	0.05972
3724.37382	0.06258
3723.40946	0.06422
3722.44509	0.06444
3721.48073	0.06422
3720.51636	0.06342
3719.552	0.06217
3718.58764	0.06138
3717.62327	0.06134
3716.65891	0.06176
3715.69454	0.06236
3714.73018	0.063
3713.76582	0.0637
3712.80145	0.06422
3711.83709	0.06451
3710.87272	0.06461
3709.90836	0.0647
3708.944	0.06538
3707.97963	0.0666
3707.01527	0.06795
3706.0509	0.06961
3705.08654	0.07196
3704.12218	0.07498
3703.15781	0.07848
3702.19345	0.08181
3701.22908	0.08424
3700.26472	0.08516
3699.30036	0.08428
3698.33599	0.08267
3697.37163	0.08103
3696.40726	0.07984
3695.4429	0.07924
3694.47854	0.07902
3693.51417	0.0792
3692.54981	0.07997
3691.58544	0.08124
3690.62108	0.08239
3689.65672	0.0831
3688.69235	0.08424
3687.72799	0.08647
3686.76362	0.08812
3685.79926	0.08802
3684.8349	0.08746
3683.87053	0.08738
3682.90617	0.08828
3681.9418	0.08972
3680.97744	0.09051
3680.01308	0.09019
3679.04871	0.08879
3678.08435	0.08695
3677.11998	0.08524
3676.15562	0.08377
3675.19126	0.08312
3674.22689	0.08351
3673.26253	0.08471
3672.29816	0.08658
3671.3338	0.08916
3670.36944	0.0925
3669.40507	0.09663
3668.44071	0.1013
3667.47634	0.10563
3666.51198	0.10938
3665.54762	0.11297
3664.58325	0.11615
3663.61889	0.11811
3662.65452	0.12002
3661.69016	0.12279
3660.7258	0.12507
3659.76143	0.1263
3658.79707	0.12557
3657.8327	0.12258
3656.86834	0.11891
3655.90398	0.11587
3654.93961	0.11384
3653.97525	0.11256
3653.01088	0.1117
3652.04652	0.11129
3651.08216	0.11157
3650.11779	0.11258
3649.15343	0.11413
3648.18906	0.11613
3647.2247	0.11882
3646.26034	0.1223
3645.29597	0.12599
3644.33161	0.12922
3643.36724	0.13271
3642.40288	0.13742
3641.43852	0.14333
3640.47415	0.14889
3639.50979	0.1523
3638.54542	0.1536
3637.58106	0.15343
3636.6167	0.15269
3635.65233	0.15155
3634.68797	0.15053
3633.7236	0.15046
3632.75924	0.15146
3631.79488	0.1531
3630.83051	0.15469
3629.86615	0.15581
3628.90178	0.15666
3627.93742	0.15775
3626.97306	0.15934
3626.00869	0.1613
3625.04433	0.16349
3624.07996	0.16573
3623.1156	0.16782
3622.15124	0.16996
3621.18687	0.17254
3620.22251	0.1756
3619.25814	0.17865
3618.29378	0.18087
3617.32942	0.18142
3616.36505	0.18126
3615.40069	0.18216
3614.43632	0.18405
3613.47196	0.18669
3612.5076	0.18998
3611.54323	0.19363
3610.57887	0.19745
3609.6145	0.20129
3608.65014	0.20495
3607.68578	0.20825
3606.72141	0.21114
3605.75705	0.21384
3604.79268	0.2167
3603.82832	0.21956
3602.86396	0.22219
3601.89959	0.2247
3600.93523	0.22743
3599.97086	0.23058
3599.0065	0.23379
3598.04214	0.23613
3597.07777	0.23738
3596.11341	0.23821
3595.14904	0.23913
3594.18468	0.24043
3593.22031	0.24241
3592.25595	0.24505
3591.29159	0.248
3590.32722	0.25099
3589.36286	0.25397
3588.39849	0.25693
3587.43413	0.25996
3586.46977	0.26315
3585.5054	0.26646
3584.54104	0.26975
3583.57667	0.27291
3582.61231	0.2761
3581.64795	0.27955
3580.68358	0.28355
3579.71922	0.28827
3578.75485	0.29309
3577.79049	0.29682
3576.82613	0.29884
3575.86176	0.29938
3574.8974	0.29922
3573.93303	0.29927
3572.96867	0.29995
3572.00431	0.30106
3571.03994	0.3023
3570.07558	0.30376
3569.11121	0.30556
3568.14685	0.30757
3567.18249	0.30984
3566.21812	0.3126
3565.25376	0.31578
3564.28939	0.31919
3563.32503	0.32257
3562.36067	0.32593
3561.3963	0.32961
3560.43194	0.3339
3559.46757	0.3387
3558.50321	0.34369
3557.53885	0.3485
3556.57448	0.35259
3555.61012	0.35531
3554.64575	0.35674
3553.68139	0.35784
3552.71703	0.35938
3551.75266	0.36134
3550.7883	0.36352
3549.82393	0.36594
3548.85957	0.36858
3547.89521	0.37123
3546.93084	0.37387
3545.96648	0.37666
3545.00211	0.37966
3544.03775	0.38293
3543.07339	0.38645
3542.10902	0.39001
3541.14466	0.39342
3540.18029	0.39666
3539.21593	0.39989
3538.25157	0.40315
3537.2872	0.40637
3536.32284	0.40947
3535.35847	0.41227
3534.39411	0.41458
3533.42975	0.41636
3532.46538	0.41795
3531.50102	0.41977
3530.53665	0.42196
3529.57229	0.42441
3528.60793	0.42704
3527.64356	0.42984
3526.6792	0.43286
3525.71483	0.43606
3524.75047	0.43932
3523.78611	0.44273
3522.82174	0.44651
3521.85738	0.45068
3520.89301	0.45494
3519.92865	0.45899
3518.96429	0.46292
3517.99992	0.46692
3517.03556	0.47098
3516.07119	0.47504
3515.10683	0.47903
3514.14247	0.48291
3513.1781	0.48666
3512.21374	0.49025
3511.24937	0.49369
3510.28501	0.49726
3509.32065	0.50125
3508.35628	0.50555
3507.39192	0.50981
3506.42755	0.51388
3505.46319	0.51784
3504.49883	0.52173
3503.53446	0.52552
3502.5701	0.52915
3501.60573	0.53258
3500.64137	0.53574
3499.67701	0.5385
3498.71264	0.54064
3497.74828	0.54212
3496.78391	0.54318
3495.81955	0.5442
3494.85519	0.54527
3493.89082	0.54619
3492.92646	0.54671
3491.96209	0.54672
3490.99773	0.54639
3490.03337	0.54608
3489.069	0.54607
3488.10464	0.5464
3487.14027	0.54702
3486.17591	0.54782
3485.21155	0.54864
3484.24718	0.54945
3483.28282	0.55036
3482.31845	0.55144
3481.35409	0.55266
3480.38973	0.55402
3479.42536	0.55552
3478.461	0.55711
3477.49663	0.55867
3476.53227	0.56015
3475.56791	0.56162
3474.60354	0.56322
3473.63918	0.56485
3472.67481	0.56638
3471.71045	0.56777
3470.74609	0.56897
3469.78172	0.57001
3468.81736	0.57101
3467.85299	0.57209
3466.88863	0.57326
3465.92427	0.57445
3464.9599	0.57562
3463.99554	0.57674
3463.03117	0.57778
3462.06681	0.57881
3461.10245	0.57994
3460.13808	0.58125
3459.17372	0.58262
3458.20935	0.5838
3457.24499	0.58478
3456.28062	0.58571
3455.31626	0.58668
3454.3519	0.58769
3453.38753	0.58867
3452.42317	0.5896
3451.4588	0.59047
3450.49444	0.59127
3449.53008	0.59208
3448.56571	0.593
3447.60135	0.59404
3446.63698	0.59517
3445.67262	0.59643
3444.70826	0.5978
3443.74389	0.59923
3442.77953	0.60071
3441.81516	0.60226
3440.8508	0.60391
3439.88644	0.60568
3438.92207	0.60754
3437.95771	0.60945
3436.99334	0.61133
3436.02898	0.61301
3435.06462	0.61445
3434.10025	0.61585
3433.13589	0.61734
3432.17152	0.61879
3431.20716	0.61999
3430.2428	0.62093
3429.27843	0.62174
3428.31407	0.62255
3427.3497	0.62335
3426.38534	0.62412
3425.42098	0.62486
3424.45661	0.62558
3423.49225	0.62628
3422.52788	0.62698
3421.56352	0.62763
3420.59916	0.6282
3419.63479	0.62874
3418.67043	0.62928
3417.70606	0.6298
3416.7417	0.63029
3415.77734	0.63068
3414.81297	0.63092
3413.84861	0.63104
3412.88424	0.63106
3411.91988	0.63098
3410.95552	0.63078
3409.99115	0.63042
3409.02679	0.62988
3408.06242	0.62912
3407.09806	0.62824
3406.1337	0.62737
3405.16933	0.62655
3404.20497	0.6257
3403.2406	0.62475
3402.27624	0.62378
3401.31188	0.62289
3400.34751	0.62209
3399.38315	0.62138
3398.41878	0.62079
3397.45442	0.62034
3396.49006	0.61996
3395.52569	0.61961
3394.56133	0.61927
3393.59696	0.61896
3392.6326	0.6187
3391.66824	0.61848
3390.70387	0.61832
3389.73951	0.61824
3388.77514	0.61826
3387.81078	0.61837
3386.84642	0.61854
3385.88205	0.61871
3384.91769	0.61887
3383.95332	0.61908
3382.98896	0.61937
3382.0246	0.61969
3381.06023	0.61999
3380.09587	0.62028
3379.1315	0.62067
3378.16714	0.62116
3377.20278	0.62166
3376.23841	0.62213
3375.27405	0.62256
3374.30968	0.62294
3373.34532	0.62323
3372.38096	0.62344
3371.41659	0.62361
3370.45223	0.62379
3369.48786	0.62398
3368.5235	0.62416
3367.55914	0.62429
3366.59477	0.62432
3365.63041	0.62426
3364.66604	0.62414
3363.70168	0.62397
3362.73732	0.62375
3361.77295	0.62348
3360.80859	0.62318
3359.84422	0.62283
3358.87986	0.62244
3357.9155	0.62196
3356.95113	0.62135
3355.98677	0.6206
3355.0224	0.61974
3354.05804	0.61878
3353.09368	0.6177
3352.12931	0.61653
3351.16495	0.61529
3350.20058	0.61401
3349.23622	0.61273
3348.27186	0.61147
3347.30749	0.61017
3346.34313	0.60884
3345.37876	0.60745
3344.4144	0.60601
3343.45004	0.60456
3342.48567	0.60313
3341.52131	0.60179
3340.55694	0.60052
3339.59258	0.5993
3338.62822	0.59807
3337.66385	0.59681
3336.69949	0.59553
3335.73512	0.59424
3334.77076	0.59293
3333.8064	0.59159
3332.84203	0.59024
3331.87767	0.58891
3330.9133	0.58763
3329.94894	0.5864
3328.98458	0.58524
3328.02021	0.58414
3327.05585	0.58315
3326.09148	0.58229
3325.12712	0.58154
3324.16276	0.58084
3323.19839	0.58021
3322.23403	0.57972
3321.26966	0.57938
3320.3053	0.57916
3319.34094	0.57899
3318.37657	0.57888
3317.41221	0.57882
3316.44784	0.57882
3315.48348	0.57886
3314.51911	0.57891
3313.55475	0.57895
3312.59039	0.57893
3311.62602	0.5788
3310.66166	0.57853
3309.69729	0.57811
3308.73293	0.57751
3307.76857	0.57672
3306.8042	0.57578
3305.83984	0.5747
3304.87547	0.57347
3303.91111	0.57211
3302.94675	0.57062
3301.98238	0.56899
3301.01802	0.56727
3300.05365	0.5655
3299.08929	0.56371
3298.12493	0.56191
3297.16056	0.56013
3296.1962	0.55842
3295.23183	0.55682
3294.26747	0.55534
3293.30311	0.554
3292.33874	0.5528
3291.37438	0.55171
3290.41001	0.5507
3289.44565	0.54977
3288.48129	0.54891
3287.51692	0.54809
3286.55256	0.54728
3285.58819	0.54646
3284.62383	0.54559
3283.65947	0.5447
3282.6951	0.5438
3281.73074	0.54287
3280.76637	0.5419
3279.80201	0.5409
3278.83765	0.53987
3277.87328	0.53881
3276.90892	0.53767
3275.94455	0.5364
3274.98019	0.53501
3274.01583	0.53353
3273.05146	0.53196
3272.0871	0.53025
3271.12273	0.52841
3270.15837	0.52647
3269.19401	0.52444
3268.22964	0.5223
3267.26528	0.52006
3266.30091	0.51775
3265.33655	0.51533
3264.37219	0.51274
3263.40782	0.51002
3262.44346	0.5072
3261.47909	0.50427
3260.51473	0.50127
3259.55037	0.49828
3258.586	0.49533
3257.62164	0.49242
3256.65727	0.48949
3255.69291	0.48648
3254.72855	0.48338
3253.76418	0.48023
3252.79982	0.47705
3251.83545	0.47384
3250.87109	0.47062
3249.90673	0.4674
3248.94236	0.46418
3247.978	0.46092
3247.01363	0.45763
3246.04927	0.45435
3245.08491	0.45113
3244.12054	0.44798
3243.15618	0.44487
3242.19181	0.44175
3241.22745	0.43865
3240.26309	0.43561
3239.29872	0.43263
3238.33436	0.42969
3237.36999	0.42678
3236.40563	0.42395
3235.44127	0.42122
3234.4769	0.41859
3233.51254	0.416
3232.54817	0.41345
3231.58381	0.41102
3230.61945	0.40872
3229.65508	0.40653
3228.69072	0.40448
3227.72635	0.40257
3226.76199	0.40083
3225.79763	0.39922
3224.83326	0.39768
3223.8689	0.3962
3222.90453	0.39482
3221.94017	0.39352
3220.97581	0.39217
3220.01144	0.39072
3219.04708	0.38916
3218.08271	0.38747
3217.11835	0.38562
3216.15399	0.38361
3215.18962	0.38144
3214.22526	0.3791
3213.26089	0.37663
3212.29653	0.37408
3211.33217	0.37145
3210.3678	0.36877
3209.40344	0.36602
3208.43907	0.36318
3207.47471	0.36032
3206.51035	0.35752
3205.54598	0.35485
3204.58162	0.35229
3203.61725	0.34984
3202.65289	0.34748
3201.68853	0.34517
3200.72416	0.34293
3199.7598	0.34074
3198.79543	0.33855
3197.83107	0.33631
3196.86671	0.33401
3195.90234	0.33164
3194.93798	0.32922
3193.97361	0.32673
3193.00925	0.3242
3192.04489	0.32161
3191.08052	0.31898
3190.11616	0.31632
3189.15179	0.31357
3188.18743	0.31073
3187.22307	0.30783
3186.2587	0.30489
3185.29434	0.30193
3184.32997	0.29898
3183.36561	0.29611
3182.40125	0.29331
3181.43688	0.29058
3180.47252	0.2879
3179.50815	0.28524
3178.54379	0.28264
3177.57943	0.2801
3176.61506	0.27761
3175.6507	0.27517
3174.68633	0.27276
3173.72197	0.27037
3172.7576	0.268
3171.79324	0.2657
3170.82888	0.26346
3169.86451	0.26127
3168.90015	0.25911
3167.93578	0.257
3166.97142	0.25489
3166.00706	0.25278
3165.04269	0.25071
3164.07833	0.24873
3163.11396	0.24682
3162.1496	0.24496
3161.18524	0.24312
3160.22087	0.24132
3159.25651	0.23954
3158.29214	0.23775
3157.32778	0.23595
3156.36342	0.23415
3155.39905	0.23236
3154.43469	0.23057
3153.47032	0.22875
3152.50596	0.22691
3151.5416	0.22505
3150.57723	0.22319
3149.61287	0.22135
3148.6485	0.21953
3147.68414	0.21773
3146.71978	0.21595
3145.75541	0.2142
3144.79105	0.21244
3143.82668	0.21062
3142.86232	0.20877
3141.89796	0.20691
3140.93359	0.20508
3139.96923	0.2033
3139.00486	0.20156
3138.0405	0.19981
3137.07614	0.19801
3136.11177	0.19621
3135.14741	0.19443
3134.18304	0.19265
3133.21868	0.19083
3132.25432	0.18898
3131.28995	0.18719
3130.32559	0.18546
3129.36122	0.18378
3128.39686	0.18218
3127.4325	0.18066
3126.46813	0.17918
3125.50377	0.17774
3124.5394	0.17634
3123.57504	0.17496
3122.61068	0.17352
3121.64631	0.17198
3120.68195	0.17034
3119.71758	0.16871
3118.75322	0.16712
3117.78886	0.16553
3116.82449	0.16393
3115.86013	0.1623
3114.89576	0.16061
3113.9314	0.15887
3112.96704	0.1571
3112.00267	0.1553
3111.03831	0.15344
3110.07394	0.15159
3109.10958	0.14986
3108.14522	0.14826
3107.18085	0.1467
3106.21649	0.14513
3105.25212	0.1436
3104.28776	0.1421
3103.3234	0.14063
3102.35903	0.13924
3101.39467	0.13795
3100.4303	0.13673
3099.46594	0.13554
3098.50158	0.13439
3097.53721	0.13328
3096.57285	0.13224
3095.60848	0.13126
3094.64412	0.13034
3093.67976	0.12945
3092.71539	0.12856
3091.75103	0.12766
3090.78666	0.12675
3089.8223	0.12581
3088.85794	0.12487
3087.89357	0.12396
3086.92921	0.12311
3085.96484	0.12231
3085.00048	0.1215
3084.03612	0.12063
3083.07175	0.11972
3082.10739	0.11883
3081.14302	0.11798
3080.17866	0.11717
3079.2143	0.11644
3078.24993	0.11579
3077.28557	0.11518
3076.3212	0.1146
3075.35684	0.11399
3074.39248	0.11334
3073.42811	0.11274
3072.46375	0.11219
3071.49938	0.11167
3070.53502	0.11114
3069.57066	0.11062
3068.60629	0.11013
3067.64193	0.10967
3066.67756	0.10919
3065.7132	0.10876
3064.74884	0.10838
3063.78447	0.10803
3062.82011	0.10771
3061.85574	0.10745
3060.89138	0.10726
3059.92702	0.10708
3058.96265	0.10688
3057.99829	0.10669
3057.03392	0.10654
3056.06956	0.10644
3055.1052	0.10635
3054.14083	0.10626
3053.17647	0.10616
3052.2121	0.10601
3051.24774	0.10585
3050.28338	0.10572
3049.31901	0.10556
3048.35465	0.10535
3047.39028	0.10509
3046.42592	0.1048
3045.46156	0.10445
3044.49719	0.10405
3043.53283	0.10363
3042.56846	0.10317
3041.6041	0.10263
3040.63974	0.10204
3039.67537	0.10147
3038.71101	0.10095
3037.74664	0.1004
3036.78228	0.09979
3035.81792	0.09916
3034.85355	0.09861
3033.88919	0.09813
3032.92482	0.0977
3031.96046	0.09731
3030.99609	0.09699
3030.03173	0.09675
3029.06737	0.09661
3028.103	0.09656
3027.13864	0.09659
3026.17427	0.09666
3025.20991	0.09681
3024.24555	0.09705
3023.28118	0.09735
3022.31682	0.09772
3021.35245	0.09817
3020.38809	0.09866
3019.42373	0.09917
3018.45936	0.09975
3017.495	0.10045
3016.53063	0.10122
3015.56627	0.10201
3014.60191	0.10285
3013.63754	0.10376
3012.67318	0.10478
3011.70881	0.10589
3010.74445	0.10705
3009.78009	0.10829
3008.81572	0.10963
3007.85136	0.11111
3006.88699	0.11268
3005.92263	0.11432
3004.95827	0.11602
3003.9939	0.11777
3003.02954	0.1196
3002.06517	0.12156
3001.10081	0.12363
3000.13645	0.12581
2999.17208	0.12811
2998.20772	0.13054
2997.24335	0.1331
2996.27899	0.13584
2995.31463	0.13875
2994.35026	0.14183
2993.3859	0.14506
2992.42153	0.14846
2991.45717	0.15208
2990.49281	0.15593
2989.52844	0.15998
2988.56408	0.16419
2987.59971	0.16853
2986.63535	0.17301
2985.67099	0.17763
2984.70662	0.18234
2983.74226	0.18707
2982.77789	0.19179
2981.81353	0.19652
2980.84917	0.20125
2979.8848	0.20593
2978.92044	0.21053
2977.95607	0.21498
2976.99171	0.21925
2976.02735	0.22329
2975.06298	0.22707
2974.09862	0.23059
2973.13425	0.23381
2972.16989	0.23668
2971.20553	0.23918
2970.24116	0.24131
2969.2768	0.24306
2968.31243	0.24444
2967.34807	0.24549
2966.38371	0.24625
2965.41934	0.24675
2964.45498	0.24708
2963.49061	0.24737
2962.52625	0.24774
2961.56189	0.24823
2960.59752	0.2489
2959.63316	0.24983
2958.66879	0.25112
2957.70443	0.25283
2956.74007	0.25502
2955.7757	0.25775
2954.81134	0.26103
2953.84697	0.26488
2952.88261	0.26929
2951.91825	0.27425
2950.95388	0.27972
2949.98952	0.28565
2949.02515	0.29196
2948.06079	0.29859
2947.09643	0.30545
2946.13206	0.31243
2945.1677	0.31942
2944.20333	0.32632
2943.23897	0.33305
2942.27461	0.33954
2941.31024	0.34576
2940.34588	0.35166
2939.38151	0.35716
2938.41715	0.3622
2937.45279	0.36674
2936.48842	0.37076
2935.52406	0.37427
2934.55969	0.37728
2933.59533	0.37978
2932.63097	0.38178
2931.6666	0.3833
2930.70224	0.38433
2929.73787	0.38488
2928.77351	0.38499
2927.80915	0.38467
2926.84478	0.38391
2925.88042	0.38267
2924.91605	0.38092
2923.95169	0.37864
2922.98733	0.37578
2922.02296	0.37234
2921.0586	0.36835
2920.09423	0.36387
2919.12987	0.35899
2918.16551	0.35378
2917.20114	0.34831
2916.23678	0.34262
2915.27241	0.33682
2914.30805	0.33103
2913.34369	0.32533
2912.37932	0.31982
2911.41496	0.31455
2910.45059	0.30958
2909.48623	0.30494
2908.52187	0.30068
2907.5575	0.29684
2906.59314	0.29342
2905.62877	0.29038
2904.66441	0.2876
2903.70005	0.28501
2902.73568	0.28255
2901.77132	0.28013
2900.80695	0.27769
2899.84259	0.27519
2898.87823	0.27261
2897.91386	0.26993
2896.9495	0.26717
2895.98513	0.26433
2895.02077	0.26141
2894.05641	0.25845
2893.09204	0.25549
2892.12768	0.25259
2891.16331	0.24979
2890.19895	0.24713
2889.23458	0.2446
2888.27022	0.24222
2887.30586	0.24
2886.34149	0.23794
2885.37713	0.23606
2884.41276	0.23436
2883.4484	0.23278
2882.48404	0.23124
2881.51967	0.22969
2880.55531	0.22811
2879.59094	0.22645
2878.62658	0.22464
2877.66222	0.22266
2876.69785	0.22049
2875.73349	0.21811
2874.76912	0.21553
2873.80476	0.21276
2872.8404	0.20979
2871.87603	0.20666
2870.91167	0.20343
2869.9473	0.20017
2868.98294	0.19694
2868.01858	0.19377
2867.05421	0.19071
2866.08985	0.18782
2865.12548	0.18515
2864.16112	0.18276
2863.19676	0.18066
2862.23239	0.17884
2861.26803	0.17729
2860.30366	0.17593
2859.3393	0.17469
2858.37494	0.17348
2857.41057	0.17218
2856.44621	0.17066
2855.48184	0.16885
2854.51748	0.1667
2853.55312	0.16416
2852.58875	0.16122
2851.62439	0.15787
2850.66002	0.15415
2849.69566	0.15011
2848.7313	0.14585
2847.76693	0.14142
2846.80257	0.13689
2845.8382	0.13234
2844.87384	0.12787
2843.90948	0.12357
2842.94511	0.11951
2841.98075	0.11575
2841.01638	0.11234
2840.05202	0.10929
2839.08766	0.10658
2838.12329	0.10422
2837.15893	0.10216
2836.19456	0.10036
2835.2302	0.09878
2834.26584	0.09737
2833.30147	0.09607
2832.33711	0.09489
2831.37274	0.09382
2830.40838	0.09283
2829.44402	0.09192
2828.47965	0.09107
2827.51529	0.09028
2826.55092	0.08954
2825.58656	0.08884
2824.6222	0.08815
2823.65783	0.08743
2822.69347	0.08671
2821.7291	0.08601
2820.76474	0.08533
2819.80038	0.08467
2818.83601	0.084
2817.87165	0.08331
2816.90728	0.0826
2815.94292	0.08186
2814.97856	0.08107
2814.01419	0.08022
2813.04983	0.07933
2812.08546	0.07841
2811.1211	0.07747
2810.15674	0.07651
2809.19237	0.07556
2808.22801	0.07463
2807.26364	0.07371
2806.29928	0.07281
2805.33492	0.07192
2804.37055	0.07103
2803.40619	0.07015
2802.44182	0.06931
2801.47746	0.06852
2800.5131	0.06778
2799.54873	0.06712
2798.58437	0.06657
2797.62	0.0661
2796.65564	0.06568
2795.69128	0.06526
2794.72691	0.06484
2793.76255	0.06441
2792.79818	0.06397
2791.83382	0.06353
2790.86946	0.06308
2789.90509	0.06262
2788.94073	0.06213
2787.97636	0.06166
2787.012	0.06121
2786.04764	0.0608
2785.08327	0.06042
2784.11891	0.06005
2783.15454	0.05971
2782.19018	0.05937
2781.22582	0.05902
2780.26145	0.05867
2779.29709	0.05833
2778.33272	0.05801
2777.36836	0.05772
2776.404	0.05742
2775.43963	0.05711
2774.47527	0.0568
2773.5109	0.05648
2772.54654	0.05614
2771.58218	0.05579
2770.61781	0.05543
2769.65345	0.05507
2768.68908	0.05473
2767.72472	0.0544
2766.76036	0.05405
2765.79599	0.0537
2764.83163	0.05337
2763.86726	0.05308
2762.9029	0.05282
2761.93854	0.05256
2760.97417	0.05231
2760.00981	0.05207
2759.04544	0.05186
2758.08108	0.05166
2757.11672	0.05147
2756.15235	0.05127
2755.18799	0.05106
2754.22362	0.05088
2753.25926	0.0507
2752.2949	0.0505
2751.33053	0.05028
2750.36617	0.05007
2749.4018	0.04986
2748.43744	0.04967
2747.47307	0.04951
2746.50871	0.04935
2745.54435	0.04919
2744.57998	0.04905
2743.61562	0.04889
2742.65125	0.04873
2741.68689	0.04856
2740.72253	0.0484
2739.75816	0.04822
2738.7938	0.04805
2737.82943	0.04788
2736.86507	0.04775
2735.90071	0.04765
2734.93634	0.04757
2733.97198	0.04746
2733.00761	0.04733
2732.04325	0.04719
2731.07889	0.04704
2730.11452	0.04689
2729.15016	0.04672
2728.18579	0.04652
2727.22143	0.04633
2726.25707	0.04615
2725.2927	0.04598
2724.32834	0.0458
2723.36397	0.04558
2722.39961	0.04534
2721.43525	0.04508
2720.47088	0.04484
2719.50652	0.04461
2718.54215	0.04437
2717.57779	0.04411
2716.61343	0.04385
2715.64906	0.04362
2714.6847	0.04341
2713.72033	0.04321
2712.75597	0.04301
2711.79161	0.04279
2710.82724	0.04259
2709.86288	0.0424
2708.89851	0.04222
2707.93415	0.04203
2706.96979	0.04185
2706.00542	0.04167
2705.04106	0.04148
2704.07669	0.04127
2703.11233	0.04106
2702.14797	0.04086
2701.1836	0.04067
2700.21924	0.04047
2699.25487	0.04028
2698.29051	0.04009
2697.32615	0.03993
2696.36178	0.03977
2695.39742	0.03961
2694.43305	0.03944
2693.46869	0.03925
2692.50433	0.03907
2691.53996	0.03892
2690.5756	0.03878
2689.61123	0.03865
2688.64687	0.03853
2687.68251	0.03845
2686.71814	0.03839
2685.75378	0.03832
2684.78941	0.03822
2683.82505	0.03812
2682.86069	0.03803
2681.89632	0.03795
2680.93196	0.03785
2679.96759	0.03775
2679.00323	0.03764
2678.03887	0.03755
2677.0745	0.03744
2676.11014	0.03731
2675.14577	0.03716
2674.18141	0.037
2673.21705	0.03685
2672.25268	0.0367
2671.28832	0.03652
2670.32395	0.03632
2669.35959	0.03613
2668.39523	0.03597
2667.43086	0.0358
2666.4665	0.03561
2665.50213	0.03542
2664.53777	0.03522
2663.57341	0.03503
2662.60904	0.03483
2661.64468	0.03465
2660.68031	0.03446
2659.71595	0.03426
2658.75159	0.03407
2657.78722	0.03389
2656.82286	0.0337
2655.85849	0.03351
2654.89413	0.0333
2653.92977	0.03311
2652.9654	0.03293
2652.00104	0.03277
2651.03667	0.0326
2650.07231	0.03243
2649.10795	0.03227
2648.14358	0.03212
2647.17922	0.03198
2646.21485	0.03184
2645.25049	0.0317
2644.28613	0.03159
2643.32176	0.03148
2642.3574	0.03137
2641.39303	0.03124
2640.42867	0.03109
2639.46431	0.03094
2638.49994	0.03079
2637.53558	0.03063
2636.57121	0.03045
2635.60685	0.03029
2634.64249	0.03013
2633.67812	0.02996
2632.71376	0.02977
2631.74939	0.02956
2630.78503	0.02936
2629.82067	0.02916
2628.8563	0.02897
2627.89194	0.02877
2626.92757	0.02857
2625.96321	0.02839
2624.99885	0.02824
2624.03448	0.02811
2623.07012	0.02797
2622.10575	0.02783
2621.14139	0.02768
2620.17703	0.02754
2619.21266	0.02738
2618.2483	0.02721
2617.28393	0.02702
2616.31957	0.02685
2615.35521	0.02672
2614.39084	0.0266
2613.42648	0.02648
2612.46211	0.02635
2611.49775	0.02622
2610.53339	0.0261
2609.56902	0.02598
2608.60466	0.02585
2607.64029	0.02571
2606.67593	0.02559
2605.71156	0.02549
2604.7472	0.02541
2603.78284	0.02532
2602.81847	0.02522
2601.85411	0.02512
2600.88974	0.02504
2599.92538	0.02495
2598.96102	0.02484
2597.99665	0.02473
2597.03229	0.02462
2596.06792	0.02453
2595.10356	0.02444
2594.1392	0.02435
2593.17483	0.02426
2592.21047	0.02419
2591.2461	0.02411
2590.28174	0.02403
2589.31738	0.02395
2588.35301	0.02387
2587.38865	0.0238
2586.42428	0.02373
2585.45992	0.02367
2584.49556	0.0236
2583.53119	0.02353
2582.56683	0.02347
2581.60246	0.02341
2580.6381	0.02335
2579.67374	0.02328
2578.70937	0.02321
2577.74501	0.02314
2576.78064	0.02308
2575.81628	0.02302
2574.85192	0.02295
2573.88755	0.02287
2572.92319	0.02281
2571.95882	0.02276
2570.99446	0.0227
2570.0301	0.02263
2569.06573	0.02254
2568.10137	0.02247
2567.137	0.0224
2566.17264	0.02234
2565.20828	0.02226
2564.24391	0.02218
2563.27955	0.0221
2562.31518	0.02203
2561.35082	0.02196
2560.38646	0.02186
2559.42209	0.02176
2558.45773	0.02167
2557.49336	0.0216
2556.529	0.02154
2555.56464	0.02145
2554.60027	0.02135
2553.63591	0.02126
2552.67154	0.02118
2551.70718	0.02109
2550.74282	0.02099
2549.77845	0.02089
2548.81409	0.0208
2547.84972	0.0207
2546.88536	0.02059
2545.921	0.02048
2544.95663	0.0204
2543.99227	0.02033
2543.0279	0.02027
2542.06354	0.0202
2541.09918	0.02012
2540.13481	0.02007
2539.17045	0.02005
2538.20608	0.02002
2537.24172	0.01999
2536.27736	0.01996
2535.31299	0.01996
2534.34863	0.01998
2533.38426	0.02001
2532.4199	0.02001
2531.45554	0.02
2530.49117	0.02001
2529.52681	0.02003
2528.56244	0.02004
2527.59808	0.02004
2526.63372	0.02003
2525.66935	0.02003
2524.70499	0.02003
2523.74062	0.02003
2522.77626	0.02003
2521.8119	0.02003
2520.84753	0.02003
2519.88317	0.02003
2518.9188	0.02003
2517.95444	0.02003
2516.99008	0.02003
2516.02571	0.02003
2515.06135	0.02003
2514.09698	0.02003
2513.13262	0.02003
2512.16826	0.02003
2511.20389	0.02003
2510.23953	0.02003
2509.27516	0.02003
2508.3108	0.02003
2507.34644	0.02003
2506.38207	0.02003
2505.41771	0.02003
2504.45334	0.02003
2503.48898	0.02003
2502.52462	0.02003
2501.56025	0.02003
2500.59589	0.02003
2499.63152	0.02003
2498.66716	0.02003
2497.7028	0.02003
2496.73843	0.02003
2495.77407	0.02003
2494.8097	0.02003
2493.84534	0.02003
2492.88098	0.02003
2491.91661	0.02003
2490.95225	0.02003
2489.98788	0.02003
2489.02352	0.02003
2488.05916	0.02003
2487.09479	0.02003
2486.13043	0.02003
2485.16606	0.02003
2484.2017	0.02003
2483.23734	0.02003
2482.27297	0.02003
2481.30861	0.02003
2480.34424	0.02003
2479.37988	0.02003
2478.41552	0.02003
2477.45115	0.02003
2476.48679	0.02003
2475.52242	0.02003
2474.55806	0.02003
2473.5937	0.02003
2472.62933	0.02003
2471.66497	0.02003
2470.7006	0.02003
2469.73624	0.02003
2468.77187	0.02003
2467.80751	0.02003
2466.84315	0.02003
2465.87878	0.02003
2464.91442	0.02003
2463.95005	0.02003
2462.98569	0.02003
2462.02133	0.02003
2461.05696	0.02003
2460.0926	0.02003
2459.12823	0.02003
2458.16387	0.02003
2457.19951	0.02003
2456.23514	0.02003
2455.27078	0.02003
2454.30641	0.02003
2453.34205	0.02003
2452.37769	0.02003
2451.41332	0.02003
2450.44896	0.02003
2449.48459	0.02003
2448.52023	0.02003
2447.55587	0.02003
2446.5915	0.02003
2445.62714	0.02003
2444.66277	0.02003
2443.69841	0.02003
2442.73405	0.02003
2441.76968	0.02003
2440.80532	0.02003
2439.84095	0.02003
2438.87659	0.02003
2437.91223	0.02003
2436.94786	0.02003
2435.9835	0.02003
2435.01913	0.02003
2434.05477	0.02003
2433.09041	0.02003
2432.12604	0.02003
2431.16168	0.02003
2430.19731	0.02003
2429.23295	0.02003
2428.26859	0.02003
2427.30422	0.02003
2426.33986	0.02003
2425.37549	0.02003
2424.41113	0.02003
2423.44677	0.02003
2422.4824	0.02003
2421.51804	0.02003
2420.55367	0.02003
2419.58931	0.02003
2418.62495	0.02003
2417.66058	0.02003
2416.69622	0.02003
2415.73185	0.02003
2414.76749	0.02003
2413.80313	0.02003
2412.83876	0.02003
2411.8744	0.02003
2410.91003	0.02003
2409.94567	0.02003
2408.98131	0.02003
2408.01694	0.02003
2407.05258	0.02003
2406.08821	0.02003
2405.12385	0.02003
2404.15949	0.02003
2403.19512	0.02003
2402.23076	0.02003
2401.26639	0.02003
2400.30203	0.02003
2399.33767	0.02003
2398.3733	0.02003
2397.40894	0.02003
2396.44457	0.02003
2395.48021	0.02003
2394.51585	0.02003
2393.55148	0.02003
2392.58712	0.02003
2391.62275	0.02003
2390.65839	0.02003
2389.69403	0.02003
2388.72966	0.02003
2387.7653	0.02003
2386.80093	0.02003
2385.83657	0.02003
2384.87221	0.02003
2383.90784	0.02003
2382.94348	0.02003
2381.97911	0.02003
2381.01475	0.02003
2380.05039	0.02003
2379.08602	0.02003
2378.12166	0.02003
2377.15729	0.02003
2376.19293	0.02003
2375.22857	0.02003
2374.2642	0.02003
2373.29984	0.02003
2372.33547	0.02003
2371.37111	0.02003
2370.40675	0.02003
2369.44238	0.02003
2368.47802	0.02003
2367.51365	0.02003
2366.54929	0.02003
2365.58493	0.02003
2364.62056	0.02003
2363.6562	0.02003
2362.69183	0.02003
2361.72747	0.02003
2360.76311	0.02003
2359.79874	0.02003
2358.83438	0.02003
2357.87001	0.02003
2356.90565	0.02003
2355.94129	0.02003
2354.97692	0.02003
2354.01256	0.02003
2353.04819	0.02003
2352.08383	0.02003
2351.11947	0.02003
2350.1551	0.02003
2349.19074	0.02003
2348.22637	0.02003
2347.26201	0.02003
2346.29765	0.02003
2345.33328	0.02003
2344.36892	0.02003
2343.40455	0.02003
2342.44019	0.02003
2341.47583	0.02003
2340.51146	0.02003
2339.5471	0.02003
2338.58273	0.02003
2337.61837	0.02003
2336.65401	0.02003
2335.68964	0.02003
2334.72528	0.02003
2333.76091	0.02003
2332.79655	0.02003
2331.83219	0.02003
2330.86782	0.02003
2329.90346	0.02003
2328.93909	0.02003
2327.97473	0.02003
2327.01036	0.02003
2326.046	0.02003
2325.08164	0.02003
2324.11727	0.02003
2323.15291	0.02003
2322.18854	0.02003
2321.22418	0.02003
2320.25982	0.02003
2319.29545	0.02003
2318.33109	0.02003
2317.36672	0.02003
2316.40236	0.02003
2315.438	0.02003
2314.47363	0.02003
2313.50927	0.02003
2312.5449	0.02003
2311.58054	0.02003
2310.61618	0.02003
2309.65181	0.02003
2308.68745	0.02003
2307.72308	0.02003
2306.75872	0.02003
2305.79436	0.02003
2304.82999	0.02003
2303.86563	0.02003
2302.90126	0.02003
2301.9369	0.02003
2300.97254	0.02003
2300.00817	0.02003
2299.04381	0.02003
2298.07944	0.02003
2297.11508	0.02003
2296.15072	0.02003
2295.18635	0.02003
2294.22199	0.02003
2293.25762	0.02003
2292.29326	0.02003
2291.3289	0.02003
2290.36453	0.02003
2289.40017	0.02003
2288.4358	0.02003
2287.47144	0.02003
2286.50708	0.02003
2285.54271	0.02003
2284.57835	0.02003
2283.61398	0.02003
2282.64962	0.02003
2281.68526	0.02003
2280.72089	0.02003
2279.75653	0.02003
2278.79216	0.02003
2277.8278	0.02003
2276.86344	0.02003
2275.89907	0.02003
2274.93471	0.02003
2273.97034	0.02003
2273.00598	0.02003
2272.04162	0.02003
2271.07725	0.02003
2270.11289	0.02003
2269.14852	0.02003
2268.18416	0.02003
2267.2198	0.02003
2266.25543	0.02003
2265.29107	0.02003
2264.3267	0.02003
2263.36234	0.02003
2262.39798	0.02003
2261.43361	0.02003
2260.46925	0.02003
2259.50488	0.02003
2258.54052	0.02003
2257.57616	0.02003
2256.61179	0.02003
2255.64743	0.02003
2254.68306	0.02003
2253.7187	0.02003
2252.75434	0.02003
2251.78997	0.02003
2250.82561	0.02003
2249.86124	0.02003
2248.89688	0.02003
2247.93252	0.02003
2246.96815	0.02003
2246.00379	0.02003
2245.03942	0.02003
2244.07506	0.02003
2243.1107	0.02003
2242.14633	0.02003
2241.18197	0.02003
2240.2176	0.02003
2239.25324	0.02003
2238.28888	0.02003
2237.32451	0.02003
2236.36015	0.02003
2235.39578	0.02003
2234.43142	0.02003
2233.46706	0.02003
2232.50269	0.02003
2231.53833	0.02003
2230.57396	0.02003
2229.6096	0.02003
2228.64524	0.02003
2227.68087	0.02003
2226.71651	0.02003
2225.75214	0.02003
2224.78778	0.02003
2223.82342	0.02003
2222.85905	0.02003
2221.89469	0.02003
2220.93032	0.02003
2219.96596	0.02003
2219.0016	0.02003
2218.03723	0.02003
2217.07287	0.02003
2216.1085	0.02003
2215.14414	0.02003
2214.17978	0.02003
2213.21541	0.02003
2212.25105	0.02003
2211.28668	0.02003
2210.32232	0.02003
2209.35796	0.02003
2208.39359	0.02003
2207.42923	0.02003
2206.46486	0.02003
2205.5005	0.02003
2204.53614	0.02003
2203.57177	0.02003
2202.60741	0.02003
2201.64304	0.02003
2200.67868	0.02003
2199.71432	0.02003
2198.74995	0.02003
2197.78559	0.02003
2196.82122	0.02003
2195.85686	0.02003
2194.8925	0.02003
2193.92813	0.02003
2192.96377	0.02003
2191.9994	0.02003
2191.03504	0.02003
2190.07068	0.02003
2189.10631	0.02003
2188.14195	0.02003
2187.17758	0.02003
2186.21322	0.02003
2185.24885	0.02003
2184.28449	0.02003
2183.32013	0.02003
2182.35576	0.02003
2181.3914	0.02003
2180.42703	0.02003
2179.46267	0.02003
2178.49831	0.02003
2177.53394	0.02003
2176.56958	0.02003
2175.60521	0.02003
2174.64085	0.02003
2173.67649	0.02003
2172.71212	0.02003
2171.74776	0.02003
2170.78339	0.02003
2169.81903	0.02003
2168.85467	0.02003
2167.8903	0.02004
2166.92594	0.02005
2165.96157	0.02004
2164.99721	0.02002
2164.03285	0.02
2163.06848	0.02
2162.10412	0.02
2161.13975	0.01999
2160.17539	0.01997
2159.21103	0.01997
2158.24666	0.01999
2157.2823	0.02002
2156.31793	0.02004
2155.35357	0.02004
2154.38921	0.02006
2153.42484	0.0201
2152.46048	0.02015
2151.49611	0.02019
2150.53175	0.02022
2149.56739	0.02026
2148.60302	0.02033
2147.63866	0.02041
2146.67429	0.02046
2145.70993	0.02049
2144.74557	0.02052
2143.7812	0.02056
2142.81684	0.0206
2141.85247	0.02065
2140.88811	0.0207
2139.92375	0.02076
2138.95938	0.02083
2137.99502	0.02091
2137.03065	0.02098
2136.06629	0.02106
2135.10193	0.02115
2134.13756	0.02124
2133.1732	0.02132
2132.20883	0.0214
2131.24447	0.02147
2130.28011	0.02155
2129.31574	0.02165
2128.35138	0.02175
2127.38701	0.02185
2126.42265	0.02195
2125.45829	0.02203
2124.49392	0.0221
2123.52956	0.02214
2122.56519	0.02218
2121.60083	0.02223
2120.63647	0.0223
2119.6721	0.02239
2118.70774	0.02248
2117.74337	0.02256
2116.77901	0.02264
2115.81465	0.02273
2114.85028	0.02284
2113.88592	0.02295
2112.92155	0.02304
2111.95719	0.02314
2110.99283	0.02324
2110.02846	0.02335
2109.0641	0.02344
2108.09973	0.02353
2107.13537	0.02363
2106.17101	0.02374
2105.20664	0.02387
2104.24228	0.02398
2103.27791	0.02408
2102.31355	0.02419
2101.34919	0.0243
2100.38482	0.02438
2099.42046	0.02444
2098.45609	0.02448
2097.49173	0.02452
2096.52737	0.02459
2095.563	0.02467
2094.59864	0.02474
2093.63427	0.0248
2092.66991	0.02487
2091.70555	0.02497
2090.74118	0.02508
2089.77682	0.02518
2088.81245	0.02524
2087.84809	0.0253
2086.88373	0.02538
2085.91936	0.02549
2084.955	0.02558
2083.99063	0.02565
2083.02627	0.02573
2082.06191	0.02582
2081.09754	0.02593
2080.13318	0.02605
2079.16881	0.02614
2078.20445	0.02623
2077.24009	0.02636
2076.27572	0.02645
2075.31136	0.02644
2074.34699	0.02637
2073.38263	0.02632
2072.41827	0.02632
2071.4539	0.02633
2070.48954	0.02633
2069.52517	0.02632
2068.56081	0.02634
2067.59645	0.02639
2066.63208	0.02645
2065.66772	0.0265
2064.70335	0.02655
2063.73899	0.02662
2062.77463	0.02672
2061.81026	0.02683
2060.8459	0.02692
2059.88153	0.02701
2058.91717	0.02713
2057.95281	0.02729
2056.98844	0.02747
2056.02408	0.02764
2055.05971	0.02779
2054.09535	0.02791
2053.13099	0.02795
2052.16662	0.02787
2051.20226	0.02774
2050.23789	0.0276
2049.27353	0.02748
2048.30917	0.02737
2047.3448	0.02726
2046.38044	0.02715
2045.41607	0.02703
2044.45171	0.02693
2043.48734	0.02686
2042.52298	0.0268
2041.55862	0.02672
2040.59425	0.02664
2039.62989	0.0266
2038.66552	0.02661
2037.70116	0.02663
2036.7368	0.02662
2035.77243	0.02663
2034.80807	0.02666
2033.8437	0.02672
2032.87934	0.02677
2031.91498	0.02682
2030.95061	0.02687
2029.98625	0.02692
2029.02188	0.0269
2028.05752	0.02676
2027.09316	0.02647
2026.12879	0.02614
2025.16443	0.02586
2024.20006	0.02564
2023.2357	0.02544
2022.27134	0.02526
2021.30697	0.02511
2020.34261	0.02501
2019.37824	0.02497
2018.41388	0.02493
2017.44952	0.02489
2016.48515	0.02487
2015.52079	0.02491
2014.55642	0.02502
2013.59206	0.02516
2012.6277	0.02532
2011.66333	0.02551
2010.69897	0.02575
2009.7346	0.02602
2008.77024	0.02629
2007.80588	0.02651
2006.84151	0.02666
2005.87715	0.02678
2004.91278	0.0269
2003.94842	0.02701
2002.98406	0.02689
2002.01969	0.02658
2001.05533	0.02629
2000.09096	0.02607
1999.1266	0.02575
1998.16224	0.02532
1997.19787	0.02488
1996.23351	0.0245
1995.26914	0.02419
1994.30478	0.02391
1993.34042	0.02367
1992.37605	0.02349
1991.41169	0.02342
1990.44732	0.02344
1989.48296	0.0235
1988.5186	0.02358
1987.55423	0.0237
1986.58987	0.02389
1985.6255	0.02415
1984.66114	0.02447
1983.69678	0.02482
1982.73241	0.02521
1981.76805	0.0256
1980.80368	0.02585
1979.83932	0.02593
1978.87496	0.02598
1977.91059	0.02594
1976.94623	0.02568
1975.98186	0.02524
1975.0175	0.02479
1974.05314	0.02441
1973.08877	0.02409
1972.12441	0.0238
1971.16004	0.02351
1970.19568	0.02322
1969.23132	0.02294
1968.26695	0.02273
1967.30259	0.02261
1966.33822	0.0225
1965.37386	0.02234
1964.4095	0.02215
1963.44513	0.02202
1962.48077	0.02197
1961.5164	0.02199
1960.55204	0.02203
1959.58768	0.02213
1958.62331	0.02234
1957.65895	0.02264
1956.69458	0.02281
1955.73022	0.02277
1954.76586	0.02261
1953.80149	0.02228
1952.83713	0.02168
1951.87276	0.02098
1950.9084	0.0203
1949.94404	0.01966
1948.97967	0.01909
1948.01531	0.01864
1947.05094	0.0183
1946.08658	0.01802
1945.12222	0.01782
1944.15785	0.01766
1943.19349	0.01754
1942.22912	0.01745
1941.26476	0.01744
1940.3004	0.01752
1939.33603	0.01771
1938.37167	0.01803
1937.4073	0.01844
1936.44294	0.01899
1935.47858	0.01973
1934.51421	0.02042
1933.54985	0.02069
1932.58548	0.02062
1931.62112	0.02037
1930.65676	0.01991
1929.69239	0.01933
1928.72803	0.01864
1927.76366	0.01789
1926.7993	0.01717
1925.83494	0.01654
1924.87057	0.01602
1923.90621	0.01566
1922.94184	0.0155
1921.97748	0.01547
1921.01312	0.01542
1920.04875	0.01533
1919.08439	0.01523
1918.12002	0.01511
1917.15566	0.01506
1916.1913	0.01516
1915.22693	0.01542
1914.26257	0.01584
1913.2982	0.01637
1912.33384	0.01684
1911.36948	0.01702
1910.40511	0.01699
1909.44075	0.01714
1908.47638	0.01762
1907.51202	0.01818
1906.54766	0.01839
1905.58329	0.01815
1904.61893	0.01797
1903.65456	0.01803
1902.6902	0.01829
1901.72583	0.01876
1900.76147	0.01911
1899.79711	0.01915
1898.83274	0.01895
1897.86838	0.01858
1896.90401	0.01818
1895.93965	0.01783
1894.97529	0.01753
1894.01092	0.01732
1893.04656	0.0172
1892.08219	0.01717
1891.11783	0.01727
1890.15347	0.01747
1889.1891	0.01771
1888.22474	0.01802
1887.26037	0.01844
1886.29601	0.01898
1885.33165	0.0196
1884.36728	0.02019
1883.40292	0.02069
1882.43855	0.02132
1881.47419	0.02231
1880.50983	0.02331
1879.54546	0.02373
1878.5811	0.02334
1877.61673	0.02218
1876.65237	0.02079
1875.68801	0.01964
1874.72364	0.01875
1873.75928	0.01798
1872.79491	0.01731
1871.83055	0.01677
1870.86619	0.01644
1869.90182	0.01626
1868.93746	0.01617
1867.97309	0.01619
1867.00873	0.01641
1866.04437	0.01682
1865.08	0.01741
1864.11564	0.01818
1863.15127	0.01915
1862.18691	0.02036
1861.22255	0.02186
1860.25818	0.02361
1859.29382	0.0253
1858.32945	0.02656
1857.36509	0.02731
1856.40073	0.02762
1855.43636	0.0273
1854.472	0.0264
1853.50763	0.02545
1852.54327	0.02467
1851.57891	0.02408
1850.61454	0.02367
1849.65018	0.02349
1848.68581	0.02342
1847.72145	0.02335
1846.75709	0.0233
1845.79272	0.0234
1844.82836	0.02373
1843.86399	0.02437
1842.89963	0.02549
1841.93527	0.02709
1840.9709	0.02845
1840.00654	0.02921
1839.04217	0.02997
1838.07781	0.03118
1837.11345	0.03262
1836.14908	0.03363
1835.18472	0.03434
1834.22035	0.0351
1833.25599	0.03567
1832.29163	0.03574
1831.32726	0.03584
1830.3629	0.0365
1829.39853	0.03762
1828.43417	0.03902
1827.46981	0.04065
1826.50544	0.04246
1825.54108	0.04442
1824.57671	0.04669
1823.61235	0.04947
1822.64799	0.05253
1821.68362	0.05549
1820.71926	0.05848
1819.75489	0.06169
1818.79053	0.06473
1817.82617	0.06716
1816.8618	0.0696
1815.89744	0.0728
1814.93307	0.07666
1813.96871	0.08063
1813.00435	0.08436
1812.03998	0.08822
1811.07562	0.09222
1810.11125	0.09623
1809.14689	0.10066
1808.18253	0.10565
1807.21816	0.11084
1806.2538	0.11611
1805.28943	0.1218
1804.32507	0.12792
1803.36071	0.13387
1802.39634	0.13942
1801.43198	0.1448
1800.46761	0.15022
1799.50325	0.15569
1798.53889	0.16136
1797.57452	0.16766
1796.61016	0.17445
1795.64579	0.18143
1794.68143	0.1889
1793.71707	0.19731
1792.7527	0.20659
1791.78834	0.21635
1790.82397	0.22626
1789.85961	0.23639
1788.89525	0.24693
1787.93088	0.25779
1786.96652	0.26875
1786.00215	0.27941
1785.03779	0.2893
1784.07343	0.29791
1783.10906	0.30434
1782.1447	0.30838
1781.18033	0.31022
1780.21597	0.30999
1779.25161	0.30797
1778.28724	0.30428
1777.32288	0.29921
1776.35851	0.29293
1775.39415	0.28565
1774.42979	0.27759
1773.46542	0.2686
1772.50106	0.25852
1771.53669	0.24832
1770.57233	0.2387
1769.60797	0.22977
1768.6436	0.22138
1767.67924	0.21359
1766.71487	0.20701
1765.75051	0.20206
1764.78615	0.19872
1763.82178	0.19676
1762.85742	0.19568
1761.89305	0.19542
1760.92869	0.19623
1759.96432	0.1978
1758.99996	0.20057
1758.0356	0.20483
1757.07123	0.2101
1756.10687	0.21571
1755.1425	0.22124
1754.17814	0.22631
1753.21378	0.23081
1752.24941	0.23489
1751.28505	0.23801
1750.32068	0.23915
1749.35632	0.23848
1748.39196	0.23703
1747.42759	0.23519
1746.46323	0.23295
1745.49886	0.22931
1744.5345	0.22322
1743.57014	0.21647
1742.60577	0.21012
1741.64141	0.20408
1740.67704	0.19794
1739.71268	0.1919
1738.74832	0.18682
1737.78395	0.18333
1736.81959	0.18117
1735.85522	0.18018
1734.89086	0.18029
1733.9265	0.18134
1732.96213	0.18324
1731.99777	0.18587
1731.0334	0.1894
1730.06904	0.1942
1729.10468	0.19882
1728.14031	0.20263
1727.17595	0.20652
1726.21158	0.21093
1725.24722	0.21574
1724.28286	0.22122
1723.31849	0.22736
1722.35413	0.23347
1721.38976	0.23961
1720.4254	0.24711
1719.46104	0.25553
1718.49667	0.26418
1717.53231	0.27238
1716.56794	0.27973
1715.60358	0.28577
1714.63922	0.29017
1713.67485	0.29301
1712.71049	0.29449
1711.74612	0.29423
1710.78176	0.29079
1709.8174	0.28502
1708.85303	0.27759
1707.88867	0.2683
1706.9243	0.25573
1705.95994	0.23993
1704.99558	0.22325
1704.03121	0.207
1703.06685	0.19121
1702.10248	0.17667
1701.13812	0.16419
1700.17376	0.15373
1699.20939	0.14517
1698.24503	0.13863
1697.28066	0.13456
1696.3163	0.13323
1695.35194	0.13203
1694.38757	0.12974
1693.42321	0.12764
1692.45884	0.12653
1691.49448	0.12623
1690.53012	0.12641
1689.56575	0.12714
1688.60139	0.12802
1687.63702	0.12855
1686.67266	0.12937
1685.7083	0.12977
1684.74393	0.12974
1683.77957	0.12941
1682.8152	0.12983
1681.85084	0.13112
1680.88648	0.13264
1679.92211	0.13361
1678.95775	0.13429
1677.99338	0.13508
1677.02902	0.13624
1676.06466	0.13826
1675.10029	0.1414
1674.13593	0.14494
1673.17156	0.1478
1672.2072	0.14916
1671.24284	0.15115
1670.27847	0.15527
1669.31411	0.16072
1668.34974	0.16688
1667.38538	0.17392
1666.42102	0.18236
1665.45665	0.19216
1664.49229	0.20093
1663.52792	0.20657
1662.56356	0.21071
1661.5992	0.21451
1660.63483	0.21786
1659.67047	0.22037
1658.7061	0.22115
1657.74174	0.21861
1656.77738	0.21279
1655.81301	0.20559
1654.84865	0.19785
1653.88428	0.18963
1652.91992	0.18094
1651.95556	0.1717
1650.99119	0.16197
1650.02683	0.1526
1649.06246	0.14442
1648.0981	0.13737
1647.13374	0.1307
1646.16937	0.12374
1645.20501	0.11738
1644.24064	0.11214
1643.27628	0.10794
1642.31192	0.10418
1641.34755	0.09977
1640.38319	0.09577
1639.41882	0.09383
1638.45446	0.09297
1637.4901	0.09303
1636.52573	0.0938
1635.56137	0.09445
1634.597	0.09406
1633.63264	0.09326
1632.66828	0.09313
1631.70391	0.09372
1630.73955	0.09485
1629.77518	0.09649
1628.81082	0.09845
1627.84646	0.09967
1626.88209	0.10008
1625.91773	0.10008
1624.95336	0.09945
1623.989	0.09801
1623.02464	0.09653
1622.06027	0.09637
1621.09591	0.09724
1620.13154	0.09858
1619.16718	0.10018
1618.20281	0.10193
1617.23845	0.10358
1616.27409	0.10494
1615.30972	0.10615
1614.34536	0.10745
1613.38099	0.1086
1612.41663	0.10908
1611.45227	0.10834
1610.4879	0.1067
1609.52354	0.10489
1608.55917	0.10297
1607.59481	0.10084
1606.63045	0.09824
1605.66608	0.09463
1604.70172	0.08978
1603.73735	0.08508
1602.77299	0.08125
1601.80863	0.07802
1600.84426	0.07523
1599.8799	0.07288
1598.91553	0.07095
1597.95117	0.0693
1596.98681	0.06774
1596.02244	0.06624
1595.05808	0.06476
1594.09371	0.06331
1593.12935	0.06194
1592.16499	0.06048
1591.20062	0.05875
1590.23626	0.05692
1589.27189	0.05531
1588.30753	0.05388
1587.34317	0.05157
1586.3788	0.04815
1585.41444	0.04438
1584.45007	0.04061
1583.48571	0.03704
1582.52135	0.0339
1581.55698	0.03126
1580.59262	0.02823
1579.62825	0.0247
1578.66389	0.02142
1577.69953	0.01877
1576.73516	0.0167
1575.7708	0.01491
1574.80643	0.0136
1573.84207	0.01321
1572.87771	0.014
1571.91334	0.01628
1570.94898	0.02028
1569.98461	0.02235
1569.02025	0.02209
1568.05589	0.02168
1567.09152	0.0218
1566.12716	0.02211
1565.16279	0.02162
1564.19843	0.02023
1563.23407	0.01943
1562.2697	0.02001
1561.30534	0.02109
1560.34097	0.02205
1559.37661	0.02318
1558.41225	0.02448
1557.44788	0.02575
1556.48352	0.02763
1555.51915	0.03023
1554.55479	0.03328
1553.59043	0.0364
1552.62606	0.03957
1551.6617	0.04328
1550.69733	0.04579
1549.73297	0.04721
1548.76861	0.04858
1547.80424	0.04934
1546.83988	0.04808
1545.87551	0.048
1544.91115	0.05011
1543.94679	0.05261
1542.98242	0.05516
1542.01806	0.05817
1541.05369	0.06273
1540.08933	0.06889
1539.12497	0.07564
1538.1606	0.08212
1537.19624	0.08868
1536.23187	0.09574
1535.26751	0.10311
1534.30315	0.11057
1533.33878	0.11743
1532.37442	0.12196
1531.41005	0.12411
1530.44569	0.12471
1529.48133	0.12417
1528.51696	0.12198
1527.5526	0.11674
1526.58823	0.11094
1525.62387	0.10604
1524.65951	0.10175
1523.69514	0.09773
1522.73078	0.09357
1521.76641	0.08915
1520.80205	0.08513
1519.83769	0.08229
1518.87332	0.08048
1517.90896	0.07749
1516.94459	0.07248
1515.98023	0.06695
1515.01587	0.06185
1514.0515	0.05765
1513.08714	0.05432
1512.12277	0.05205
1511.15841	0.05075
1510.19405	0.04939
1509.22968	0.04711
1508.26532	0.04526
1507.30095	0.04431
1506.33659	0.0437
1505.37223	0.04299
1504.40786	0.04226
1503.4435	0.04293
1502.47913	0.04551
1501.51477	0.04899
1500.55041	0.05209
1499.58604	0.05505
1498.62168	0.05808
1497.65731	0.06087
1496.69295	0.06308
1495.72859	0.06428
1494.76422	0.06419
1493.79986	0.06511
1492.83549	0.06867
1491.87113	0.07378
1490.90677	0.07982
1489.9424	0.08663
1488.97804	0.09421
1488.01367	0.10217
1487.04931	0.10963
1486.08495	0.11658
1485.12058	0.12327
1484.15622	0.12891
1483.19185	0.133
1482.22749	0.13651
1481.26312	0.14003
1480.29876	0.14363
1479.3344	0.14699
1478.37003	0.14956
1477.40567	0.15165
1476.4413	0.15382
1475.47694	0.1557
1474.51258	0.1579
1473.54821	0.16112
1472.58385	0.16549
1471.61948	0.17109
1470.65512	0.17778
1469.69076	0.18489
1468.72639	0.19115
1467.76203	0.19581
1466.79766	0.19929
1465.8333	0.20199
1464.86894	0.20403
1463.90457	0.20542
1462.94021	0.20624
1461.97584	0.20623
1461.01148	0.20514
1460.04712	0.20354
1459.08275	0.20249
1458.11839	0.20181
1457.15402	0.20146
1456.18966	0.20155
1455.2253	0.20208
1454.26093	0.2028
1453.29657	0.20333
1452.3322	0.20384
1451.36784	0.2051
1450.40348	0.20721
1449.43911	0.21006
1448.47475	0.21308
1447.51038	0.21488
1446.54602	0.21494
1445.58166	0.21336
1444.61729	0.21083
1443.65293	0.20852
1442.68856	0.20683
1441.7242	0.20575
1440.75984	0.20478
1439.79547	0.2038
1438.83111	0.20317
1437.86674	0.20317
1436.90238	0.2038
1435.93802	0.2047
1434.97365	0.20553
1434.00929	0.20665
1433.04492	0.2087
1432.08056	0.21208
1431.1162	0.21671
1430.15183	0.22176
1429.18747	0.227
1428.2231	0.23261
1427.25874	0.23858
1426.29438	0.2447
1425.33001	0.25046
1424.36565	0.25558
1423.40128	0.2608
1422.43692	0.26615
1421.47256	0.27121
1420.50819	0.27585
1419.54383	0.28006
1418.57946	0.28385
1417.6151	0.28731
1416.65074	0.29062
1415.68637	0.29346
1414.72201	0.29583
1413.75764	0.29793
1412.79328	0.29971
1411.82892	0.3012
1410.86455	0.30287
1409.90019	0.30466
1408.93582	0.30631
1407.97146	0.30766
1407.0071	0.30846
1406.04273	0.30863
1405.07837	0.30819
1404.114	0.30759
1403.14964	0.30722
1402.18528	0.3071
1401.22091	0.30717
1400.25655	0.30756
1399.29218	0.30838
1398.32782	0.30933
1397.36346	0.31034
1396.39909	0.3117
1395.43473	0.31358
1394.47036	0.31583
1393.506	0.31802
1392.54164	0.31994
1391.57727	0.32183
1390.61291	0.32369
1389.64854	0.3253
1388.68418	0.32647
1387.71982	0.32704
1386.75545	0.32698
1385.79109	0.32642
1384.82672	0.32526
1383.86236	0.32344
1382.898	0.32101
1381.93363	0.31856
1380.96927	0.31664
1380.0049	0.31493
1379.04054	0.31302
1378.07618	0.31094
1377.11181	0.30881
1376.14745	0.30655
1375.18308	0.30405
1374.21872	0.30128
1373.25436	0.29812
1372.28999	0.29455
1371.32563	0.29063
1370.36126	0.28653
1369.3969	0.28235
1368.43254	0.27805
1367.46817	0.27369
1366.50381	0.26935
1365.53944	0.26514
1364.57508	0.26124
1363.61072	0.25762
1362.64635	0.25421
1361.68199	0.25138
1360.71762	0.24959
1359.75326	0.24883
1358.7889	0.24881
1357.82453	0.24928
1356.86017	0.25002
1355.8958	0.25112
1354.93144	0.25279
1353.96708	0.25519
1353.00271	0.25845
1352.03835	0.26233
1351.07398	0.2661
1350.10962	0.26969
1349.14526	0.27382
1348.18089	0.27895
1347.21653	0.28515
1346.25216	0.29235
1345.2878	0.30041
1344.32344	0.30912
1343.35907	0.31817
1342.39471	0.32733
1341.43034	0.33646
1340.46598	0.34531
1339.50161	0.35356
1338.53725	0.36095
1337.57289	0.36723
1336.60852	0.37222
1335.64416	0.3758
1334.67979	0.37783
1333.71543	0.37825
1332.75107	0.37713
1331.7867	0.37455
1330.82234	0.37056
1329.85797	0.36507
1328.89361	0.35798
1327.92925	0.34938
1326.96488	0.33987
1326.00052	0.33015
1325.03615	0.32049
1324.07179	0.31091
1323.10743	0.30156
1322.14306	0.29264
1321.1787	0.28432
1320.21433	0.27676
1319.24997	0.27008
1318.28561	0.26438
1317.32124	0.25973
1316.35688	0.25619
1315.39251	0.25381
1314.42815	0.25261
1313.46379	0.25253
1312.49942	0.25344
1311.53506	0.25514
1310.57069	0.25751
1309.60633	0.26039
1308.64197	0.2635
1307.6776	0.26645
1306.71324	0.26898
1305.74887	0.27106
1304.78451	0.27264
1303.82015	0.27359
1302.85578	0.27374
1301.89142	0.2729
1300.92705	0.27105
1299.96269	0.26834
1298.99833	0.26487
1298.03396	0.26066
1297.0696	0.25575
1296.10523	0.25035
1295.14087	0.24465
1294.17651	0.2388
1293.21214	0.23287
1292.24778	0.22697
1291.28341	0.22126
1290.31905	0.21583
1289.35469	0.21073
1288.39032	0.20601
1287.42596	0.20175
1286.46159	0.19804
1285.49723	0.19499
1284.53287	0.19264
1283.5685	0.19102
1282.60414	0.19018
1281.63977	0.19022
1280.67541	0.19119
1279.71105	0.193
1278.74668	0.19557
1277.78232	0.19882
1276.81795	0.20267
1275.85359	0.20698
1274.88923	0.21164
1273.92486	0.21659
1272.9605	0.22176
1271.99613	0.22703
1271.03177	0.23222
1270.06741	0.23708
1269.10304	0.24145
1268.13868	0.24524
1267.17431	0.2484
1266.20995	0.25089
1265.24559	0.25265
1264.28122	0.25372
1263.31686	0.25427
1262.35249	0.2545
1261.38813	0.25452
1260.42377	0.25433
1259.4594	0.25399
1258.49504	0.25363
1257.53067	0.25342
1256.56631	0.25339
1255.60195	0.25353
1254.63758	0.25383
1253.67322	0.25442
1252.70885	0.25537
1251.74449	0.25664
1250.78013	0.25807
1249.81576	0.2595
1248.8514	0.26087
1247.88703	0.26213
1246.92267	0.26323
1245.95831	0.26405
1244.99394	0.26451
1244.02958	0.26467
1243.06521	0.26461
1242.10085	0.26437
1241.13649	0.26398
1240.17212	0.26351
1239.20776	0.26305
1238.24339	0.26267
1237.27903	0.26233
1236.31467	0.26205
1235.3503	0.26196
1234.38594	0.26237
1233.42157	0.26353
1232.45721	0.26551
1231.49285	0.26823
1230.52848	0.27158
1229.56412	0.27539
1228.59975	0.27938
1227.63539	0.28327
1226.67103	0.28682
1225.70666	0.28996
1224.7423	0.2927
1223.77793	0.29498
1222.81357	0.29666
1221.84921	0.29765
1220.88484	0.29798
1219.92048	0.29776
1218.95611	0.29702
1217.99175	0.29571
1217.02739	0.2938
1216.06302	0.2914
1215.09866	0.28871
1214.13429	0.2859
1213.16993	0.28309
1212.20557	0.28041
1211.2412	0.27805
1210.27684	0.27607
1209.31247	0.27434
1208.34811	0.27263
1207.38375	0.27076
1206.41938	0.26874
1205.45502	0.26668
1204.49065	0.26463
1203.52629	0.26259
1202.56193	0.26061
1201.59756	0.25886
1200.6332	0.25747
1199.66883	0.25647
1198.70447	0.2558
1197.7401	0.25543
1196.77574	0.25547
1195.81138	0.256
1194.84701	0.257
1193.88265	0.25842
1192.91828	0.26027
1191.95392	0.26262
1190.98956	0.26554
1190.02519	0.26896
1189.06083	0.27281
1188.09646	0.2771
1187.1321	0.28203
1186.16774	0.28776
1185.20337	0.29437
1184.23901	0.30196
1183.27464	0.31065
1182.31028	0.32055
1181.34592	0.33165
1180.38155	0.34373
1179.41719	0.3565
1178.45282	0.36978
1177.48846	0.38348
1176.5241	0.39743
1175.55973	0.41142
1174.59537	0.42526
1173.631	0.43896
1172.66664	0.45257
1171.70228	0.46613
1170.73791	0.47957
1169.77355	0.49287
1168.80918	0.50616
1167.84482	0.5196
1166.88046	0.53326
1165.91609	0.54706
1164.95173	0.56085
1163.98736	0.57455
1163.023	0.58803
1162.05864	0.60103
1161.09427	0.61316
1160.12991	0.62399
1159.16554	0.63317
1158.20118	0.64041
1157.23682	0.64536
1156.27245	0.6477
1155.30809	0.64725
1154.34372	0.64407
1153.37936	0.63833
1152.415	0.63018
1151.45063	0.61978
1150.48627	0.60748
1149.5219	0.59377
1148.55754	0.57921
1147.59318	0.56425
1146.62881	0.54929
1145.66445	0.53474
1144.70008	0.52106
1143.73572	0.50862
1142.77136	0.49756
1141.80699	0.48792
1140.84263	0.47979
1139.87826	0.47328
1138.9139	0.46844
1137.94954	0.46516
1136.98517	0.46329
1136.02081	0.46272
1135.05644	0.46342
1134.09208	0.46532
1133.12772	0.46824
1132.16335	0.47197
1131.19899	0.47636
1130.23462	0.48138
1129.27026	0.48695
1128.3059	0.49291
1127.34153	0.49913
1126.37717	0.50557
1125.4128	0.51231
1124.44844	0.5194
1123.48408	0.52678
1122.51971	0.53444
1121.55535	0.54248
1120.59098	0.55098
1119.62662	0.55996
1118.66226	0.56933
1117.69789	0.57902
1116.73353	0.58905
1115.76916	0.59949
1114.8048	0.61028
1113.84044	0.62126
1112.87607	0.63223
1111.91171	0.64305
1110.94734	0.65355
1109.98298	0.66341
1109.01862	0.67224
1108.05425	0.6798
1107.08989	0.68598
1106.12552	0.69077
1105.16116	0.69412
1104.1968	0.696
1103.23243	0.69649
1102.26807	0.69585
1101.3037	0.69437
1100.33934	0.69226
1099.37498	0.68971
1098.41061	0.68701
1097.44625	0.68455
1096.48188	0.68274
1095.51752	0.68189
1094.55316	0.68226
1093.58879	0.68416
1092.62443	0.68792
1091.66006	0.69375
1090.6957	0.7016
1089.73134	0.71131
1088.76697	0.72262
1087.80261	0.73523
1086.83824	0.74871
1085.87388	0.76248
1084.90952	0.77584
1083.94515	0.78825
1082.98079	0.79927
1082.01642	0.80853
1081.05206	0.81566
1080.0877	0.82039
1079.12333	0.82276
1078.15897	0.82304
1077.1946	0.8215
1076.23024	0.8185
1075.26588	0.81455
1074.30151	0.81027
1073.33715	0.80637
1072.37278	0.80343
1071.40842	0.80183
1070.44406	0.80188
1069.47969	0.80389
1068.51533	0.8081
1067.55096	0.81451
1066.5866	0.82286
1065.62224	0.8328
1064.65787	0.84391
1063.69351	0.85566
1062.72914	0.86736
1061.76478	0.87828
1060.80042	0.8879
1059.83605	0.89602
1058.87169	0.90273
1057.90732	0.90822
1056.94296	0.91276
1055.97859	0.9168
1055.01423	0.92084
1054.04987	0.92529
1053.0855	0.93039
1052.12114	0.93617
1051.15677	0.94258
1050.19241	0.94958
1049.22805	0.95706
1048.26368	0.96472
1047.29932	0.97218
1046.33495	0.9792
1045.37059	0.9856
1044.40623	0.99119
1043.44186	0.99566
1042.4775	0.99867
1041.51313	1
1040.54877	0.99956
1039.58441	0.9973
1038.62004	0.9932
1037.65568	0.98736
1036.69131	0.98013
1035.72695	0.97205
1034.76259	0.96356
1033.79822	0.95489
1032.83386	0.9461
1031.86949	0.9373
1030.90513	0.92858
1029.94077	0.91997
1028.9764	0.91133
1028.01204	0.90259
1027.04767	0.8939
1026.08331	0.88551
1025.11895	0.87759
1024.15458	0.87022
1023.19022	0.86345
1022.22585	0.85745
1021.26149	0.85232
1020.29713	0.84804
1019.33276	0.84437
1018.3684	0.8411
1017.40403	0.83808
1016.43967	0.83518
1015.47531	0.83216
1014.51094	0.82864
1013.54658	0.82431
1012.58221	0.81903
1011.61785	0.8127
1010.65349	0.80516
1009.68912	0.79621
1008.72476	0.7858
1007.76039	0.77407
1006.79603	0.76123
1005.83167	0.74735
1004.8673	0.73245
1003.90294	0.71671
1002.93857	0.70042
1001.97421	0.68387
1001.00985	0.66725
1000.04548	0.65063
999.08112	0.63416
998.11675	0.61801
997.15239	0.60228
996.18803	0.5869
995.22366	0.57175
994.2593	0.5568
993.29493	0.54211
992.33057	0.5277
991.36621	0.51346
990.40184	0.49924
989.43748	0.48504
988.47311	0.471
987.50875	0.45718
986.54439	0.4435
985.58002	0.42985
984.61566	0.41622
983.65129	0.40271
982.68693	0.38932
981.72257	0.37592
980.7582	0.36241
979.79384	0.34887
978.82947	0.33549
977.86511	0.3224
976.90075	0.30952
975.93638	0.29678
974.97202	0.28423
974.00765	0.27199
973.04329	0.26014
972.07893	0.24864
971.11456	0.23756
970.1502	0.22711
969.18583	0.2176
968.22147	0.20916
967.25711	0.20179
966.29274	0.19556
965.32838	0.19068
964.36401	0.18741
963.39965	0.18589
962.43529	0.18603
961.47092	0.18777
960.50656	0.19109
959.54219	0.19585
958.57783	0.20172
957.61347	0.20826
956.6491	0.21511
955.68474	0.22208
954.72037	0.22899
953.75601	0.23561
952.79165	0.24161
951.82728	0.24681
950.86292	0.2512
949.89855	0.25476
948.93419	0.25735
947.96983	0.25878
947.00546	0.25904
946.0411	0.25823
945.07673	0.25648
944.11237	0.2538
943.14801	0.25025
942.18364	0.24605
941.21928	0.24153
940.25491	0.23685
939.29055	0.23199
938.32619	0.22684
937.36182	0.22137
936.39746	0.21566
935.43309	0.20981
934.46873	0.20384
933.50437	0.1978
932.54	0.19187
931.57564	0.18633
930.61127	0.18127
929.64691	0.17654
928.68255	0.17198
927.71818	0.16753
926.75382	0.16317
925.78945	0.15878
924.82509	0.15418
923.86073	0.14924
922.89636	0.14399
921.932	0.13856
920.96763	0.13296
920.00327	0.12711
919.03891	0.12098
918.07454	0.11464
917.11018	0.10819
916.14581	0.10171
915.18145	0.09519
914.21708	0.08865
913.25272	0.08224
912.28836	0.07619
911.32399	0.07063
910.35963	0.06551
909.39526	0.06079
908.4309	0.05649
907.46654	0.05264
906.50217	0.04914
905.53781	0.04588
904.57344	0.04278
903.60908	0.03986
902.64472	0.03716
901.68035	0.03461
900.71599	0.03208
899.75162	0.02966
898.78726	0.02784
897.8229	0.02722
896.85853	0.02805
895.89417	0.03007
894.9298	0.0329
893.96544	0.03626
893.00108	0.03994
892.03671	0.04368
891.07235	0.04722
890.10798	0.05042
889.14362	0.05323
888.17926	0.05565
887.21489	0.05756
886.25053	0.0588
885.28616	0.05934
884.3218	0.05928
883.35744	0.05868
882.39307	0.05755
881.42871	0.0559
880.46434	0.05394
879.49998	0.05199
878.53562	0.05042
877.57125	0.04958
876.60689	0.04988
875.64252	0.05178
874.67816	0.05542
873.7138	0.06042
872.74943	0.06619
871.78507	0.07232
870.8207	0.07865
869.85634	0.0851
868.89198	0.09151
867.92761	0.09764
866.96325	0.10329
865.99888	0.10836
865.03452	0.11281
864.07016	0.11651
863.10579	0.11934
862.14143	0.12125
861.17706	0.12227
860.2127	0.12249
859.24834	0.12193
858.28397	0.12065
857.31961	0.11882
856.35524	0.11671
855.39088	0.11451
854.42652	0.11231
853.46215	0.11012
852.49779	0.10801
851.53342	0.10608
850.56906	0.10439
849.6047	0.10291
848.64033	0.1016
847.67597	0.1004
846.7116	0.09925
845.74724	0.09804
844.78288	0.09664
843.81851	0.09494
842.85415	0.09288
841.88978	0.09038
840.92542	0.08738
839.96106	0.08384
838.99669	0.07972
838.03233	0.07506
837.06796	0.06988
836.1036	0.06425
835.13924	0.0583
834.17487	0.05229
833.21051	0.04647
832.24614	0.041
831.28178	0.03597
830.31742	0.03152
829.35305	0.02776
828.38869	0.02468
827.42432	0.02218
826.45996	0.02016
825.4956	0.01856
824.53123	0.01738
823.56687	0.01655
822.6025	0.01592
821.63814	0.01532
820.67378	0.01469
819.70941	0.01404
818.74505	0.0133
817.78068	0.01235
816.81632	0.01115
815.85196	0.00975
814.88759	0.00825
813.92323	0.00668
812.95886	0.00506
811.9945	0.00347
811.03014	0.00211
810.06577	0.00113
809.10141	5.10802E-4
808.13704	1.46594E-4
807.17268	0
806.20832	1.08604E-4
805.24395	4.34084E-4
804.27959	8.02893E-4
803.31522	0.00107
802.35086	0.00124
801.3865	0.00143
800.42213	0.00164
799.45777	0.00176
798.4934	0.0017
797.52904	0.00154
796.56468	0.00148
795.60031	0.00158
794.63595	0.00181
793.67158	0.00207
792.70722	0.00245
791.74286	0.00311
790.77849	0.00416
789.81413	0.00559
788.84976	0.00741
787.8854	0.00974
786.92104	0.01266
785.95667	0.01602
784.99231	0.01954
784.02794	0.02295
783.06358	0.02618
782.09922	0.02929
781.13485	0.03221
780.17049	0.03474
779.20612	0.0368
778.24176	0.03851
777.2774	0.0401
776.31303	0.04164
775.34867	0.04305
774.3843	0.04433
773.41994	0.04571
772.45557	0.04746
771.49121	0.04962
770.52685	0.05203
769.56248	0.0547
768.59812	0.05789
767.63375	0.06184
766.66939	0.06648
765.70503	0.07155
764.74066	0.07683
763.7763	0.08231
762.81193	0.08806
761.84757	0.09388
760.88321	0.09951
759.91884	0.10488
758.95448	0.11015
757.99011	0.11532
757.02575	0.12007
756.06139	0.12404
755.09702	0.12708
754.13266	0.12933
753.16829	0.13086
752.20393	0.13139
751.23957	0.13064
750.2752	0.12868
749.31084	0.12589
748.34647	0.12245
747.38211	0.11823
746.41775	0.11307
745.45338	0.10715
744.48902	0.10084
743.52465	0.09438
742.56029	0.08772
741.59593	0.08085
740.63156	0.07413
739.6672	0.0681
738.70283	0.06297
737.73847	0.05857
736.77411	0.05467
735.80974	0.0514
734.84538	0.04899
733.88101	0.04742
732.91665	0.04632
731.95229	0.04538
730.98792	0.04471
730.02356	0.04458
729.05919	0.04491
728.09483	0.04537
727.13047	0.04584
726.1661	0.04657
725.20174	0.04783
724.23737	0.04955
723.27301	0.05135
722.30865	0.0531
721.34428	0.05509
720.37992	0.05762
719.41555	0.06057
718.45119	0.06354
717.48683	0.06639
716.52246	0.06938
715.5581	0.07268
714.59373	0.0761
713.62937	0.07918
712.66501	0.08184
711.70064	0.08439
710.73628	0.08699
709.77191	0.0893
708.80755	0.09079
707.84319	0.09141
706.87882	0.09163
705.91446	0.09169
704.95009	0.09127
703.98573	0.09004
703.02137	0.08816
702.057	0.08618
701.09264	0.08434
700.12827	0.08234
699.16391	0.07982
698.19955	0.07701
697.23518	0.07453
696.27082	0.07259
695.30645	0.07084
694.34209	0.06896
693.37773	0.06713
692.41336	0.06589
691.449	0.06537
690.48463	0.06509
689.52027	0.06467
688.55591	0.06436
687.59154	0.06464
686.62718	0.06544
685.66281	0.06624
684.69845	0.06682
683.73409	0.06755
682.76972	0.06884
681.80536	0.07061
680.84099	0.07252
679.87663	0.07382
678.91227	0.07414
677.9479	0.07483
676.98354	0.07574
676.01917	0.07636
675.05481	0.07669
674.09045	0.0772
673.12608	0.07817
672.16172	0.07934
671.19735	0.08019
670.23299	0.08068
669.26863	0.08133
668.30426	0.08238
667.3399	0.08342
666.37553	0.084
665.41117	0.08434
664.44681	0.08505
663.48244	0.08631
662.51808	0.0877
661.55371	0.08877
660.58935	0.08964
659.62499	0.09075
658.66062	0.09216
657.69626	0.09321
656.73189	0.09305
655.76753	0.0923
654.80317	0.09254
653.8388	0.0932
652.87444	0.09374
651.91007	0.09381
650.94571	0.09365
649.98135	0.09378
649.01698	0.09429
648.05262	0.09467
647.08825	0.09459
646.12389	0.09435
645.15953	0.09443
644.19516	0.09483
643.2308	0.09513
642.26643	0.09518
641.30207	0.09535
640.33771	0.09608
639.37334	0.0972
638.40898	0.09817
637.44461	0.09882
636.48025	0.09948
635.51589	0.10052
634.55152	0.10178
633.58716	0.10284
632.62279	0.10365
631.65843	0.10469
630.69406	0.10629
629.7297	0.10818
628.76534	0.10986
627.80097	0.11136
626.83661	0.11323
625.87224	0.11577
624.90788	0.11863
623.94352	0.12132
622.97915	0.12399
622.01479	0.12725
621.05042	0.13129
620.08606	0.13561
619.1217	0.13976
618.15733	0.1439
617.19297	0.14848
616.2286	0.1534
615.26424	0.15801
614.29988	0.16185
613.33551	0.16514
612.37115	0.1684
611.40678	0.17158
610.44242	0.17405
609.47806	0.17549
608.51369	0.17635
607.54933	0.17719
606.58496	0.17793
605.6206	0.1781
604.65624	0.17774
603.69187	0.17743
602.72751	0.17755
601.76314	0.17797
600.79878	0.17838
599.83442	0.17881
598.87005	0.17972
597.90569	0.18138
596.94132	0.18345
595.97696	0.18531
595.0126	0.18684
594.04823	0.18848
593.08387	0.19049
592.1195	0.19245
591.15514	0.19381
590.19078	0.19471
589.22641	0.19572
588.26205	0.19704
587.29768	0.19814
586.33332	0.19861
585.36896	0.19879
584.40459	0.19927
583.44023	0.20018
582.47586	0.20113
581.5115	0.20181
580.54714	0.20231
579.58277	0.20298
578.61841	0.2039
577.65404	0.2046
576.68968	0.20467
575.72532	0.20429
574.76095	0.20376
573.79659	0.20291
572.83222	0.20125
571.86786	0.19867
570.9035	0.19561
569.93913	0.19249
568.97477	0.18915
568.0104	0.18525
567.04604	0.1809
566.08168	0.17654
565.11731	0.17248
564.15295	0.16861
563.18858	0.16474
562.22422	0.16102
561.25986	0.15774
560.29549	0.15508
559.33113	0.15286
558.36676	0.15069
557.4024	0.14854
556.43804	0.14674
555.47367	0.14546
554.50931	0.14444
553.54494	0.14337
552.58058	0.1423
551.61622	0.14151
550.65185	0.14116
549.68749	0.14098
548.72312	0.14064
547.75876	0.14022
546.7944	0.14006
545.83003	0.1402
544.86567	0.1403
543.9013	0.14016
542.93694	0.14004
541.97258	0.1404
541.00821	0.14121
540.04385	0.142
539.07948	0.14258
538.11512	0.1431
537.15076	0.14375
536.18639	0.14431
535.22203	0.14443
534.25766	0.14402
533.2933	0.14353
532.32894	0.14343
531.36457	0.14355
530.40021	0.1433
529.43584	0.1425
528.47148	0.14146
527.50712	0.14035
526.54275	0.13897
525.57839	0.13706
524.61402	0.1347
523.64966	0.13239
522.6853	0.13048
521.72093	0.12872
520.75657	0.12671
519.7922	0.12455
518.82784	0.1226
517.86348	0.12086
516.89911	0.11909
515.93475	0.11714
514.97038	0.11516
514.00602	0.11335
513.04166	0.11166
512.07729	0.10989
511.11293	0.10799
510.14856	0.10621
509.1842	0.10489
508.21984	0.10393
507.25547	0.10295
506.29111	0.10183
505.32674	0.10076
504.36238	0.10004
503.39802	0.09968
502.43365	0.09931
501.46929	0.09895
500.50492	0.09905
499.54056	0.09986
498.5762	0.10106
497.61183	0.1022
496.64747	0.10313
495.6831	0.1039
494.71874	0.10445
493.75437	0.10478
492.79001	0.10489
491.82565	0.10475
490.86128	0.10436
489.89692	0.10384
488.93255	0.10324
487.96819	0.10246
487.00383	0.10151
486.03946	0.10072
485.0751	0.10042
484.11073	0.10022
483.14637	0.09925
482.18201	0.0977
481.21764	0.09626
480.25328	0.09495
479.28891	0.09336
478.32455	0.09151
477.36019	0.08984
476.39582	0.08864
475.43146	0.0877
474.46709	0.08657
473.50273	0.08509
472.53837	0.08331
471.574	0.08145
470.60964	0.0798
469.64527	0.07829
468.68091	0.07618
467.71655	0.07372
466.75218	0.07166
465.78782	0.07012
464.82345	0.06871
463.85909	0.06701
462.89473	0.06533
461.93036	0.06414
460.966	0.0631
460.00163	0.06185
459.03727	0.06107
458.07291	0.061
457.10854	0.06118
456.14418	0.06125
455.17981	0.06118
454.21545	0.06111
453.25109	0.06119
452.28672	0.06143
451.32236	0.06167
450.35799	0.06167
449.39363	0.06155
448.42927	0.06182
447.4649	0.06237
446.50054	0.06237
445.53617	0.06154
444.57181	0.06089
443.60745	0.06098
442.64308	0.06124
441.67872	0.06094
440.71435	0.06009
439.74999	0.05964
438.78563	0.06008
437.82126	0.06083
436.8569	0.06106
435.89253	0.0608
434.92817	0.06053
433.96381	0.06047
432.99944	0.0603
432.03508	0.05981
431.07071	0.0594
430.10635	0.05849
429.14199	0.0557
428.17762	0.05164
427.21326	0.0471
426.24889	0.04277
425.28453	0.03901
424.32017	0.03551
423.3558	0.03197
422.39144	0.0286
421.42707	0.02535
420.46271	0.0225
419.49835	0.02003
418.53398	0.01777
417.56962	0.01595
416.60525	0.01492
415.64089	0.01493
414.67653	0.01595
413.71216	0.01784
412.7478	0.02106
411.78343	0.02626
410.81907	0.03021
409.85471	0.03481
408.89034	0.04006
407.92598	0.04597
406.96161	0.05253
405.99725	0.05973
405.03289	0.06759
404.06852	0.0761
403.10416	0.08527
402.13979	0.09508
401.17543	0.10555
400.21107	0.11667