3996.41167	0.01462
3994.4829	0.01448
3992.55413	0.01434
3990.62536	0.01421
3988.69659	0.01409
3986.76782	0.01397
3984.83905	0.01386
3982.91028	0.01376
3980.98151	0.01367
3979.05274	0.01358
3977.12397	0.01351
3975.1952	0.01344
3973.26643	0.01337
3971.33766	0.01329
3969.40889	0.01321
3967.48012	0.01317
3965.55135	0.01314
3963.62258	0.01315
3961.69381	0.01321
3959.76504	0.01329
3957.83627	0.01332
3955.9075	0.0133
3953.97873	0.01328
3952.04996	0.01333
3950.12119	0.01345
3948.19242	0.01359
3946.26365	0.01372
3944.33488	0.01381
3942.40611	0.01381
3940.47734	0.01373
3938.54857	0.01364
3936.6198	0.01363
3934.69103	0.01366
3932.76226	0.01374
3930.83349	0.01384
3928.90472	0.01385
3926.97595	0.01367
3925.04718	0.01339
3923.11841	0.01316
3921.18964	0.01307
3919.26087	0.01312
3917.3321	0.01323
3915.40333	0.01327
3913.47456	0.01323
3911.54579	0.01321
3909.61702	0.01325
3907.68825	0.01335
3905.75948	0.01352
3903.83071	0.01368
3901.90194	0.01383
3899.97317	0.01403
3898.0444	0.01429
3896.11563	0.01449
3894.18686	0.01459
3892.25809	0.01466
3890.32932	0.01477
3888.40055	0.01491
3886.47178	0.01503
3884.54301	0.01513
3882.61424	0.01521
3880.68547	0.01528
3878.7567	0.01536
3876.82792	0.01543
3874.89915	0.01552
3872.97038	0.01573
3871.04161	0.01602
3869.11284	0.01631
3867.18407	0.01663
3865.2553	0.01694
3863.32653	0.01712
3861.39776	0.01717
3859.46899	0.0172
3857.54022	0.01729
3855.61145	0.0174
3853.68268	0.01749
3851.75391	0.01745
3849.82514	0.01725
3847.89637	0.01696
3845.9676	0.01667
3844.03883	0.01637
3842.11006	0.01604
3840.18129	0.01575
3838.25252	0.01553
3836.32375	0.0154
3834.39498	0.01531
3832.46621	0.01513
3830.53744	0.01483
3828.60867	0.01463
3826.6799	0.01463
3824.75113	0.01464
3822.82236	0.01456
3820.89359	0.01443
3818.96482	0.01428
3817.03605	0.01413
3815.10728	0.01404
3813.17851	0.01404
3811.24974	0.01408
3809.32097	0.01405
3807.3922	0.01394
3805.46343	0.01379
3803.53466	0.01356
3801.60589	0.01324
3799.67712	0.01285
3797.74835	0.01244
3795.81958	0.01211
3793.89081	0.01182
3791.96204	0.01152
3790.03327	0.01126
3788.1045	0.01104
3786.17573	0.01078
3784.24696	0.01047
3782.31819	0.01016
3780.38942	0.00992
3778.46065	0.00983
3776.53188	0.00988
3774.60311	0.0099
3772.67434	0.00987
3770.74557	0.01002
3768.8168	0.01036
3766.88803	0.01085
3764.95926	0.01157
3763.03049	0.01241
3761.10172	0.01329
3759.17295	0.01418
3757.24418	0.01489
3755.31541	0.01549
3753.38664	0.01617
3751.45787	0.01681
3749.5291	0.01722
3747.60033	0.01713
3745.67156	0.01675
3743.74279	0.01609
3741.81402	0.01527
3739.88525	0.0142
3737.95648	0.01292
3736.02771	0.01192
3734.09894	0.01105
3732.17017	0.01044
3730.2414	0.00982
3728.31263	0.00915
3726.38386	0.00855
3724.45509	0.00806
3722.52632	0.00771
3720.59755	0.00762
3718.66878	0.00781
3716.74001	0.00824
3714.81124	0.00862
3712.88247	0.00902
3710.9537	0.00962
3709.02493	0.01092
3707.09616	0.01277
3705.16739	0.01483
3703.23861	0.01685
3701.30984	0.01862
3699.38107	0.02017
3697.4523	0.02164
3695.52353	0.02345
3693.59476	0.02557
3691.66599	0.02803
3689.73722	0.03088
3687.80845	0.03364
3685.87968	0.03641
3683.95091	0.03888
3682.02214	0.04101
3680.09337	0.04272
3678.1646	0.04418
3676.23583	0.04561
3674.30706	0.04688
3672.37829	0.04781
3670.44952	0.0485
3668.52075	0.049
3666.59198	0.04967
3664.66321	0.05059
3662.73444	0.05174
3660.80567	0.05277
3658.8769	0.05354
3656.94813	0.05401
3655.01936	0.05414
3653.09059	0.05399
3651.16182	0.05397
3649.23305	0.05431
3647.30428	0.05461
3645.37551	0.05481
3643.44674	0.05509
3641.51797	0.05531
3639.5892	0.05567
3637.66043	0.05614
3635.73166	0.05679
3633.80289	0.05801
3631.87412	0.05971
3629.94535	0.06164
3628.01658	0.06375
3626.08781	0.06597
3624.15904	0.06837
3622.23027	0.07096
3620.3015	0.07377
3618.37273	0.07662
3616.44396	0.07967
3614.51519	0.08268
3612.58642	0.08574
3610.65765	0.08876
3608.72888	0.09173
3606.80011	0.09477
3604.87134	0.09798
3602.94257	0.10126
3601.0138	0.10435
3599.08503	0.10743
3597.15626	0.11055
3595.22749	0.11371
3593.29872	0.11714
3591.36995	0.12073
3589.44118	0.1246
3587.51241	0.1289
3585.58364	0.13322
3583.65487	0.13747
3581.7261	0.14176
3579.79733	0.14597
3577.86856	0.15009
3575.93979	0.15422
3574.01102	0.15849
3572.08225	0.16273
3570.15348	0.16702
3568.22471	0.1712
3566.29594	0.17555
3564.36717	0.17999
3562.4384	0.18464
3560.50963	0.1894
3558.58086	0.19419
3556.65209	0.19896
3554.72332	0.20373
3552.79455	0.2085
3550.86578	0.2133
3548.93701	0.21813
3547.00824	0.22303
3545.07947	0.22803
3543.1507	0.23318
3541.22193	0.23843
3539.29316	0.24369
3537.36439	0.24893
3535.43562	0.25417
3533.50685	0.25943
3531.57807	0.26468
3529.6493	0.26993
3527.72053	0.27521
3525.79176	0.28056
3523.86299	0.28604
3521.93422	0.29166
3520.00545	0.29739
3518.07668	0.30321
3516.14791	0.30907
3514.21914	0.31496
3512.29037	0.32087
3510.3616	0.32676
3508.43283	0.33262
3506.50406	0.33852
3504.57529	0.34449
3502.64652	0.35059
3500.71775	0.35675
3498.78898	0.3629
3496.86021	0.36899
3494.93144	0.37507
3493.00267	0.38121
3491.0739	0.3874
3489.14513	0.39362
3487.21636	0.39984
3485.28759	0.40606
3483.35882	0.4123
3481.43005	0.41859
3479.50128	0.42496
3477.57251	0.43141
3475.64374	0.4379
3473.71497	0.44439
3471.7862	0.4509
3469.85743	0.45744
3467.92866	0.46403
3465.99989	0.47064
3464.07112	0.47728
3462.14235	0.48401
3460.21358	0.49081
3458.28481	0.49762
3456.35604	0.50437
3454.42727	0.51103
3452.4985	0.51766
3450.56973	0.52431
3448.64096	0.53097
3446.71219	0.5376
3444.78342	0.54418
3442.85465	0.55069
3440.92588	0.55716
3438.99711	0.56359
3437.06834	0.56994
3435.13957	0.57619
3433.2108	0.58232
3431.28203	0.58833
3429.35326	0.59425
3427.42449	0.60005
3425.49572	0.60577
3423.56695	0.61142
3421.63818	0.61695
3419.70941	0.62233
3417.78064	0.62761
3415.85187	0.63283
3413.9231	0.63793
3411.99433	0.64284
3410.06556	0.64756
3408.13679	0.65217
3406.20802	0.65669
3404.27925	0.66112
3402.35048	0.66542
3400.42171	0.66963
3398.49294	0.67372
3396.56417	0.67767
3394.6354	0.68143
3392.70663	0.68498
3390.77786	0.68832
3388.84909	0.69147
3386.92032	0.69445
3384.99155	0.69727
3383.06278	0.69991
3381.13401	0.70237
3379.20524	0.70464
3377.27647	0.70675
3375.3477	0.70869
3373.41893	0.7105
3371.49016	0.71216
3369.56139	0.71368
3367.63262	0.71503
3365.70385	0.71619
3363.77508	0.71717
3361.84631	0.71803
3359.91753	0.71877
3357.98876	0.71934
3356.05999	0.71972
3354.13122	0.71992
3352.20245	0.71992
3350.27368	0.71972
3348.34491	0.71931
3346.41614	0.71872
3344.48737	0.718
3342.5586	0.71716
3340.62983	0.71618
3338.70106	0.71509
3336.77229	0.71396
3334.84352	0.71279
3332.91475	0.71158
3330.98598	0.71029
3329.05721	0.70887
3327.12844	0.70732
3325.19967	0.70566
3323.2709	0.7039
3321.34213	0.70207
3319.41336	0.70013
3317.48459	0.69803
3315.55582	0.69579
3313.62705	0.69347
3311.69828	0.69109
3309.76951	0.68864
3307.84074	0.6861
3305.91197	0.68349
3303.9832	0.68076
3302.05443	0.6779
3300.12566	0.67493
3298.19689	0.67192
3296.26812	0.66892
3294.33935	0.66594
3292.41058	0.66296
3290.48181	0.65992
3288.55304	0.65676
3286.62427	0.65349
3284.6955	0.65015
3282.76673	0.64673
3280.83796	0.64327
3278.90919	0.6398
3276.98042	0.63635
3275.05165	0.63284
3273.12288	0.62921
3271.19411	0.62549
3269.26534	0.62174
3267.33657	0.61797
3265.4078	0.61414
3263.47903	0.61024
3261.55026	0.60632
3259.62149	0.60236
3257.69272	0.59836
3255.76395	0.59428
3253.83518	0.59017
3251.90641	0.58609
3249.97764	0.58207
3248.04887	0.578
3246.1201	0.57382
3244.19133	0.56954
3242.26256	0.56523
3240.33379	0.56094
3238.40502	0.55665
3236.47625	0.55235
3234.54748	0.54804
3232.61871	0.54367
3230.68994	0.53923
3228.76117	0.53466
3226.8324	0.52998
3224.90363	0.5252
3222.97486	0.52029
3221.04609	0.51527
3219.11732	0.51015
3217.18855	0.50496
3215.25978	0.4997
3213.33101	0.49437
3211.40224	0.48892
3209.47347	0.48335
3207.5447	0.47771
3205.61593	0.47208
3203.68716	0.46642
3201.75839	0.4607
3199.82962	0.45492
3197.90085	0.44914
3195.97208	0.44337
3194.04331	0.43761
3192.11454	0.43184
3190.18577	0.42607
3188.257	0.42029
3186.32822	0.41452
3184.39945	0.40875
3182.47068	0.403
3180.54191	0.39724
3178.61314	0.39145
3176.68437	0.38564
3174.7556	0.37987
3172.82683	0.37415
3170.89806	0.36845
3168.96929	0.36279
3167.04052	0.35718
3165.11175	0.35162
3163.18298	0.34613
3161.25421	0.34073
3159.32544	0.33542
3157.39667	0.33018
3155.4679	0.32499
3153.53913	0.31987
3151.61036	0.31481
3149.68159	0.30984
3147.75282	0.30496
3145.82405	0.30014
3143.89528	0.29539
3141.96651	0.29072
3140.03774	0.28614
3138.10897	0.28167
3136.1802	0.27734
3134.25143	0.2731
3132.32266	0.26893
3130.39389	0.26486
3128.46512	0.26088
3126.53635	0.25698
3124.60758	0.25314
3122.67881	0.24938
3120.75004	0.24574
3118.82127	0.24221
3116.8925	0.23878
3114.96373	0.23544
3113.03496	0.23218
3111.10619	0.22896
3109.17742	0.22582
3107.24865	0.22281
3105.31988	0.21993
3103.39111	0.21718
3101.46234	0.21456
3099.53357	0.21207
3097.6048	0.20969
3095.67603	0.20743
3093.74726	0.20532
3091.81849	0.20338
3089.88972	0.20159
3087.96095	0.19993
3086.03218	0.19838
3084.10341	0.19695
3082.17464	0.19559
3080.24587	0.19427
3078.3171	0.193
3076.38833	0.19179
3074.45956	0.19064
3072.53079	0.18954
3070.60202	0.18844
3068.67325	0.18732
3066.74448	0.1862
3064.81571	0.18512
3062.88694	0.18407
3060.95817	0.18307
3059.0294	0.18207
3057.10063	0.18109
3055.17186	0.18015
3053.24309	0.17927
3051.31432	0.17843
3049.38555	0.17764
3047.45678	0.17689
3045.52801	0.17623
3043.59924	0.17569
3041.67047	0.17527
3039.7417	0.17496
3037.81293	0.17475
3035.88416	0.17467
3033.95539	0.17478
3032.02662	0.17513
3030.09785	0.17574
3028.16908	0.1766
3026.24031	0.17772
3024.31154	0.17913
3022.38277	0.18089
3020.454	0.18304
3018.52523	0.18561
3016.59646	0.18859
3014.66768	0.1919
3012.73891	0.19561
3010.81014	0.20011
3008.88137	0.20572
3006.9526	0.21248
3005.02383	0.22028
3003.09506	0.22912
3001.16629	0.23907
2999.23752	0.25027
2997.30875	0.2628
2995.37998	0.27675
2993.45121	0.29218
2991.52244	0.30898
2989.59367	0.32683
2987.6649	0.34515
2985.73613	0.3632
2983.80736	0.3802
2981.87859	0.39551
2979.94982	0.40861
2978.02105	0.41908
2976.09228	0.42661
2974.16351	0.43107
2972.23474	0.43245
2970.30597	0.43086
2968.3772	0.42666
2966.44843	0.42057
2964.51966	0.41334
2962.59089	0.40541
2960.66212	0.39715
2958.73335	0.38919
2956.80458	0.38227
2954.87581	0.37706
2952.94704	0.37407
2951.01827	0.37364
2949.0895	0.37592
2947.16073	0.38078
2945.23196	0.38781
2943.30319	0.39638
2941.37442	0.40574
2939.44565	0.41514
2937.51688	0.42407
2935.58811	0.43213
2933.65934	0.43906
2931.73057	0.44465
2929.8018	0.4487
2927.87303	0.45111
2925.94426	0.45187
2924.01549	0.45129
2922.08672	0.44979
2920.15795	0.44761
2918.22918	0.4448
2916.30041	0.44149
2914.37164	0.43794
2912.44287	0.43441
2910.5141	0.43101
2908.58533	0.42779
2906.65656	0.42487
2904.72779	0.42232
2902.79902	0.42011
2900.87025	0.41814
2898.94148	0.4163
2897.01271	0.4145
2895.08394	0.41266
2893.15517	0.41069
2891.2264	0.40853
2889.29763	0.40614
2887.36886	0.40343
2885.44009	0.40018
2883.51132	0.39619
2881.58255	0.39138
2879.65378	0.38581
2877.72501	0.3796
2875.79624	0.37264
2873.86747	0.3647
2871.9387	0.3557
2870.00993	0.34581
2868.08116	0.33522
2866.15239	0.32405
2864.22362	0.31245
2862.29485	0.30068
2860.36608	0.28903
2858.43731	0.27765
2856.50854	0.26665
2854.57977	0.25612
2852.651	0.24623
2850.72223	0.23708
2848.79346	0.22873
2846.86469	0.22119
2844.93592	0.21444
2843.00714	0.20847
2841.07837	0.20315
2839.1496	0.19835
2837.22083	0.19396
2835.29206	0.1899
2833.36329	0.18615
2831.43452	0.18265
2829.50575	0.17932
2827.57698	0.17608
2825.64821	0.17295
2823.71944	0.16989
2821.79067	0.16691
2819.8619	0.16402
2817.93313	0.16126
2816.00436	0.15858
2814.07559	0.15597
2812.14682	0.15344
2810.21805	0.15101
2808.28928	0.14865
2806.36051	0.1463
2804.43174	0.14398
2802.50297	0.14169
2800.5742	0.13947
2798.64543	0.13735
2796.71666	0.13532
2794.78789	0.1334
2792.85912	0.13157
2790.93035	0.12984
2789.00158	0.1282
2787.07281	0.12669
2785.14404	0.12528
2783.21527	0.12392
2781.2865	0.1226
2779.35773	0.12136
2777.42896	0.12019
2775.50019	0.11908
2773.57142	0.11803
2771.64265	0.11704
2769.71388	0.11607
2767.78511	0.11518
2765.85634	0.11439
2763.92757	0.11365
2761.9988	0.1129
2760.07003	0.11213
2758.14126	0.11137
2756.21249	0.11063
2754.28372	0.10988
2752.35495	0.10914
2750.42618	0.1084
2748.49741	0.10766
2746.56864	0.10695
2744.63987	0.10626
2742.7111	0.10558
2740.78233	0.10489
2738.85356	0.10418
2736.92479	0.10345
2734.99602	0.10271
2733.06725	0.10194
2731.13848	0.10117
2729.20971	0.10037
2727.28094	0.09957
2725.35217	0.09878
2723.4234	0.09801
2721.49463	0.09724
2719.56586	0.09644
2717.63709	0.09561
2715.70832	0.09477
2713.77955	0.09394
2711.85078	0.09313
2709.92201	0.09232
2707.99324	0.09152
2706.06447	0.09074
2704.1357	0.09002
2702.20693	0.0894
2700.27816	0.0889
2698.34939	0.08846
2696.42062	0.08808
2694.49185	0.08775
2692.56308	0.08747
2690.63431	0.08721
2688.70554	0.08699
2686.77677	0.08678
2684.848	0.0866
2682.91923	0.08643
2680.99046	0.08627
2679.06169	0.0861
2677.13292	0.0859
2675.20415	0.08567
2673.27538	0.0854
2671.34661	0.0851
2669.41783	0.08476
2667.48906	0.08438
2665.56029	0.08393
2663.63152	0.08342
2661.70275	0.08285
2659.77398	0.08223
2657.84521	0.08157
2655.91644	0.08089
2653.98767	0.08019
2652.0589	0.07945
2650.13013	0.07867
2648.20136	0.07785
2646.27259	0.077
2644.34382	0.07612
2642.41505	0.07521
2640.48628	0.07429
2638.55751	0.07338
2636.62874	0.07247
2634.69997	0.07154
2632.7712	0.07058
2630.84243	0.06961
2628.91366	0.06861
2626.98489	0.06761
2625.05612	0.0666
2623.12735	0.06559
2621.19858	0.06456
2619.26981	0.06351
2617.34104	0.06245
2615.41227	0.06138
2613.4835	0.06031
2611.55473	0.05925
2609.62596	0.0582
2607.69719	0.05716
2605.76842	0.05615
2603.83965	0.0552
2601.91088	0.05429
2599.98211	0.0534
2598.05334	0.05254
2596.12457	0.05174
2594.1958	0.05099
2592.26703	0.05029
2590.33826	0.04962
2588.40949	0.04897
2586.48072	0.04833
2584.55195	0.04771
2582.62318	0.0471
2580.69441	0.04649
2578.76564	0.04591
2576.83687	0.04533
2574.9081	0.04473
2572.97933	0.0441
2571.05056	0.04349
2569.12179	0.04291
2567.19302	0.04238
2565.26425	0.04187
2563.33548	0.04136
2561.40671	0.04086
2559.47794	0.04042
2557.54917	0.04002
2555.6204	0.03962
2553.69163	0.03922
2551.76286	0.03884
2549.83409	0.03847
2547.90532	0.03812
2545.97655	0.03781
2544.04778	0.03754
2542.11901	0.03725
2540.19024	0.03692
2538.26147	0.03659
2536.3327	0.03626
2534.40393	0.03591
2532.47516	0.03555
2530.54639	0.0352
2528.61762	0.03483
2526.68885	0.03445
2524.76008	0.03409
2522.83131	0.03376
2520.90254	0.03343
2518.97377	0.03308
2517.045	0.0327
2515.11623	0.03231
2513.18746	0.03192
2511.25869	0.03154
2509.32992	0.03116
2507.40115	0.03078
2505.47238	0.0304
2503.54361	0.03006
2501.61484	0.02977
2499.68607	0.02952
2497.75729	0.02922
2495.82852	0.02888
2493.89975	0.02854
2491.97098	0.02825
2490.04221	0.02799
2488.11344	0.02773
2486.18467	0.02747
2484.2559	0.02722
2482.32713	0.02696
2480.39836	0.02674
2478.46959	0.02656
2476.54082	0.02641
2474.61205	0.02623
2472.68328	0.02604
2470.75451	0.02582
2468.82574	0.0256
2466.89697	0.02539
2464.9682	0.02521
2463.03943	0.02503
2461.11066	0.02483
2459.18189	0.02463
2457.25312	0.02444
2455.32435	0.02426
2453.39558	0.02404
2451.46681	0.02377
2449.53804	0.0235
2447.60927	0.02327
2445.6805	0.02306
2443.75173	0.02283
2441.82296	0.0226
2439.89419	0.02239
2437.96542	0.02222
2436.03665	0.0221
2434.10788	0.02202
2432.17911	0.02194
2430.25034	0.02183
2428.32157	0.02169
2426.3928	0.02155
2424.46403	0.02142
2422.53526	0.02129
2420.60649	0.02114
2418.67772	0.02097
2416.74895	0.02079
2414.82018	0.02062
2412.89141	0.02046
2410.96264	0.0203
2409.03387	0.02011
2407.1051	0.01989
2405.17633	0.01966
2403.24756	0.01942
2401.31879	0.01918
2399.39002	0.01893
2397.46125	0.01868
2395.53248	0.01845
2393.60371	0.01823
2391.67494	0.01801
2389.74617	0.01779
2387.8174	0.01756
2385.88863	0.01731
2383.95986	0.01705
2382.03109	0.01679
2380.10232	0.01655
2378.17355	0.01631
2376.24478	0.01607
2374.31601	0.01583
2372.38724	0.01558
2370.45847	0.01534
2368.5297	0.0151
2366.60093	0.01487
2364.67216	0.01467
2362.74339	0.01448
2360.81462	0.01428
2358.88585	0.01408
2356.95708	0.01388
2355.02831	0.01369
2353.09954	0.01349
2351.17077	0.01329
2349.242	0.0131
2347.31323	0.0129
2345.38446	0.0127
2343.45569	0.01251
2341.52692	0.01231
2339.59815	0.01211
2337.66938	0.01192
2335.74061	0.01172
2333.81184	0.01152
2331.88307	0.01132
2329.9543	0.01113
2328.02553	0.01093
2326.09675	0.01073
2324.16798	0.01061
2322.23921	0.00997
2320.31044	0.00941
2318.38167	0.00956
2316.4529	0.01003
2314.52413	0.01033
2312.59536	0.01036
2310.66659	0.01006
2308.73782	0.00962
2306.80905	0.00915
2304.88028	0.00885
2302.95151	0.00869
2301.02274	0.00857
2299.09397	0.00853
2297.1652	0.00848
2295.23643	0.00844
2293.30766	0.00837
2291.37889	0.00828
2289.45012	0.00817
2287.52135	0.00799
2285.59258	0.00777
2283.66381	0.00764
2281.73504	0.00741
2279.80627	0.00715
2277.8775	0.00695
2275.94873	0.00665
2274.01996	0.00704
2272.09119	0.00776
2270.16242	0.00798
2268.23365	0.00769
2266.30488	0.00722
2264.37611	0.00672
2262.44734	0.00639
2260.51857	0.00622
2258.5898	0.00625
2256.66103	0.00635
2254.73226	0.00642
2252.80349	0.0065
2250.87472	0.00651
2248.94595	0.00652
2247.01718	0.0065
2245.08841	0.00643
2243.15964	0.00634
2241.23087	0.00622
2239.3021	0.00612
2237.37333	0.00607
2235.44456	0.00595
2233.51579	0.00593
2231.58702	0.006
2229.65825	0.00606
2227.72948	0.00614
2225.80071	0.00618
2223.87194	0.0062
2221.94317	0.00621
2220.0144	0.00622
2218.08563	0.00623
2216.15686	0.00628
2214.22809	0.00644
2212.29932	0.00674
2210.37055	0.00707
2208.44178	0.00734
2206.51301	0.00755
2204.58424	0.00777
2202.65547	0.00799
2200.7267	0.00816
2198.79793	0.00827
2196.86916	0.00837
2194.94039	0.00849
2193.01162	0.00862
2191.08285	0.00875
2189.15408	0.00879
2187.22531	0.00874
2185.29654	0.00866
2183.36777	0.00855
2181.439	0.00835
2179.51023	0.00799
2177.58146	0.00751
2175.65269	0.00698
2173.72392	0.00644
2171.79515	0.00602
2169.86638	0.00575
2167.93761	0.00563
2166.00884	0.00563
2164.08007	0.00574
2162.1513	0.00593
2160.22253	0.00625
2158.29376	0.00674
2156.36499	0.0074
2154.43622	0.00817
2152.50744	0.00907
2150.57867	0.01007
2148.6499	0.01115
2146.72113	0.01221
2144.79236	0.01318
2142.86359	0.01405
2140.93482	0.01485
2139.00605	0.01559
2137.07728	0.01623
2135.14851	0.01671
2133.21974	0.01703
2131.29097	0.01725
2129.3622	0.01741
2127.43343	0.01752
2125.50466	0.01758
2123.57589	0.01763
2121.64712	0.01767
2119.71835	0.01768
2117.78958	0.01763
2115.86081	0.01755
2113.93204	0.01746
2112.00327	0.0174
2110.0745	0.01736
2108.14573	0.01734
2106.21696	0.01731
2104.28819	0.01727
2102.35942	0.01722
2100.43065	0.01714
2098.50188	0.01703
2096.57311	0.01692
2094.64434	0.01683
2092.71557	0.01676
2090.7868	0.0167
2088.85803	0.01657
2086.92926	0.01638
2085.00049	0.01615
2083.07172	0.01588
2081.14295	0.01556
2079.21418	0.01523
2077.28541	0.01494
2075.35664	0.01465
2073.42787	0.01434
2071.4991	0.01402
2069.57033	0.01373
2067.64156	0.01341
2065.71279	0.01306
2063.78402	0.01268
2061.85525	0.01229
2059.92648	0.01186
2057.99771	0.01141
2056.06894	0.01095
2054.14017	0.01047
2052.2114	0.00992
2050.28263	0.00929
2048.35386	0.00862
2046.42509	0.00799
2044.49632	0.00741
2042.56755	0.00685
2040.63878	0.00631
2038.71001	0.00582
2036.78124	0.00536
2034.85247	0.00493
2032.9237	0.0045
2030.99493	0.00406
2029.06616	0.00359
2027.13739	0.00312
2025.20862	0.00264
2023.27985	0.00218
2021.35108	0.00173
2019.42231	0.00133
2017.49354	0.00102
2015.56477	8.14879E-4
2013.636	7.06217E-4
2011.70723	6.9658E-4
2009.77846	7.62478E-4
2007.84969	8.67121E-4
2005.92092	0.00102
2003.99215	0.00127
2002.06338	0.00165
2000.13461	0.00207
1998.20584	0.00244
1996.27707	0.0027
1994.3483	0.00285
1992.41953	0.00287
1990.49076	0.00275
1988.56199	0.00246
1986.63322	0.00205
1984.70445	0.00162
1982.77568	0.00121
1980.8469	8.05656E-4
1978.91813	4.51355E-4
1976.98936	1.7987E-4
1975.06059	1.83302E-5
1973.13182	0
1971.20305	1.33467E-4
1969.27428	4.13865E-4
1967.34551	8.49213E-4
1965.41674	0.00145
1963.48797	0.00218
1961.5592	0.00301
1959.63043	0.00389
1957.70166	0.00474
1955.77289	0.0055
1953.84412	0.00616
1951.91535	0.00677
1949.98658	0.00736
1948.05781	0.00791
1946.12904	0.00842
1944.20027	0.00894
1942.2715	0.00945
1940.34273	0.00998
1938.41396	0.01053
1936.48519	0.01108
1934.55642	0.01162
1932.62765	0.01214
1930.69888	0.01263
1928.77011	0.01308
1926.84134	0.0135
1924.91257	0.01389
1922.9838	0.01424
1921.05503	0.01456
1919.12626	0.01482
1917.19749	0.01498
1915.26872	0.01505
1913.33995	0.01506
1911.41118	0.01501
1909.48241	0.01491
1907.55364	0.01458
1905.62487	0.01429
1903.6961	0.01405
1901.76733	0.01382
1899.83856	0.01361
1897.90979	0.01341
1895.98102	0.01325
1894.05225	0.01313
1892.12348	0.01301
1890.19471	0.01288
1888.26594	0.01272
1886.33717	0.01256
1884.4084	0.0124
1882.47963	0.01226
1880.55086	0.01213
1878.62209	0.01199
1876.69332	0.01183
1874.76455	0.01165
1872.83578	0.01145
1870.90701	0.01124
1868.97824	0.01104
1867.04947	0.01086
1865.1207	0.01068
1863.19193	0.01053
1861.26316	0.01042
1859.33439	0.01035
1857.40562	0.01032
1855.47685	0.01032
1853.54808	0.01036
1851.61931	0.01042
1849.69054	0.01048
1847.76177	0.01052
1845.833	0.01055
1843.90423	0.01062
1841.97546	0.01073
1840.04669	0.01089
1838.11792	0.01108
1836.18915	0.01131
1834.26038	0.01153
1832.33161	0.01176
1830.40284	0.01206
1828.47407	0.01251
1826.5453	0.01314
1824.61653	0.01396
1822.68776	0.01509
1820.75899	0.01672
1818.83022	0.01902
1816.90145	0.02206
1814.97268	0.02587
1813.04391	0.03054
1811.11514	0.0361
1809.18636	0.04246
1807.25759	0.04946
1805.32882	0.05697
1803.40005	0.06485
1801.47128	0.07301
1799.54251	0.08135
1797.61374	0.08974
1795.68497	0.09804
1793.7562	0.10613
1791.82743	0.11386
1789.89866	0.12112
1787.96989	0.12786
1786.04112	0.13408
1784.11235	0.13981
1782.18358	0.14519
1780.25481	0.15041
1778.32604	0.1557
1776.39727	0.16127
1774.4685	0.1673
1772.53973	0.17373
1770.61096	0.1801
1768.68219	0.18587
1766.75342	0.19067
1764.82465	0.1942
1762.89588	0.19617
1760.96711	0.19641
1759.03834	0.19491
1757.10957	0.19181
1755.1808	0.18716
1753.25203	0.18095
1751.32326	0.17322
1749.39449	0.16407
1747.46572	0.15366
1745.53695	0.1422
1743.60818	0.13
1741.67941	0.11738
1739.75064	0.10466
1737.82187	0.09228
1735.8931	0.08078
1733.96433	0.07062
1732.03556	0.06201
1730.10679	0.05508
1728.17802	0.04984
1726.24925	0.04615
1724.32048	0.04367
1722.39171	0.04222
1720.46294	0.04192
1718.53417	0.04295
1716.6054	0.04534
1714.67663	0.04906
1712.74786	0.05406
1710.81909	0.0602
1708.89032	0.06714
1706.96155	0.07459
1705.03278	0.0822
1703.10401	0.0896
1701.17524	0.09651
1699.24647	0.10271
1697.3177	0.108
1695.38893	0.11217
1693.46016	0.11513
1691.53139	0.11688
1689.60262	0.11748
1687.67385	0.11696
1685.74508	0.11542
1683.81631	0.113
1681.88754	0.10992
1679.95877	0.1064
1678.03	0.10254
1676.10123	0.09844
1674.17246	0.09438
1672.24369	0.09065
1670.31492	0.08741
1668.38615	0.08474
1666.45738	0.08267
1664.52861	0.08121
1662.59984	0.08035
1660.67107	0.07999
1658.7423	0.07997
1656.81353	0.0802
1654.88476	0.08067
1652.95599	0.0813
1651.02722	0.08203
1649.09845	0.08274
1647.16968	0.0834
1645.24091	0.08391
1643.31214	0.08419
1641.38337	0.08424
1639.4546	0.08408
1637.52583	0.0836
1635.59705	0.08272
1633.66828	0.0814
1631.73951	0.07962
1629.81074	0.07743
1627.88197	0.07496
1625.9532	0.07234
1624.02443	0.06962
1622.09566	0.06683
1620.16689	0.06397
1618.23812	0.06107
1616.30935	0.05817
1614.38058	0.05531
1612.45181	0.05251
1610.52304	0.04979
1608.59427	0.0472
1606.6655	0.04479
1604.73673	0.0426
1602.80796	0.04064
1600.87919	0.03891
1598.95042	0.03738
1597.02165	0.0361
1595.09288	0.03514
1593.16411	0.0345
1591.23534	0.03411
1589.30657	0.03399
1587.3778	0.03423
1585.44903	0.03487
1583.52026	0.03586
1581.59149	0.03713
1579.66272	0.03869
1577.73395	0.04056
1575.80518	0.04272
1573.87641	0.04508
1571.94764	0.04758
1570.01887	0.05017
1568.0901	0.05281
1566.16133	0.05548
1564.23256	0.05817
1562.30379	0.0608
1560.37502	0.06325
1558.44625	0.0655
1556.51748	0.06755
1554.58871	0.06937
1552.65994	0.07092
1550.73117	0.07222
1548.8024	0.07327
1546.87363	0.07405
1544.94486	0.0746
1543.01609	0.07501
1541.08732	0.07528
1539.15855	0.07541
1537.22978	0.07534
1535.30101	0.07506
1533.37224	0.0747
1531.44347	0.07434
1529.5147	0.07392
1527.58593	0.0733
1525.65716	0.07243
1523.72839	0.07139
1521.79962	0.07029
1519.87085	0.06918
1517.94208	0.06808
1516.01331	0.0669
1514.08454	0.06562
1512.15577	0.06421
1510.227	0.06259
1508.29823	0.06075
1506.36946	0.05881
1504.44069	0.05707
1502.51192	0.05583
1500.58315	0.05526
1498.65438	0.05531
1496.72561	0.05575
1494.79684	0.05644
1492.86807	0.05741
1490.9393	0.05874
1489.01053	0.06045
1487.08176	0.06259
1485.15299	0.06534
1483.22422	0.06883
1481.29545	0.07319
1479.36668	0.07863
1477.43791	0.08508
1475.50914	0.09225
1473.58037	0.09986
1471.6516	0.10759
1469.72283	0.11511
1467.79406	0.12202
1465.86529	0.12798
1463.93651	0.13283
1462.00774	0.13656
1460.07897	0.13928
1458.1502	0.14107
1456.22143	0.14193
1454.29266	0.1417
1452.36389	0.14026
1450.43512	0.13764
1448.50635	0.13415
1446.57758	0.13019
1444.64881	0.12603
1442.72004	0.12191
1440.79127	0.11823
1438.8625	0.11546
1436.93373	0.11382
1435.00496	0.1134
1433.07619	0.11413
1431.14742	0.11577
1429.21865	0.11819
1427.28988	0.12131
1425.36111	0.12488
1423.43234	0.12853
1421.50357	0.13191
1419.5748	0.13485
1417.64603	0.13737
1415.71726	0.13956
1413.78849	0.14141
1411.85972	0.14278
1409.93095	0.14353
1408.00218	0.14364
1406.07341	0.14325
1404.14464	0.14251
1402.21587	0.14163
1400.2871	0.14079
1398.35833	0.1402
1396.42956	0.14009
1394.50079	0.14066
1392.57202	0.14205
1390.64325	0.14426
1388.71448	0.14724
1386.78571	0.15095
1384.85694	0.15533
1382.92817	0.16015
1380.9994	0.16505
1379.07063	0.16967
1377.14186	0.17372
1375.21309	0.17704
1373.28432	0.17953
1371.35555	0.18115
1369.42678	0.18175
1367.49801	0.18113
1365.56924	0.17919
1363.64047	0.17605
1361.7117	0.17203
1359.78293	0.16751
1357.85416	0.16286
1355.92539	0.15839
1353.99662	0.1544
1352.06785	0.15118
1350.13908	0.14892
1348.21031	0.14774
1346.28154	0.14761
1344.35277	0.14843
1342.424	0.15006
1340.49523	0.15231
1338.56646	0.15492
1336.63769	0.15755
1334.70892	0.15999
1332.78015	0.16205
1330.85138	0.16358
1328.92261	0.16444
1326.99384	0.16453
1325.06507	0.16385
1323.1363	0.16248
1321.20753	0.16059
1319.27876	0.15842
1317.34999	0.15616
1315.42122	0.15396
1313.49245	0.15191
1311.56368	0.14999
1309.63491	0.1482
1307.70614	0.14654
1305.77737	0.14504
1303.8486	0.14376
1301.91983	0.1427
1299.99106	0.14179
1298.06229	0.14093
1296.13352	0.13995
1294.20475	0.1387
1292.27597	0.1371
1290.3472	0.13511
1288.41843	0.13274
1286.48966	0.12999
1284.56089	0.12683
1282.63212	0.12328
1280.70335	0.11942
1278.77458	0.11544
1276.84581	0.11161
1274.91704	0.10816
1272.98827	0.10526
1271.0595	0.10298
1269.13073	0.10128
1267.20196	0.1001
1265.27319	0.09942
1263.34442	0.0993
1261.41565	0.09975
1259.48688	0.10066
1257.55811	0.10189
1255.62934	0.10327
1253.70057	0.10459
1251.7718	0.10562
1249.84303	0.10619
1247.91426	0.10613
1245.98549	0.10532
1244.05672	0.1037
1242.12795	0.10121
1240.19918	0.09783
1238.27041	0.09361
1236.34164	0.08869
1234.41287	0.0833
1232.4841	0.07777
1230.55533	0.07238
1228.62656	0.06744
1226.69779	0.0632
1224.76902	0.05985
1222.84025	0.05746
1220.91148	0.05603
1218.98271	0.05547
1217.05394	0.0556
1215.12517	0.05613
1213.1964	0.05679
1211.26763	0.05746
1209.33886	0.05806
1207.41009	0.05852
1205.48132	0.05877
1203.55255	0.05868
1201.62378	0.05817
1199.69501	0.05718
1197.76624	0.05575
1195.83747	0.05403
1193.9087	0.05228
1191.97993	0.05082
1190.05116	0.05007
1188.12239	0.05049
1186.19362	0.05258
1184.26485	0.05685
1182.33608	0.06377
1180.40731	0.07372
1178.47854	0.08687
1176.54977	0.10318
1174.621	0.12235
1172.69223	0.14385
1170.76346	0.16698
1168.83469	0.19094
1166.90592	0.21491
1164.97715	0.23812
1163.04838	0.2598
1161.11961	0.27925
1159.19084	0.2959
1157.26207	0.30942
1155.3333	0.31971
1153.40453	0.32686
1151.47576	0.33114
1149.54699	0.33293
1147.61822	0.33268
1145.68945	0.33087
1143.76068	0.32797
1141.83191	0.32454
1139.90314	0.32115
1137.97437	0.31842
1136.0456	0.31698
1134.11683	0.31742
1132.18806	0.32023
1130.25929	0.32564
1128.33052	0.33357
1126.40175	0.34354
1124.47298	0.35478
1122.54421	0.36639
1120.61544	0.37744
1118.68666	0.38704
1116.75789	0.39453
1114.82912	0.39957
1112.90035	0.4023
1110.97158	0.40329
1109.04281	0.40344
1107.11404	0.4039
1105.18527	0.40602
1103.2565	0.41108
1101.32773	0.41976
1099.39896	0.43174
1097.47019	0.44575
1095.54142	0.46009
1093.61265	0.47333
1091.68388	0.48472
1089.75511	0.49436
1087.82634	0.50283
1085.89757	0.51051
1083.9688	0.51729
1082.04003	0.52273
1080.11126	0.52642
1078.18249	0.52798
1076.25372	0.52717
1074.32495	0.524
1072.39618	0.51893
1070.46741	0.51275
1068.53864	0.50663
1066.60987	0.50202
1064.6811	0.50044
1062.75233	0.50332
1060.82356	0.51185
1058.89479	0.52675
1056.96602	0.548
1055.03725	0.57462
1053.10848	0.60506
1051.17971	0.63789
1049.25094	0.67232
1047.32217	0.70799
1045.3934	0.74467
1043.46463	0.78195
1041.53586	0.81898
1039.60709	0.85436
1037.67832	0.8867
1035.74955	0.91514
1033.82078	0.93931
1031.89201	0.95914
1029.96324	0.97478
1028.03447	0.98653
1026.1057	0.99466
1024.17693	0.99922
1022.24816	1
1020.31939	0.99653
1018.39062	0.98828
1016.46185	0.97478
1014.53308	0.9559
1012.60431	0.93192
1010.67554	0.90357
1008.74677	0.8719
1006.818	0.83821
1004.88923	0.80375
1002.96046	0.76943
1001.03169	0.73563
999.10292	0.70242
997.17415	0.66983
995.24538	0.63784
993.31661	0.60649
991.38784	0.57589
989.45907	0.54624
987.5303	0.51779
985.60153	0.49073
983.67276	0.46507
981.74399	0.44072
979.81522	0.41739
977.88645	0.39475
975.95768	0.37242
974.02891	0.35022
972.10014	0.32821
970.17137	0.30669
968.2426	0.28616
966.31383	0.2672
964.38506	0.25034
962.45629	0.236
960.52752	0.22439
958.59875	0.21553
956.66998	0.20931
954.74121	0.20545
952.81244	0.2036
950.88367	0.20333
948.9549	0.20413
947.02612	0.2054
945.09735	0.20647
943.16858	0.20667
941.23981	0.20542
939.31104	0.20231
937.38227	0.19718
935.4535	0.1901
933.52473	0.18136
931.59596	0.17142
929.66719	0.16081
927.73842	0.15006
925.80965	0.13957
923.88088	0.12954
921.95211	0.11996
920.02334	0.11072
918.09457	0.10169
916.1658	0.09279
914.23703	0.08404
912.30826	0.07549
910.37949	0.06722
908.45072	0.05933
906.52195	0.05202
904.59318	0.04554
902.66441	0.04017
900.73564	0.03608
898.80687	0.03319
896.8781	0.03127
894.94933	0.03005
893.02056	0.02936
891.09179	0.02912
889.16302	0.02935
887.23425	0.03008
885.30548	0.03135
883.37671	0.03322
881.44794	0.03569
879.51917	0.03879
877.5904	0.04256
875.66163	0.04696
873.73286	0.05194
871.80409	0.05735
869.87532	0.063
867.94655	0.06867
866.01778	0.07413
864.08901	0.07921
862.16024	0.08386
860.23147	0.08815
858.3027	0.09211
856.37393	0.09562
854.44516	0.09837
852.51639	0.09993
850.58762	0.09995
848.65885	0.09832
846.73008	0.09513
844.80131	0.09058
842.87254	0.08489
840.94377	0.07832
839.015	0.07115
837.08623	0.06367
835.15746	0.05619
833.22869	0.04898
831.29992	0.04222
829.37115	0.03598
827.44238	0.03027
825.51361	0.02508
823.58484	0.02045
821.65607	0.01645
819.7273	0.01314
817.79853	0.01059
815.86976	0.00882
813.94099	0.00777
812.01222	0.00729
810.08345	0.00715
808.15468	0.00718
806.22591	0.00733
804.29714	0.0076
802.36837	0.00806
800.4396	0.00874
798.51083	0.00962
796.58206	0.01064
794.65329	0.01176
792.72452	0.01301
790.79575	0.0144
788.86698	0.01595
786.93821	0.01774
785.00944	0.01985
783.08067	0.0224
781.1519	0.02552
779.22313	0.02927
777.29436	0.03371
775.36558	0.03879
773.43681	0.0444
771.50804	0.05029
769.57927	0.05618
767.6505	0.06174
765.72173	0.0667
763.79296	0.07086
761.86419	0.07418
759.93542	0.07664
758.00665	0.07827
756.07788	0.07906
754.14911	0.07903
752.22034	0.07819
750.29157	0.07661
748.3628	0.07441
746.43403	0.07167
744.50526	0.06868
742.57649	0.0655
740.64772	0.06235
738.71895	0.05962
736.79018	0.05745
734.86141	0.05598
732.93264	0.05533
731.00387	0.05558
729.0751	0.05675
727.14633	0.05881
725.21756	0.06176
723.28879	0.06561
721.36002	0.07032
719.43125	0.07583
717.50248	0.08192
715.57371	0.08832
713.64494	0.0947
711.71617	0.10076
709.7874	0.10631
707.85863	0.1112
705.92986	0.11536
704.00109	0.11873
702.07232	0.12126
700.14355	0.12294
698.21478	0.12375
696.28601	0.12291
694.35724	0.12022
692.42847	0.11937
690.4997	0.12068
688.57093	0.11631
686.64216	0.11223
684.71339	0.10937
682.78462	0.10682
680.85585	0.10465
678.92708	0.10323
676.99831	0.10254
675.06954	0.10259
673.14077	0.10317
671.212	0.104
669.28323	0.10488
667.35446	0.10571
665.42569	0.10641
663.49692	0.10694
661.56815	0.10727
659.63938	0.10741
657.71061	0.10732
655.78184	0.10702
653.85307	0.10649
651.9243	0.10567
649.99553	0.10455
648.06676	0.10411
646.13799	0.10566
644.20922	0.10547
642.28045	0.10093
640.35168	0.1006
638.42291	0.10066
636.49414	0.10017
634.56537	0.10005
632.6366	0.10069
630.70783	0.10204
628.77906	0.10419
626.85029	0.10702
624.92152	0.1104
622.99275	0.1142
621.06398	0.11827
619.13521	0.12242
617.20644	0.12654
615.27767	0.13056
613.3489	0.13442
611.42013	0.13809
609.49136	0.14154
607.56259	0.14475
605.63382	0.14774
603.70505	0.15054
601.77627	0.15323
599.8475	0.15592
597.91873	0.15861
595.98996	0.16127
594.06119	0.16385
592.13242	0.16631
590.20365	0.1686
588.27488	0.17056
586.34611	0.17204
584.41734	0.17291
582.48857	0.17306
580.5598	0.17244
578.63103	0.17104
576.70226	0.16889
574.77349	0.16609
572.84472	0.16276
570.91595	0.15903
568.98718	0.15506
567.05841	0.15097
565.12964	0.1469
563.20087	0.143
561.2721	0.13942
559.34333	0.13632
557.41456	0.13377
555.48579	0.13181
553.55702	0.13044
551.62825	0.12962
549.69948	0.12927
547.77071	0.1293
545.84194	0.12953
543.91317	0.12982
541.9844	0.13004
540.05563	0.13008
538.12686	0.12989
536.19809	0.12943
534.26932	0.1287
532.34055	0.12772
530.41178	0.12654
528.48301	0.12525
526.55424	0.12389
524.62547	0.12249
522.6967	0.12105
520.76793	0.11957
518.83916	0.11804
516.91039	0.11647
514.98162	0.11488
513.05285	0.11326
511.12408	0.11162
509.19531	0.10999
507.26654	0.10844
505.33777	0.107
503.409	0.10566
501.48023	0.10441
499.55146	0.10322
497.62269	0.10206
495.69392	0.10087
493.76515	0.09957
491.83638	0.09812
489.90761	0.09654
487.97884	0.09486
486.05007	0.09309
484.1213	0.09126
482.19253	0.08942
480.26376	0.08757
478.33499	0.0857
476.40622	0.08377
474.47745	0.08177
472.54868	0.07967
470.61991	0.07745
468.69114	0.07512
466.76237	0.0727
464.8336	0.07022
462.90483	0.06774
460.97606	0.06533
459.04729	0.06306
457.11852	0.06098
455.18975	0.05915
453.26098	0.0576
451.33221	0.05632
449.40344	0.05526
447.47467	0.05437
445.5459	0.05365
443.61713	0.05312
441.68836	0.05277
439.75959	0.05256
437.83082	0.05241
435.90205	0.05232
433.97328	0.05222
432.04451	0.05204
430.11573	0.0517
428.18696	0.05113
426.25819	0.05027
424.32942	0.04912
422.40065	0.04773
420.47188	0.04639
418.54311	0.04492
416.61434	0.04331
414.68557	0.04157
412.7568	0.03969
410.82803	0.03768
408.89926	0.03553
406.97049	0.03325
405.04172	0.03083
403.11295	0.02828
401.18418	0.02559
399.25541	0.02276