3996.41167	0.01917
3994.4829	0.0193
3992.55413	0.01943
3990.62536	0.01956
3988.69659	0.01971
3986.76782	0.01985
3984.83905	0.02
3982.91028	0.02016
3980.98151	0.02032
3979.05274	0.02048
3977.12397	0.02065
3975.1952	0.02083
3973.26643	0.02101
3971.33766	0.02095
3969.40889	0.02108
3967.48012	0.02132
3965.55135	0.02161
3963.62258	0.02201
3961.69381	0.02259
3959.76504	0.02325
3957.83627	0.0238
3955.9075	0.02403
3953.97873	0.02403
3952.04996	0.02413
3950.12119	0.02442
3948.19242	0.02473
3946.26365	0.02509
3944.33488	0.02557
3942.40611	0.02598
3940.47734	0.02615
3938.54857	0.02631
3936.6198	0.02668
3934.69103	0.02721
3932.76226	0.02763
3930.83349	0.02768
3928.90472	0.02721
3926.97595	0.02635
3925.04718	0.02558
3923.11841	0.02517
3921.18964	0.0252
3919.26087	0.02571
3917.3321	0.02649
3915.40333	0.02708
3913.47456	0.02735
3911.54579	0.02745
3909.61702	0.02731
3907.68825	0.02694
3905.75948	0.02655
3903.83071	0.02614
3901.90194	0.02581
3899.97317	0.02584
3898.0444	0.02595
3896.11563	0.02566
3894.18686	0.025
3892.25809	0.02438
3890.32932	0.02399
3888.40055	0.02353
3886.47178	0.02268
3884.54301	0.02168
3882.61424	0.02093
3880.68547	0.02069
3878.7567	0.02081
3876.82792	0.02044
3874.89915	0.01948
3872.97038	0.01877
3871.04161	0.01855
3869.11284	0.01853
3867.18407	0.01854
3865.2553	0.01836
3863.32653	0.01772
3861.39776	0.01677
3859.46899	0.0161
3857.54022	0.01593
3855.61145	0.01608
3853.68268	0.01627
3851.75391	0.0162
3849.82514	0.01592
3847.89637	0.01579
3845.9676	0.01591
3844.03883	0.01594
3842.11006	0.01577
3840.18129	0.01572
3838.25252	0.01601
3836.32375	0.01655
3834.39498	0.01702
3832.46621	0.01691
3830.53744	0.0161
3828.60867	0.01556
3826.6799	0.01591
3824.75113	0.01621
3822.82236	0.01578
3820.89359	0.01492
3818.96482	0.01409
3817.03605	0.01355
3815.10728	0.01347
3813.17851	0.01387
3811.24974	0.01455
3809.32097	0.01523
3807.3922	0.01587
3805.46343	0.01657
3803.53466	0.01726
3801.60589	0.01787
3799.67712	0.01848
3797.74835	0.01919
3795.81958	0.02018
3793.89081	0.02128
3791.96204	0.02229
3790.03327	0.02343
3788.1045	0.02465
3786.17573	0.02574
3784.24696	0.02646
3782.31819	0.02671
3780.38942	0.02659
3778.46065	0.02629
3776.53188	0.02605
3774.60311	0.02572
3772.67434	0.02509
3770.74557	0.02434
3768.8168	0.02341
3766.88803	0.02195
3764.95926	0.02016
3763.03049	0.01845
3761.10172	0.01679
3759.17295	0.01495
3757.24418	0.01308
3755.31541	0.0118
3753.38664	0.01129
3751.45787	0.01109
3749.5291	0.0107
3747.60033	0.0102
3745.67156	0.01004
3743.74279	0.01051
3741.81402	0.01162
3739.88525	0.0133
3737.95648	0.01524
3736.02771	0.01703
3734.09894	0.01852
3732.17017	0.0199
3730.2414	0.0212
3728.31263	0.02225
3726.38386	0.02304
3724.45509	0.02362
3722.52632	0.02409
3720.59755	0.0247
3718.66878	0.02584
3716.74001	0.02738
3714.81124	0.02872
3712.88247	0.02963
3710.9537	0.0309
3709.02493	0.03325
3707.09616	0.03642
3705.16739	0.03993
3703.23861	0.04353
3701.30984	0.04712
3699.38107	0.0505
3697.4523	0.05373
3695.52353	0.05715
3693.59476	0.06053
3691.66599	0.06355
3689.73722	0.06636
3687.80845	0.06924
3685.87968	0.07239
3683.95091	0.07573
3682.02214	0.07889
3680.09337	0.08167
3678.1646	0.08435
3676.23583	0.08731
3674.30706	0.09002
3672.37829	0.09165
3670.44952	0.09258
3668.52075	0.09367
3666.59198	0.09523
3664.66321	0.09742
3662.73444	0.10008
3660.80567	0.10263
3658.8769	0.10453
3656.94813	0.10552
3655.01936	0.10554
3653.09059	0.10466
3651.16182	0.10338
3649.23305	0.10251
3647.30428	0.10217
3645.37551	0.10221
3643.44674	0.1024
3641.51797	0.10249
3639.5892	0.1028
3637.66043	0.10362
3635.73166	0.10483
3633.80289	0.1062
3631.87412	0.10753
3629.94535	0.10869
3628.01658	0.10971
3626.08781	0.111
3624.15904	0.11327
3622.23027	0.1164
3620.3015	0.11963
3618.37273	0.12261
3616.44396	0.12555
3614.51519	0.1286
3612.58642	0.13141
3610.65765	0.13363
3608.72888	0.13564
3606.80011	0.13802
3604.87134	0.14108
3602.94257	0.1449
3601.0138	0.14892
3599.08503	0.15254
3597.15626	0.15585
3595.22749	0.15938
3593.29872	0.16327
3591.36995	0.16698
3589.44118	0.17032
3587.51241	0.17388
3585.58364	0.17797
3583.65487	0.18258
3581.7261	0.18765
3579.79733	0.19284
3577.86856	0.19774
3575.93979	0.20235
3574.01102	0.20691
3572.08225	0.21153
3570.15348	0.21603
3568.22471	0.2203
3566.29594	0.2246
3564.36717	0.22942
3562.4384	0.23505
3560.50963	0.24106
3558.58086	0.24689
3556.65209	0.25244
3554.72332	0.25773
3552.79455	0.26265
3550.86578	0.26723
3548.93701	0.27157
3547.00824	0.27583
3545.07947	0.28035
3543.1507	0.28558
3541.22193	0.29165
3539.29316	0.29808
3537.36439	0.30442
3535.43562	0.31059
3533.50685	0.31651
3531.57807	0.3222
3529.6493	0.32779
3527.72053	0.33327
3525.79176	0.33862
3523.86299	0.34402
3521.93422	0.34989
3520.00545	0.35634
3518.07668	0.36302
3516.14791	0.36953
3514.21914	0.37578
3512.29037	0.38193
3510.3616	0.38805
3508.43283	0.39404
3506.50406	0.39986
3504.57529	0.40568
3502.64652	0.41183
3500.71775	0.4185
3498.78898	0.42553
3496.86021	0.4326
3494.93144	0.43956
3493.00267	0.44642
3491.0739	0.45319
3489.14513	0.45985
3487.21636	0.46642
3485.28759	0.47295
3483.35882	0.47944
3481.43005	0.48588
3479.50128	0.49241
3477.57251	0.49909
3475.64374	0.5058
3473.71497	0.51236
3471.7862	0.51871
3469.85743	0.52484
3467.92866	0.53086
3465.99989	0.53687
3464.07112	0.54292
3462.14235	0.54896
3460.21358	0.5549
3458.28481	0.5608
3456.35604	0.56676
3454.42727	0.57264
3452.4985	0.57822
3450.56973	0.58357
3448.64096	0.58882
3446.71219	0.59395
3444.78342	0.59886
3442.85465	0.6036
3440.92588	0.60832
3438.99711	0.61305
3437.06834	0.61773
3435.13957	0.62234
3433.2108	0.62682
3431.28203	0.63115
3429.35326	0.63536
3427.42449	0.63941
3425.49572	0.64334
3423.56695	0.64731
3421.63818	0.6515
3419.70941	0.6557
3417.78064	0.6597
3415.85187	0.66349
3413.9231	0.66715
3411.99433	0.67076
3410.06556	0.67427
3408.13679	0.67758
3406.20802	0.68066
3404.27925	0.68355
3402.35048	0.68628
3400.42171	0.68885
3398.49294	0.6913
3396.56417	0.69372
3394.6354	0.6961
3392.70663	0.6984
3390.77786	0.70064
3388.84909	0.7029
3386.92032	0.70509
3384.99155	0.70714
3383.06278	0.70906
3381.13401	0.71092
3379.20524	0.71279
3377.27647	0.71469
3375.3477	0.71659
3373.41893	0.7183
3371.49016	0.7199
3369.56139	0.72143
3367.63262	0.72287
3365.70385	0.7242
3363.77508	0.72533
3361.84631	0.72619
3359.91753	0.72679
3357.98876	0.7272
3356.05999	0.72745
3354.13122	0.72759
3352.20245	0.72766
3350.27368	0.72764
3348.34491	0.72747
3346.41614	0.72718
3344.48737	0.72681
3342.5586	0.7263
3340.62983	0.72559
3338.70106	0.72475
3336.77229	0.72387
3334.84352	0.72295
3332.91475	0.72196
3330.98598	0.72086
3329.05721	0.71966
3327.12844	0.71836
3325.19967	0.71696
3323.2709	0.71546
3321.34213	0.71387
3319.41336	0.7122
3317.48459	0.71041
3315.55582	0.70845
3313.62705	0.7064
3311.69828	0.70431
3309.76951	0.70219
3307.84074	0.70005
3305.91197	0.69794
3303.9832	0.69583
3302.05443	0.69373
3300.12566	0.69171
3298.19689	0.68979
3296.26812	0.68788
3294.33935	0.68599
3292.41058	0.68418
3290.48181	0.68246
3288.55304	0.68078
3286.62427	0.67917
3284.6955	0.67769
3282.76673	0.67635
3280.83796	0.67511
3278.90919	0.67396
3276.98042	0.6729
3275.05165	0.67186
3273.12288	0.67077
3271.19411	0.66967
3269.26534	0.66858
3267.33657	0.66747
3265.4078	0.66628
3263.47903	0.66507
3261.55026	0.66391
3259.62149	0.66287
3257.69272	0.66197
3255.76395	0.66119
3253.83518	0.6605
3251.90641	0.6599
3249.97764	0.6594
3248.04887	0.65905
3246.1201	0.65891
3244.19133	0.65899
3242.26256	0.65924
3240.33379	0.65964
3238.40502	0.66014
3236.47625	0.66062
3234.54748	0.66097
3232.61871	0.66116
3230.68994	0.66107
3228.76117	0.66066
3226.8324	0.65991
3224.90363	0.65875
3222.97486	0.65709
3221.04609	0.65484
3219.11732	0.65203
3217.18855	0.64876
3215.25978	0.6451
3213.33101	0.64108
3211.40224	0.63674
3209.47347	0.63211
3207.5447	0.62724
3205.61593	0.62224
3203.68716	0.61718
3201.75839	0.61207
3199.82962	0.60692
3197.90085	0.60174
3195.97208	0.59662
3194.04331	0.59168
3192.11454	0.58696
3190.18577	0.58243
3188.257	0.57816
3186.32822	0.57426
3184.39945	0.57087
3182.47068	0.56801
3180.54191	0.56564
3178.61314	0.56371
3176.68437	0.56214
3174.7556	0.56079
3172.82683	0.55953
3170.89806	0.5582
3168.96929	0.55657
3167.04052	0.55442
3165.11175	0.55161
3163.18298	0.54804
3161.25421	0.54368
3159.32544	0.53854
3157.39667	0.53255
3155.4679	0.52563
3153.53913	0.51782
3151.61036	0.50934
3149.68159	0.50037
3147.75282	0.49098
3145.82405	0.48127
3143.89528	0.4715
3141.96651	0.46199
3140.03774	0.45301
3138.10897	0.44468
3136.1802	0.43704
3134.25143	0.43012
3132.32266	0.42393
3130.39389	0.41842
3128.46512	0.4135
3126.53635	0.40904
3124.60758	0.40485
3122.67881	0.40084
3120.75004	0.39703
3118.82127	0.39345
3116.8925	0.39008
3114.96373	0.38694
3113.03496	0.384
3111.10619	0.38122
3109.17742	0.37859
3107.24865	0.37617
3105.31988	0.37403
3103.39111	0.37215
3101.46234	0.37048
3099.53357	0.36909
3097.6048	0.36812
3095.67603	0.36763
3093.74726	0.36763
3091.81849	0.36811
3089.88972	0.36904
3087.96095	0.37045
3086.03218	0.37233
3084.10341	0.37472
3082.17464	0.37761
3080.24587	0.38094
3078.3171	0.38465
3076.38833	0.38865
3074.45956	0.3929
3072.53079	0.39731
3070.60202	0.40187
3068.67325	0.40656
3066.74448	0.41138
3064.81571	0.4162
3062.88694	0.42076
3060.95817	0.4249
3059.0294	0.42848
3057.10063	0.43148
3055.17186	0.43387
3053.24309	0.43573
3051.31432	0.43712
3049.38555	0.43809
3047.45678	0.43869
3045.52801	0.43897
3043.59924	0.43902
3041.67047	0.43896
3039.7417	0.4389
3037.81293	0.43899
3035.88416	0.43936
3033.95539	0.44017
3032.02662	0.44149
3030.09785	0.44338
3028.16908	0.44585
3026.24031	0.44892
3024.31154	0.45257
3022.38277	0.45679
3020.454	0.46163
3018.52523	0.46708
3016.59646	0.47295
3014.66768	0.47898
3012.73891	0.48537
3010.81014	0.49285
3008.88137	0.50191
3006.9526	0.51246
3005.02383	0.52425
3003.09506	0.53713
3001.16629	0.55117
2999.23752	0.56646
2997.30875	0.58309
2995.37998	0.60125
2993.45121	0.62112
2991.52244	0.64252
2989.59367	0.66489
2987.6649	0.6874
2985.73613	0.70914
2983.80736	0.72927
2981.87859	0.74713
2979.94982	0.76226
2978.02105	0.77435
2976.09228	0.78312
2974.16351	0.78843
2972.23474	0.79008
2970.30597	0.78798
2968.3772	0.78254
2966.44843	0.77492
2964.51966	0.76622
2962.59089	0.75694
2960.66212	0.74732
2958.73335	0.73801
2956.80458	0.7299
2954.87581	0.72376
2952.94704	0.72014
2951.01827	0.71944
2949.0895	0.72176
2947.16073	0.72679
2945.23196	0.73382
2943.30319	0.74209
2941.37442	0.75094
2939.44565	0.75991
2937.51688	0.76859
2935.58811	0.77665
2933.65934	0.78388
2931.73057	0.79004
2929.8018	0.79476
2927.87303	0.79772
2925.94426	0.79881
2924.01549	0.79843
2922.08672	0.7973
2920.15795	0.79572
2918.22918	0.79355
2916.30041	0.79075
2914.37164	0.78745
2912.44287	0.78378
2910.5141	0.77974
2908.58533	0.77532
2906.65656	0.7706
2904.72779	0.76564
2902.79902	0.76038
2900.87025	0.75481
2898.94148	0.74901
2897.01271	0.74309
2895.08394	0.7372
2893.15517	0.73139
2891.2264	0.72567
2889.29763	0.72006
2887.36886	0.71452
2885.44009	0.7088
2883.51132	0.70259
2881.58255	0.69571
2879.65378	0.68819
2877.72501	0.68014
2875.79624	0.67135
2873.86747	0.66128
2871.9387	0.64967
2870.00993	0.63675
2868.08116	0.62275
2866.15239	0.60772
2864.22362	0.59177
2862.29485	0.57527
2860.36608	0.55862
2858.43731	0.54206
2856.50854	0.52574
2854.57977	0.50995
2852.651	0.49496
2850.72223	0.48098
2848.79346	0.4681
2846.86469	0.45637
2844.93592	0.44578
2843.00714	0.43625
2841.07837	0.42765
2839.1496	0.41979
2837.22083	0.41254
2835.29206	0.40585
2833.36329	0.39971
2831.43452	0.39408
2829.50575	0.38891
2827.57698	0.38411
2825.64821	0.37964
2823.71944	0.37548
2821.79067	0.37158
2819.8619	0.36786
2817.93313	0.36433
2816.00436	0.36103
2814.07559	0.3579
2812.14682	0.35484
2810.21805	0.35186
2808.28928	0.34892
2806.36051	0.3459
2804.43174	0.34268
2802.50297	0.33926
2800.5742	0.33568
2798.64543	0.33195
2796.71666	0.32807
2794.78789	0.32402
2792.85912	0.31979
2790.93035	0.3154
2789.00158	0.31089
2787.07281	0.30633
2785.14404	0.3017
2783.21527	0.29696
2781.2865	0.29213
2779.35773	0.2873
2777.42896	0.28256
2775.50019	0.27797
2773.57142	0.27356
2771.64265	0.26943
2769.71388	0.26566
2767.78511	0.26228
2765.85634	0.25926
2763.92757	0.25657
2761.9988	0.25411
2760.07003	0.25183
2758.14126	0.24977
2756.21249	0.24791
2754.28372	0.24618
2752.35495	0.24453
2750.42618	0.24293
2748.49741	0.24137
2746.56864	0.23985
2744.63987	0.23835
2742.7111	0.23685
2740.78233	0.23537
2738.85356	0.23388
2736.92479	0.23236
2734.99602	0.23081
2733.06725	0.2293
2731.13848	0.22786
2729.20971	0.22651
2727.28094	0.22529
2725.35217	0.22423
2723.4234	0.22327
2721.49463	0.22237
2719.56586	0.22149
2717.63709	0.22062
2715.70832	0.21976
2713.77955	0.21893
2711.85078	0.2181
2709.92201	0.21719
2707.99324	0.21608
2706.06447	0.21479
2704.1357	0.21339
2702.20693	0.21197
2700.27816	0.21054
2698.34939	0.20905
2696.42062	0.20748
2694.49185	0.20583
2692.56308	0.20409
2690.63431	0.20222
2688.70554	0.20024
2686.77677	0.1982
2684.848	0.19613
2682.91923	0.19407
2680.99046	0.19202
2679.06169	0.19
2677.13292	0.18811
2675.20415	0.18646
2673.27538	0.1851
2671.34661	0.18408
2669.41783	0.18346
2667.48906	0.18327
2665.56029	0.18349
2663.63152	0.18406
2661.70275	0.18492
2659.77398	0.18603
2657.84521	0.18734
2655.91644	0.18871
2653.98767	0.18999
2652.0589	0.19103
2650.13013	0.19174
2648.20136	0.19205
2646.27259	0.19192
2644.34382	0.19134
2642.41505	0.19032
2640.48628	0.1889
2638.55751	0.18719
2636.62874	0.18525
2634.69997	0.18314
2632.7712	0.1809
2630.84243	0.17865
2628.91366	0.17647
2626.98489	0.17446
2625.05612	0.1727
2623.12735	0.17124
2621.19858	0.1701
2619.26981	0.16928
2617.34104	0.16872
2615.41227	0.16829
2613.4835	0.16789
2611.55473	0.16743
2609.62596	0.16681
2607.69719	0.16594
2605.76842	0.16478
2603.83965	0.16339
2601.91088	0.16178
2599.98211	0.15997
2598.05334	0.15796
2596.12457	0.15579
2594.1958	0.15351
2592.26703	0.15112
2590.33826	0.14861
2588.40949	0.14597
2586.48072	0.14325
2584.55195	0.14055
2582.62318	0.13789
2580.69441	0.13523
2578.76564	0.13263
2576.83687	0.13015
2574.9081	0.12784
2572.97933	0.12568
2571.05056	0.12357
2569.12179	0.12151
2567.19302	0.11954
2565.26425	0.11767
2563.33548	0.11584
2561.40671	0.11407
2559.47794	0.11241
2557.54917	0.1109
2555.6204	0.10949
2553.69163	0.10817
2551.76286	0.10695
2549.83409	0.10578
2547.90532	0.10459
2545.97655	0.10339
2544.04778	0.10224
2542.11901	0.10116
2540.19024	0.10016
2538.26147	0.09919
2536.3327	0.0982
2534.40393	0.09718
2532.47516	0.09617
2530.54639	0.09521
2528.61762	0.09425
2526.68885	0.09323
2524.76008	0.09216
2522.83131	0.09105
2520.90254	0.0899
2518.97377	0.08871
2517.045	0.0875
2515.11623	0.08629
2513.18746	0.08506
2511.25869	0.08383
2509.32992	0.08262
2507.40115	0.08142
2505.47238	0.08019
2503.54361	0.07893
2501.61484	0.07771
2499.68607	0.07662
2497.75729	0.07564
2495.82852	0.07473
2493.89975	0.0739
2491.97098	0.07316
2490.04221	0.0725
2488.11344	0.0719
2486.18467	0.07137
2484.2559	0.07088
2482.32713	0.07042
2480.39836	0.06995
2478.46959	0.06953
2476.54082	0.06914
2474.61205	0.06879
2472.68328	0.06848
2470.75451	0.06817
2468.82574	0.06783
2466.89697	0.06749
2464.9682	0.06717
2463.03943	0.06687
2461.11066	0.06655
2459.18189	0.06622
2457.25312	0.06589
2455.32435	0.06558
2453.39558	0.06525
2451.46681	0.06396
2449.53804	0.06403
2447.60927	0.06406
2445.6805	0.06405
2443.75173	0.06399
2441.82296	0.06388
2439.89419	0.06374
2437.96542	0.06354
2436.03665	0.06331
2434.10788	0.06303
2432.17911	0.06271
2430.25034	0.06234
2428.32157	0.06193
2426.3928	0.06147
2424.46403	0.06097
2422.53526	0.06043
2420.60649	0.05984
2418.67772	0.05921
2416.74895	0.05854
2414.82018	0.05782
2412.89141	0.05706
2410.96264	0.05625
2409.03387	0.0554
2407.1051	0.0545
2405.17633	0.05356
2403.24756	0.05258
2401.31879	0.05156
2399.39002	0.05049
2397.46125	0.04937
2395.53248	0.04821
2393.60371	0.04701
2391.67494	0.04528
2389.74617	0.04348
2387.8174	0.0416
2385.88863	0.03966
2383.95986	0.03765
2382.03109	0.03557
2380.10232	0.03345
2378.17355	0.03133
2376.24478	0.02924
2374.31601	0.0272
2372.38724	0.02524
2370.45847	0.0234
2368.5297	0.0217
2366.60093	0.02016
2364.67216	0.01879
2362.74339	0.01759
2360.81462	0.01656
2358.88585	0.01571
2356.95708	0.01505
2355.02831	0.01455
2353.09954	0.01421
2351.17077	0.01403
2349.242	0.014
2347.31323	0.01412
2345.38446	0.01435
2343.45569	0.0147
2341.52692	0.01516
2339.59815	0.01573
2337.66938	0.01641
2335.74061	0.0172
2333.81184	0.01812
2331.88307	0.01915
2329.9543	0.02032
2328.02553	0.02161
2326.09675	0.02302
2324.16798	0.02452
2322.23921	0.02609
2320.31044	0.02768
2318.38167	0.02927
2316.4529	0.03081
2314.52413	0.03228
2312.59536	0.03366
2310.66659	0.03497
2308.73782	0.03619
2306.80905	0.0373
2304.88028	0.0383
2302.95151	0.03917
2301.02274	0.0399
2299.09397	0.04047
2297.1652	0.04089
2295.23643	0.04116
2293.30766	0.04128
2291.37889	0.04126
2289.45012	0.0411
2287.52135	0.0408
2285.59258	0.04037
2283.66381	0.03983
2281.73504	0.03917
2279.80627	0.03842
2277.8775	0.03756
2275.94873	0.03661
2274.01996	0.03557
2272.09119	0.03448
2270.16242	0.03333
2268.23365	0.03217
2266.30488	0.03103
2264.37611	0.02995
2262.44734	0.02893
2260.51857	0.028
2258.5898	0.02748
2256.66103	0.02699
2254.73226	0.02652
2252.80349	0.02607
2250.87472	0.02563
2248.94595	0.02521
2247.01718	0.02481
2245.08841	0.02443
2243.15964	0.02407
2241.23087	0.02373
2239.3021	0.02341
2237.37333	0.0231
2235.44456	0.02281
2233.51579	0.02254
2231.58702	0.0223
2229.65825	0.02206
2227.72948	0.02185
2225.80071	0.02166
2223.87194	0.02148
2221.94317	0.02133
2220.0144	0.02119
2218.08563	0.02107
2216.15686	0.02097
2214.22809	0.02089
2212.29932	0.02083
2210.37055	0.02078
2208.44178	0.02076
2206.51301	0.02075
2204.58424	0.02076
2202.65547	0.02079
2200.7267	0.02351
2198.79793	0.02385
2196.86916	0.0241
2194.94039	0.02407
2193.01162	0.02373
2191.08285	0.02328
2189.15408	0.02292
2187.22531	0.02271
2185.29654	0.02255
2183.36777	0.02256
2181.439	0.02276
2179.51023	0.02267
2177.58146	0.02194
2175.65269	0.02068
2173.72392	0.01912
2171.79515	0.01741
2169.86638	0.01579
2167.93761	0.01432
2166.00884	0.01292
2164.08007	0.01157
2162.1513	0.01045
2160.22253	0.00973
2158.29376	0.00926
2156.36499	0.00875
2154.43622	0.00818
2152.50744	0.00767
2150.57867	0.00724
2148.6499	0.0069
2146.72113	0.00683
2144.79236	0.00714
2142.86359	0.00791
2140.93482	0.00907
2139.00605	0.01054
2137.07728	0.0122
2135.14851	0.01371
2133.21974	0.01472
2131.29097	0.01547
2129.3622	0.01632
2127.43343	0.01727
2125.50466	0.01823
2123.57589	0.01918
2121.64712	0.02009
2119.71835	0.02092
2117.78958	0.02171
2115.86081	0.02246
2113.93204	0.02306
2112.00327	0.02337
2110.0745	0.02333
2108.14573	0.02305
2106.21696	0.02267
2104.28819	0.02222
2102.35942	0.0217
2100.43065	0.02119
2098.50188	0.02077
2096.57311	0.02051
2094.64434	0.02043
2092.71557	0.02049
2090.7868	0.02065
2088.85803	0.02089
2086.92926	0.02123
2085.00049	0.02166
2083.07172	0.02209
2081.14295	0.02241
2079.21418	0.02265
2077.28541	0.02277
2075.35664	0.02267
2073.42787	0.02244
2071.4991	0.02221
2069.57033	0.02196
2067.64156	0.02166
2065.71279	0.02131
2063.78402	0.02088
2061.85525	0.02042
2059.92648	0.02005
2057.99771	0.01981
2056.06894	0.01966
2054.14017	0.01952
2052.2114	0.01931
2050.28263	0.01907
2048.35386	0.01882
2046.42509	0.01848
2044.49632	0.01794
2042.56755	0.01721
2040.63878	0.0164
2038.71001	0.01554
2036.78124	0.01456
2034.85247	0.01333
2032.9237	0.01183
2030.99493	0.01023
2029.06616	0.00879
2027.13739	0.00768
2025.20862	0.00686
2023.27985	0.00618
2021.35108	0.00554
2019.42231	0.00495
2017.49354	0.00448
2015.56477	0.00424
2013.636	0.00425
2011.70723	0.00438
2009.77846	0.00447
2007.84969	0.00447
2005.92092	0.00441
2003.99215	0.00441
2002.06338	0.00459
2000.13461	0.00493
1998.20584	0.00532
1996.27707	0.00571
1994.3483	0.00606
1992.41953	0.00629
1990.49076	0.00624
1988.56199	0.00593
1986.63322	0.00561
1984.70445	0.00547
1982.77568	0.00543
1980.8469	0.00526
1978.91813	0.00482
1976.98936	0.00419
1975.06059	0.00349
1973.13182	0.00282
1971.20305	0.0022
1969.27428	0.0017
1967.34551	0.00133
1965.41674	0.00106
1963.48797	8.68828E-4
1961.5592	8.04354E-4
1959.63043	9.05481E-4
1957.70166	0.00127
1955.77289	0.00193
1953.84412	0.00277
1951.91535	0.00358
1949.98658	0.00428
1948.05781	0.00482
1946.12904	0.00526
1944.20027	0.00573
1942.2715	0.00633
1940.34273	0.00701
1938.41396	0.0077
1936.48519	0.00831
1934.55642	0.00878
1932.62765	0.00914
1930.69888	0.00956
1928.77011	0.01016
1926.84134	0.01091
1924.91257	0.01169
1922.9838	0.01246
1921.05503	0.01314
1919.12626	0.01369
1917.19749	0.01417
1915.26872	0.01461
1913.33995	0.01496
1911.41118	0.01525
1909.48241	0.01551
1907.55364	0.0157
1905.62487	0.01578
1903.6961	0.01576
1901.76733	0.01564
1899.83856	0.01551
1897.90979	0.01539
1895.98102	0.0152
1894.05225	0.01485
1892.12348	0.0144
1890.19471	0.01398
1888.26594	0.01371
1886.33717	0.01363
1884.4084	0.01365
1882.47963	0.01366
1880.55086	0.01359
1878.62209	0.01343
1876.69332	0.01322
1874.76455	0.01293
1872.83578	0.01255
1870.90701	0.01215
1868.97824	0.01177
1867.04947	0.01145
1865.1207	0.01128
1863.19193	0.0113
1861.26316	0.01144
1859.33439	0.01166
1857.40562	0.01199
1855.47685	0.01237
1853.54808	0.01273
1851.61931	0.01309
1849.69054	0.01353
1847.76177	0.01411
1845.833	0.01494
1843.90423	0.01613
1841.97546	0.01756
1840.04669	0.01896
1838.11792	0.02012
1836.18915	0.02079
1834.26038	0.02087
1832.33161	0.02119
1830.40284	0.02376
1828.47407	0.03065
1826.5453	0.04302
1824.61653	0.06082
1822.68776	0.08303
1820.75899	0.10825
1818.83022	0.1352
1816.90145	0.16265
1814.97268	0.18959
1813.04391	0.21554
1811.11514	0.24022
1809.18636	0.26323
1807.25759	0.2843
1805.32882	0.30353
1803.40005	0.32089
1801.47128	0.33621
1799.54251	0.34926
1797.61374	0.35974
1795.68497	0.36769
1793.7562	0.37407
1791.82743	0.38013
1789.89866	0.38627
1787.96989	0.39261
1786.04112	0.39989
1784.11235	0.40877
1782.18358	0.41866
1780.25481	0.42785
1778.32604	0.43455
1776.39727	0.43793
1774.4685	0.43866
1772.53973	0.43903
1770.61096	0.44099
1768.68219	0.44437
1766.75342	0.44805
1764.82465	0.45107
1762.89588	0.45282
1760.96711	0.4529
1759.03834	0.45104
1757.10957	0.44727
1755.1808	0.44212
1753.25203	0.43612
1751.32326	0.42949
1749.39449	0.42229
1747.46572	0.41442
1745.53695	0.40492
1743.60818	0.39207
1741.67941	0.37456
1739.75064	0.35214
1737.82187	0.32551
1735.8931	0.29569
1733.96433	0.26391
1732.03556	0.23195
1730.10679	0.20214
1728.17802	0.17696
1726.24925	0.15803
1724.32048	0.14409
1722.39171	0.13241
1720.46294	0.12256
1718.53417	0.11603
1716.6054	0.11508
1714.67663	0.12166
1712.74786	0.13703
1710.81909	0.16143
1708.89032	0.19382
1706.96155	0.23168
1705.03278	0.27065
1703.10401	0.30702
1701.17524	0.33905
1699.24647	0.36594
1697.3177	0.38702
1695.38893	0.40176
1693.46016	0.41007
1691.53139	0.41223
1689.60262	0.40834
1687.67385	0.39831
1685.74508	0.38234
1683.81631	0.36099
1681.88754	0.33499
1679.95877	0.30495
1678.03	0.2716
1676.10123	0.2369
1674.17246	0.20404
1672.24369	0.17566
1670.31492	0.15361
1668.38615	0.13856
1666.45738	0.12989
1664.52861	0.12597
1662.59984	0.12479
1660.67107	0.12424
1658.7423	0.12255
1656.81353	0.11995
1654.88476	0.11739
1652.95599	0.11508
1651.02722	0.11287
1649.09845	0.11073
1647.16968	0.10875
1645.24091	0.10702
1643.31214	0.10548
1641.38337	0.10396
1639.4546	0.10234
1637.52583	0.10074
1635.59705	0.09922
1633.66828	0.09768
1631.73951	0.09614
1629.81074	0.09492
1627.88197	0.09428
1625.9532	0.09429
1624.02443	0.095
1622.09566	0.09644
1620.16689	0.09837
1618.23812	0.10035
1616.30935	0.10212
1614.38058	0.10357
1612.45181	0.1047
1610.52304	0.10553
1608.59427	0.106
1606.6655	0.10595
1604.73673	0.10531
1602.80796	0.10403
1600.87919	0.10201
1598.95042	0.09927
1597.02165	0.09621
1595.09288	0.09302
1593.16411	0.08945
1591.23534	0.08569
1589.30657	0.08257
1587.3778	0.08098
1585.44903	0.08182
1583.52026	0.08575
1581.59149	0.09295
1579.66272	0.10316
1577.73395	0.11568
1575.80518	0.12967
1573.87641	0.14428
1571.94764	0.15877
1570.01887	0.17242
1568.0901	0.18461
1566.16133	0.195
1564.23256	0.20335
1562.30379	0.20939
1560.37502	0.21277
1558.44625	0.21318
1556.51748	0.21049
1554.58871	0.20491
1552.65994	0.19689
1550.73117	0.18689
1548.8024	0.17509
1546.87363	0.16186
1544.94486	0.14826
1543.01609	0.13555
1541.08732	0.12437
1539.15855	0.11504
1537.22978	0.10778
1535.30101	0.10254
1533.37224	0.09889
1531.44347	0.09604
1529.5147	0.09363
1527.58593	0.09255
1525.65716	0.09333
1523.72839	0.09542
1521.79962	0.09785
1519.87085	0.10064
1517.94208	0.10567
1516.01331	0.11514
1514.08454	0.12997
1512.15577	0.14933
1510.227	0.17081
1508.29823	0.19209
1506.36946	0.21201
1504.44069	0.23042
1502.51192	0.24762
1500.58315	0.26347
1498.65438	0.27719
1496.72561	0.28784
1494.79684	0.2949
1492.86807	0.29857
1490.9393	0.29906
1489.01053	0.29615
1487.08176	0.2899
1485.15299	0.28106
1483.22422	0.2709
1481.29545	0.26072
1479.36668	0.25086
1477.43791	0.24168
1475.50914	0.23406
1473.58037	0.22973
1471.6516	0.23034
1469.72283	0.23548
1467.79406	0.2429
1465.86529	0.24993
1463.93651	0.25463
1462.00774	0.25682
1460.07897	0.25733
1458.1502	0.25677
1456.22143	0.25512
1454.29266	0.25174
1452.36389	0.24604
1450.43512	0.23802
1448.50635	0.22834
1446.57758	0.21776
1444.64881	0.20653
1442.72004	0.19484
1440.79127	0.18345
1438.8625	0.1734
1436.93373	0.16522
1435.00496	0.15924
1433.07619	0.15595
1431.14742	0.15534
1429.21865	0.15671
1427.28988	0.15945
1425.36111	0.16313
1423.43234	0.16725
1421.50357	0.17136
1419.5748	0.17542
1417.64603	0.17984
1415.71726	0.18509
1413.78849	0.19112
1411.85972	0.19741
1409.93095	0.20339
1408.00218	0.20873
1406.07341	0.21326
1404.14464	0.21691
1402.21587	0.21958
1400.2871	0.2212
1398.35833	0.22175
1396.42956	0.22152
1394.50079	0.22127
1392.57202	0.22176
1390.64325	0.22334
1388.71448	0.22619
1386.78571	0.2303
1384.85694	0.23539
1382.92817	0.24081
1380.9994	0.24585
1379.07063	0.25002
1377.14186	0.25315
1375.21309	0.25548
1373.28432	0.25751
1371.35555	0.25957
1369.42678	0.26129
1367.49801	0.26181
1365.56924	0.26044
1363.64047	0.25718
1361.7117	0.25246
1359.78293	0.24678
1357.85416	0.24047
1355.92539	0.23372
1353.99662	0.22681
1352.06785	0.22022
1350.13908	0.21463
1348.21031	0.21071
1346.28154	0.2088
1344.35277	0.20896
1342.424	0.21099
1340.49523	0.21455
1338.56646	0.21922
1336.63769	0.22457
1334.70892	0.23032
1332.78015	0.23641
1330.85138	0.24275
1328.92261	0.24907
1326.99384	0.25494
1325.06507	0.25992
1323.1363	0.26365
1321.20753	0.26597
1319.27876	0.2669
1317.34999	0.26674
1315.42122	0.26595
1313.49245	0.26491
1311.56368	0.26376
1309.63491	0.26263
1307.70614	0.26167
1305.77737	0.26104
1303.8486	0.26088
1301.91983	0.2613
1299.99106	0.26226
1298.06229	0.26356
1296.13352	0.26488
1294.20475	0.26592
1292.27597	0.26633
1290.3472	0.2658
1288.41843	0.26403
1286.48966	0.26078
1284.56089	0.25578
1282.63212	0.24878
1280.70335	0.23966
1278.77458	0.22852
1276.84581	0.21589
1274.91704	0.20279
1272.98827	0.19069
1271.0595	0.18107
1269.13073	0.17481
1267.20196	0.17222
1265.27319	0.17336
1263.34442	0.17832
1261.41565	0.18678
1259.48688	0.19792
1257.55811	0.21077
1255.62934	0.22442
1253.70057	0.238
1251.7718	0.25064
1249.84303	0.26147
1247.91426	0.2697
1245.98549	0.27467
1244.05672	0.27591
1242.12795	0.27321
1240.19918	0.26652
1238.27041	0.25597
1236.34164	0.2419
1234.41287	0.22491
1232.4841	0.206
1230.55533	0.18647
1228.62656	0.16776
1226.69779	0.1512
1224.76902	0.13786
1222.84025	0.12861
1220.91148	0.12411
1218.98271	0.12432
1217.05394	0.12832
1215.12517	0.13454
1213.1964	0.14154
1211.26763	0.14849
1209.33886	0.155
1207.41009	0.16084
1205.48132	0.16575
1203.55255	0.16944
1201.62378	0.17169
1199.69501	0.17234
1197.76624	0.17133
1195.83747	0.16861
1193.9087	0.16431
1191.97993	0.1587
1190.05116	0.15226
1188.12239	0.14563
1186.19362	0.13967
1184.26485	0.13559
1182.33608	0.13499
1180.40731	0.13959
1178.47854	0.15069
1176.54977	0.16865
1174.621	0.19279
1172.69223	0.22156
1170.76346	0.25329
1168.83469	0.2866
1166.90592	0.32049
1164.97715	0.35395
1163.04838	0.38584
1161.11961	0.41497
1159.19084	0.44027
1157.26207	0.4611
1155.3333	0.47731
1153.40453	0.48878
1151.47576	0.49543
1149.54699	0.49753
1147.61822	0.4958
1145.68945	0.49097
1143.76068	0.48349
1141.83191	0.47378
1139.90314	0.46295
1137.97437	0.45329
1136.0456	0.4479
1134.11683	0.44952
1132.18806	0.45931
1130.25929	0.47672
1128.33052	0.50003
1126.40175	0.52712
1124.47298	0.55583
1122.54421	0.58423
1120.61544	0.61059
1118.68666	0.63339
1116.75789	0.65139
1114.82912	0.66384
1112.90035	0.6707
1110.97158	0.67265
1109.04281	0.67058
1107.11404	0.66527
1105.18527	0.65751
1103.2565	0.64831
1101.32773	0.63844
1099.39896	0.62821
1097.47019	0.61766
1095.54142	0.60723
1093.61265	0.59798
1091.68388	0.59144
1089.75511	0.58906
1087.82634	0.59149
1085.89757	0.59777
1083.9688	0.6059
1082.04003	0.61426
1080.11126	0.6222
1078.18249	0.62957
1076.25372	0.63621
1074.32495	0.64201
1072.39618	0.64706
1070.46741	0.65161
1068.53864	0.65599
1066.60987	0.66075
1064.6811	0.66651
1062.75233	0.67379
1060.82356	0.68296
1058.89479	0.69426
1056.96602	0.70754
1055.03725	0.7223
1053.10848	0.73799
1051.17971	0.7543
1049.25094	0.77131
1047.32217	0.78932
1045.3934	0.8089
1043.46463	0.83067
1041.53586	0.85436
1039.60709	0.87853
1037.67832	0.90154
1035.74955	0.92245
1033.82078	0.94096
1031.89201	0.95702
1029.96324	0.9706
1028.03447	0.98186
1026.1057	0.9908
1024.17693	0.99707
1022.24816	1
1020.31939	0.99893
1018.39062	0.99342
1016.46185	0.98348
1014.53308	0.96962
1012.60431	0.9527
1010.67554	0.9336
1008.74677	0.91312
1006.818	0.89222
1004.88923	0.87248
1002.96046	0.85614
1001.03169	0.84505
999.10292	0.83948
997.17415	0.83779
995.24538	0.83723
993.31661	0.83555
991.38784	0.8318
989.45907	0.8259
987.5303	0.81768
985.60153	0.80654
983.67276	0.79165
981.74399	0.77231
979.81522	0.74807
977.88645	0.71877
975.95768	0.68466
974.02891	0.64661
972.10014	0.60591
970.17137	0.564
968.2426	0.52213
966.31383	0.48129
964.38506	0.44231
962.45629	0.4061
960.52752	0.37389
958.59875	0.34716
956.66998	0.32693
954.74121	0.31287
952.81244	0.30345
950.88367	0.29713
948.9549	0.29313
947.02612	0.29125
945.09735	0.29122
943.16858	0.29218
941.23981	0.29265
939.31104	0.2913
937.38227	0.28752
935.4535	0.28133
933.52473	0.27313
931.59596	0.26345
929.66719	0.25279
927.73842	0.24157
925.80965	0.23003
923.88088	0.2182
921.95211	0.20604
920.02334	0.19365
918.09457	0.18122
916.1658	0.16885
914.23703	0.15651
912.30826	0.1442
910.37949	0.13209
908.45072	0.12052
906.52195	0.10996
904.59318	0.10077
902.66441	0.09301
900.73564	0.08645
898.80687	0.08072
896.8781	0.07541
894.94933	0.07022
893.02056	0.06501
891.09179	0.05994
889.16302	0.05554
887.23425	0.05246
885.30548	0.05104
883.37671	0.05122
881.44794	0.05283
879.51917	0.0558
877.5904	0.06009
875.66163	0.06556
873.73286	0.07197
871.80409	0.07911
869.87532	0.08674
867.94655	0.0947
866.01778	0.1029
864.08901	0.11124
862.16024	0.11946
860.23147	0.12711
858.3027	0.1337
856.37393	0.13881
854.44516	0.14205
852.51639	0.14313
850.58762	0.14196
848.65885	0.1386
846.73008	0.13328
844.80131	0.12646
842.87254	0.11875
840.94377	0.11061
839.015	0.10207
837.08623	0.09305
835.15746	0.08364
833.22869	0.07408
831.29992	0.0645
829.37115	0.055
827.44238	0.0457
825.51361	0.03683
823.58484	0.02871
821.65607	0.02167
819.7273	0.01593
817.79853	0.01142
815.86976	0.00786
813.94099	0.00502
812.01222	0.00286
810.08345	0.00135
808.15468	4.23944E-4
806.22591	0
804.29714	7.4176E-7
802.36837	3.36142E-4
800.4396	9.59388E-4
798.51083	0.00185
796.58206	0.00298
794.65329	0.00435
792.72452	0.00611
790.79575	0.00843
788.86698	0.01134
786.93821	0.01477
785.00944	0.01881
783.08067	0.02364
781.1519	0.02938
779.22313	0.03595
777.29436	0.04319
775.36558	0.05083
773.43681	0.05856
771.50804	0.06609
769.57927	0.0732
767.6505	0.07973
765.72173	0.08556
763.79296	0.0906
761.86419	0.09469
759.93542	0.09777
758.00665	0.0999
756.07788	0.10132
754.14911	0.10221
752.22034	0.10255
750.29157	0.10233
748.3628	0.10189
746.43403	0.10183
744.50526	0.10235
742.57649	0.1033
740.64772	0.10452
738.71895	0.1061
736.79018	0.10814
734.86141	0.11054
732.93264	0.11312
731.00387	0.11577
729.0751	0.11846
727.14633	0.1211
725.21756	0.12354
723.28879	0.12551
721.36002	0.1268
719.43125	0.12755
717.50248	0.12858
715.57371	0.13088
713.64494	0.13474
711.71617	0.13964
709.7874	0.14485
707.85863	0.14974
705.92986	0.15394
704.00109	0.15738
702.07232	0.16025
700.14355	0.16258
698.21478	0.16405
696.28601	0.16427
694.35724	0.16315
692.42847	0.16135
690.4997	0.15917
688.57093	0.15618
686.64216	0.153
684.71339	0.14964
682.78462	0.14603
680.85585	0.1423
678.92708	0.13864
676.99831	0.13525
675.06954	0.13256
673.14077	0.13125
671.212	0.13192
669.28323	0.13431
667.35446	0.13728
665.42569	0.13977
663.49692	0.14139
661.56815	0.14219
659.63938	0.14232
657.71061	0.14185
655.78184	0.14078
653.85307	0.13914
651.9243	0.13695
649.99553	0.13433
648.06676	0.13168
646.13799	0.12947
644.20922	0.1274
642.28045	0.12522
640.35168	0.12363
638.42291	0.1224
636.49414	0.12175
634.56537	0.12191
632.6366	0.12296
630.70783	0.12492
628.77906	0.1277
626.85029	0.13115
624.92152	0.13504
622.99275	0.13915
621.06398	0.14326
619.13521	0.1472
617.20644	0.1508
615.27767	0.15397
613.3489	0.15672
611.42013	0.15916
609.49136	0.16143
607.56259	0.16363
605.63382	0.16581
603.70505	0.16802
601.77627	0.1704
599.8475	0.17313
597.91873	0.17626
595.98996	0.17968
594.06119	0.18331
592.13242	0.18704
590.20365	0.19064
588.27488	0.19388
586.34611	0.19665
584.41734	0.19882
582.48857	0.20026
580.5598	0.20086
578.63103	0.20055
576.70226	0.19932
574.77349	0.19715
572.84472	0.19407
570.91595	0.19016
568.98718	0.18563
567.05841	0.18071
565.12964	0.17568
563.20087	0.17069
561.2721	0.16585
559.34333	0.16126
557.41456	0.15704
555.48579	0.15333
553.55702	0.15017
551.62825	0.14744
549.69948	0.14497
547.77071	0.14275
545.84194	0.14087
543.91317	0.13951
541.9844	0.13879
540.05563	0.1387
538.12686	0.13908
536.19809	0.13968
534.26932	0.14039
532.34055	0.14114
530.41178	0.14186
528.48301	0.14243
526.55424	0.14278
524.62547	0.14286
522.6967	0.14261
520.76793	0.14194
518.83916	0.14084
516.91039	0.13946
514.98162	0.13807
513.05285	0.13682
511.12408	0.13566
509.19531	0.13447
507.26654	0.13318
505.33777	0.13177
503.409	0.13033
501.48023	0.12898
499.55146	0.12782
497.62269	0.12686
495.69392	0.12601
493.76515	0.125
491.83638	0.12358
489.90761	0.12166
487.97884	0.11939
486.05007	0.11689
484.1213	0.11421
482.19253	0.11136
480.26376	0.10842
478.33499	0.10545
476.40622	0.1025
474.47745	0.09963
472.54868	0.09695
470.61991	0.09455
468.69114	0.09243
466.76237	0.09045
464.8336	0.0884
462.90483	0.0862
460.97606	0.08382
459.04729	0.08129
457.11852	0.07869
455.18975	0.07611
453.26098	0.07362
451.33221	0.07127
449.40344	0.06912
447.47467	0.06726
445.5459	0.06569
443.61713	0.06446
441.68836	0.06362
439.75959	0.06322
437.83082	0.06318
435.90205	0.06338
433.97328	0.0637
432.04451	0.06402
430.11573	0.06419
428.18696	0.06406
426.25819	0.06349
424.32942	0.06249
422.40065	0.06111
420.47188	0.05946
418.54311	0.05752
416.61434	0.05531
414.68557	0.05282
412.7568	0.05006
410.82803	0.04701
408.89926	0.04369
406.97049	0.0401
405.04172	0.03623
403.11295	0.03208
401.18418	0.02765
399.25541	0.02295